-0.0340717379390333,0.0236539514886236,0.0102623984460781,-0.000667495590092509
-0.0353990564135135,0.0438747720778409,0.00785462190602755,-0.000610108855385679
-0.0420435714604584,0.0445586423627513,0.00548647552002061,0.000450601505229892
-0.0311042542186093,0.0425722937564795,0.00542485329306525,0.00250388721669413
0.00704429683953352,0.0463170152588194,0.000491163633909746,0.00420282745442646
0.031052375044941,0.0450341900812975,0.00145895467382092,0.00451322796350786
0.0197078699227212,0.0220308294303187,0.0142743676610033,0.0034644194875778
0.0066216306065656,-0.0146532406610661,0.0253609016159754,0.00188955579260972
0.0149108486911158,-0.0473846058804184,0.0261500149841683,0.000494142725509163
0.0315324109997343,-0.0657676536634258,0.0201718771405029,-0.000686361713864454
0.0234252884959367,-0.0585790985567298,0.0174631890242108,-0.00171228457654506
-0.00795679097166451,-0.0376647143980574,0.0155428544555222,-0.00205321535761848
-0.0246210234057036,-0.0279297186492523,0.00454777286664533,-0.00125639387097885
-0.0149872648951867,-0.0272481085427577,-0.0106780472516496,-0.000112632516248717
0.00725233320534819,-0.0241945279499967,-0.0255302103002629,0.000634884703997809
0.0243478743619012,-0.0212736915315202,-0.0345324188706997,0.000897925927279585
0.0228324183035615,-0.0185418580976146,-0.0245881106737331,0.000293490063599944
-0.000986206480313265,-0.00774892772521676,0.00759894839615095,-0.00109409080185304
-0.0331727907543113,0.0111685025422812,0.0466674249596004,-0.00215672221987706
-0.05015564796105,0.0181729849732248,0.0592085027136495,-0.0018772220461361
-0.0469301702697271,0.008672474637086,0.0361561134511414,-0.000243718319532276
-0.0290963627612684,0.0115984082640146,0.0120276120995264,0.0019996477132136
-0.00509012594716234,0.0300830460991599,0.00518439019448664,0.00397002480105435
0.0141702259227392,0.0368578666650705,-0.000360948837740554,0.005478375544454
0.0220909714127964,0.0256039280302438,-0.0122040126250768,0.00666745574406313
0.0189169547423394,0.00851650764705784,-0.0202882122234364,0.00732508141098213
0.0112003139251904,-0.00507845348974947,-0.0187276033708768,0.00714737754772063
0.00540619208481388,-0.0133866290809047,-0.012923165571618,0.0056138864719991
0.00623211238838439,-0.0156380079147877,-0.00901659815196559,0.00247669874295324
0.0119029351424465,-0.00987889294365679,-0.00715542535094513,-0.00136391092402569
0.0141489977427149,-0.00306604500777353,-0.0061760669136981,-0.0043796100453507
0.00942033182449612,0.00123798679834662,-0.00511906744586181,-0.00574669164558224
0.00149357116401534,0.015416568333732,0.000632497340517821,-0.00599318895194339
-0.00428299117845762,0.0361702360484378,0.0138047303132644,-0.00631434812545768
-0.00684887904639817,0.0394707916953704,0.0240774687711354,-0.00693204218831789
-0.00794663945068263,0.0234226506905538,0.0225083354625753,-0.00683977033630714
-0.00609877104216625,0.00785547878743434,0.0163135588921334,-0.00533309495918331
-0.0019364249919925,-0.00142948984871382,0.00947217694174244,-0.00293069092331367
0.000552621622178878,-0.017820268672476,-0.00130972509658633,-0.000529739868253425
-0.000567673055635714,-0.048398073650271,-0.0131164754573563,0.00164803686447716
-0.0055706327345849,-0.0774755909585302,-0.0233129608419034,0.00375519665741026
-0.0199184889389717,-0.0882477278273724,-0.0300581973764993,0.00575926695629097
-0.0534879682171097,-0.0819010480721049,-0.0274670015887293,0.00701372052085353
-0.0953710965132971,-0.0673522862915706,-0.0178163605374306,0.00669015041035999
-0.108498001121949,-0.051902449009069,-0.0107311279296528,0.00486868258073296
-0.0751821271798274,-0.0324486808635284,-0.00643118361201499,0.00240780246622464
-0.0194038277385119,-0.00519794128194515,0.00355325070180128,-2.87634762654128e-05
0.0337709124013353,0.0153068659353511,0.0157144815165202,-0.00227643806350706
0.0809119619961746,0.0141443725895418,0.0174778302834157,-0.00411706247670911
0.117891719203785,0.00120920262987724,0.00676653111007547,-0.00506671723327543
0.118675914613648,0.00145911532511426,-0.010404565783891,-0.00466352707209612
0.0728759098712399,0.0227160899088575,-0.0239980512903721,-0.00282731383316372
0.0219660866591408,0.052246752731521,-0.0221010235173141,-0.000160009808775681
-0.00258888801221697,0.0755514054243686,-0.00373238731148191,0.00190731953716015
-0.00936948614222579,0.0798221515563378,0.0150522863686903,0.00189281213713559
-0.0163901938384451,0.0595523130790577,0.0186413882172613,-0.000206420305977507
-0.0318321448786758,0.0258844634985268,0.0112205965418024,-0.00327340369019424
-0.0455693016476296,-0.00355803474741895,0.00456804338026348,-0.00634489910602939
-0.0477829258226652,-0.0196082783205396,0.000470387864014734,-0.00840862415970607
-0.0395844302629023,-0.0269543892282823,-0.00701717916121366,-0.00863738453616768
-0.0226891497799508,-0.03609043196543,-0.0219192549387959,-0.00671536107809842
-0.000970542079751408,-0.0412329328678915,-0.0328307866527439,-0.00254522944240534
0.0120018279568183,-0.0334927111090028,-0.0283194518433264,0.00254575275598077
0.00914866891753779,-0.0208171421056077,-0.0166018412368267,0.00609717251950793
0.000325393434393299,-0.0111519097900748,-0.00701708307807702,0.00730049055553175
-0.00728531112196136,-0.00718454176561763,-3.06627970068502e-05,0.00687989753348609
-0.013696014502854,-0.0122320726920888,0.00295641330378701,0.00491094780975345
-0.0130379311798184,-0.0175965638203977,0.00136013308181542,0.0015492695232892
-0.00261860541426845,-0.00822054403450763,0.00161866784694869,-0.00175807424169068
0.00459735581673434,0.0129489199982099,0.0086083403074058,-0.00374783759403928
0.00351148805347026,0.0314694800877406,0.0153818956326247,-0.00417977079822895
0.00767333071365278,0.0394067877871874,0.0161674905132215,-0.00353149552574446
0.019718656865408,0.0379403778741793,0.0167600264883269,-0.00256180488112141
0.0258568994368829,0.0333276465241884,0.0184883367255204,-0.00170827930418122
0.0155308430654923,0.0289250238756102,0.0153256347132545,-0.00127338929910958
0.00099364482557718,0.0229620373362167,0.00695398733964021,-0.00121289894306142
0.000507586123772968,0.0171623159938766,-0.00493045580870183,-0.00125278790801374
0.0095175772043708,0.0193287961750985,-0.013591465809397,-0.00137847388903208
0.0181519475633489,0.0289508462024766,-0.0105844588673976,-0.00137258609696086
0.0224861950261635,0.0323962729996366,-0.00571966585429748,-0.000853539194130983
0.0205679522802138,0.025030896675756,-0.00735529033385323,0.000133645534514855
0.018587588123808,0.0162021823851586,-0.0090736860425236,0.000862201275463956
0.0205983331627762,0.00978509286363903,-0.00835497134278652,0.000544911582101717
0.0126582771989913,0.00124906761982767,-0.00678891964048911,-0.000451751887890725
-0.00970258976667079,-0.0118687304216404,-0.00718201701420768,-0.000805913582449925
-0.0279887144357924,-0.0230131163338914,-0.00763022562082044,8.04146739366537e-05
-0.0315737500227918,-0.022462219739194,-0.00448278632488068,0.00146429271831721
-0.0156380904714702,-0.00984664367514644,-0.00132136576006084,0.00207553270292998
0.0188826875733691,0.00685719240876387,0.000160210685406897,0.00131710837872736
0.044784670698967,0.01882373026465,0.00355264046906092,0.000117847754523402
0.0356369749091021,0.0172165139179748,0.00762534157882761,0.000239528737777345
0.000921610162502536,0.00312898290851778,0.00763726701612468,0.00224875040760464
-0.0335479631245024,-0.00757103192315604,0.00652166119019121,0.00456160968755932
-0.0517833536915273,-0.00803496759089833,0.00810951605154061,0.00535866625691726
-0.0527316045957924,-0.00540579004948078,0.00802067917563539,0.00454709393983878
-0.0455708769257272,-0.0039235304301603,0.00383782535262908,0.00295990198187112
-0.0340176095144707,-0.00411484442287316,0.000579407911315903,0.000965770970729939
-0.0217408440850955,-0.0104112481912849,-0.00271146509414881,-0.00128873470981059
-0.0217031287825225,-0.0269558756497464,-0.00953510238954562,-0.00330564735343162
-0.0343185024259965,-0.0470375931092787,-0.0172778746942622,-0.00457001215311974
-0.0429445834358042,-0.0563465156594939,-0.0209462274362971,-0.00456294269821269
-0.0374450649728357,-0.0518170393916397,-0.0144879588296416,-0.00320473925970216
-0.0207346590512051,-0.0449967542487928,-0.00484040978568026,-0.00135003226169916
-0.00303520911990532,-0.0431229895082894,-0.00418416961912119,0.000186220077038812
0.0137185723558538,-0.0450516292615724,-0.00535566458468904,0.00121586918400728
0.0585939934908927,-0.0446483844977255,0.000295065419252001,0.00160691740081394
0.106023259556992,-0.036048623856831,0.00791995914617401,0.000843876084420084
0.0827336216330138,-0.0258924097803574,0.00942200231101411,-0.00060084865101855
0.0288570320339634,-0.0262928625173164,0.00432103383005642,-0.00103219713862926
0.00921546859570536,-0.0366390744803203,0.000472946894907502,0.000233800824004418
0.0121140415356341,-0.0444339247848587,-0.00189048653121974,0.00231353348612393
0.0211214302499578,-0.0427200992196156,-0.00785598613444385,0.00426982586440417
0.0183085315640677,-0.0323456535952117,-0.0141997573173489,0.00574129047901902
-0.00551010445715248,-0.0155446891596023,-0.0155385630704079,0.0059778040785682
-0.0282131906369046,0.00314697647409314,-0.0123714406090069,0.00420755532229885
-0.0320957649693019,0.0221617438197144,-0.00575290262669565,0.00101584674307601
-0.0252435908571924,0.0400814568036074,0.00511749710976475,-0.00226608178047968
-0.0178955595451936,0.0519088686739377,0.0154638209114486,-0.00450139028588388
-0.00857139738450626,0.0489057977009477,0.0158861891041564,-0.00489902906519642
0.00168094429988556,0.0268763241281275,0.00894819162663774,-0.00355351190971385
0.0101114298859875,0.00107175476053499,0.00610720894066126,-0.00142584808584117
0.0165609405840219,-0.00899101561671516,0.00792156386372972,0.000401144014763981
0.0206722299077732,-0.00264957169517823,0.00824502836389769,0.00109839548170281
0.0255793555172248,0.00552564837586202,0.00627518053694244,0.000439390468012069
0.0301074665742242,0.00509578677860655,0.00403176022225352,-0.000706502076324897
0.0311551169499868,-0.00360604555315702,0.0030241822967418,-0.00120064729950305
0.0316491033850011,-0.0175127297010393,0.00780915549434982,-0.00101478711484881
0.0335173428840579,-0.0300160035606247,0.0163039195967493,-0.00060902519008604
0.0249814153254732,-0.0355878258134909,0.0133328746744244,0.000117650349358427
0.000667299724770758,-0.037942070851296,-0.00266034564719492,0.00108717183504364
-0.0150478296301994,-0.0372214689097118,-0.0144378507641154,0.00166140732039982
-0.0143491530357392,-0.0270038954977144,-0.0133321753645864,0.00142098539560191
-0.017194344973913,-0.00869762979858986,-0.00436456839465108,0.000363211299863244
-0.0257205278281809,0.00974820471654458,0.00520621420418705,-0.00136871572261654
-0.0187942414738733,0.0258575496041349,0.0120020449156565,-0.00306123824380789
0.0195573323497969,0.035926789189541,0.0133455441870908,-0.00349333204969441
0.0577775250030906,0.0347533640216366,0.00657159108123782,-0.00249257688078978
0.0522288335795809,0.0291650712844936,-0.00325513050716278,-0.00133865879362406
0.0242100032876943,0.0232095684835502,-0.0114322680780549,-0.00144586845167958
0.0201388699126195,0.0161444372155662,-0.0189217912497507,-0.00284486046322433
0.033834235706547,0.0196803682699729,-0.0136891331121427,-0.00361376466075899
0.0315076663719893,0.033711086434644,0.0104426681316962,-0.0016095389554313
0.0168713630514102,0.032759333887359,0.0269930714050385,0.00314403688836061
0.00721174922261965,0.0123068272360126,0.0137647313646711,0.00807850138368622
-0.0068285625530661,-0.00841591620759193,-0.0171752117640207,0.0102265607502295
-0.0276679408424569,-0.0201041345432311,-0.0358809259202311,0.0092894242564086
-0.0381397771235927,-0.0174337674469312,-0.0234075841478335,0.0073052976669163
-0.0317330598042115,-0.00108266856337386,0.00805603044898235,0.00527790651084272
-0.0172864668177887,0.00862688602306433,0.0269028877308106,0.00233608631646228
-0.00447540595199757,-0.00507738179308267,0.016556450720099,-0.00180900012895831
0.00502157065247043,-0.0269161541118976,-0.00426511888994571,-0.00515091390556025
0.0138373067648782,-0.0401375128103054,-0.0120752974261542,-0.00561614269918226
0.0156425018081233,-0.0498379802438392,-0.0115802300604149,-0.0036816439075221
-0.00215181367852153,-0.0610820180498858,-0.011784318758124,-0.00138319397869692
-0.029316124300904,-0.0694444469649525,-0.010227175072435,-4.28369411141867e-05
-0.0387250366670969,-0.0676758433366534,-0.00636362226261928,0.000341679353692361
-0.0286107915423138,-0.054014447154043,-0.00324614201237713,0.000205345065923454
-0.0248724893677667,-0.0355416864285958,-0.00265607126197853,5.327095050679e-05
-0.0452386190344132,-0.0244293476632978,-0.00472345741836098,0.000398105725445205
-0.0709472034014062,-0.0204280895092964,-0.00762782166395125,0.00123377718765277
-0.0761398657377603,-0.0125784698326488,-0.00836069666948325,0.00213095814978481
-0.0620388028260972,0.00252537376701676,-0.00548852538800251,0.00297296439495691
-0.0335933930968076,0.0293767657390683,0.00306856150060458,0.00341184436127472
0.00785047099695008,0.0584249922626606,0.0157871152660212,0.00221907513348682
0.0475907660345352,0.0551072678285222,0.0205202457490859,-0.000763381249886811
0.0654164600458691,0.0106745964237216,0.0114939511830735,-0.00329251027117753
0.0495206843246352,-0.0359273086627628,0.00119160536627582,-0.00274920829432684
0.01623819389352,-0.0541045436680742,-0.00286397598743927,0.00107887511926608
-0.00170042008584592,-0.0506333815040234,-0.005112260604938,0.00569686327269983
-0.00210718814552739,-0.0336344748494002,-0.00290155293679514,0.00855010826171144
0.002420682050075,-0.00993223474413126,0.00204675542828434,0.00896558622050285
0.0121968459188943,0.00148543093682835,-0.00240577952049978,0.00746284726991011
0.0189648563500116,-0.00650308728079021,-0.0131757779549164,0.00497239880188684
0.0062084583842861,-0.0164680915551561,-0.0150488330307705,0.00257759630446365
-0.0218922935075427,-0.002844838022856,-0.00509401547376096,0.000762513101540405
-0.0427558333573212,0.0329366224365949,0.00635841418772514,-0.000869670321148847
-0.0432434796566435,0.0611197899236983,0.0125291856929541,-0.00267049057038367
-0.0288860313830835,0.0699241569857787,0.0149816639200632,-0.00455966630652535
-0.0166638378680673,0.0644970648372494,0.0143245675534355,-0.00623021524665939
-0.0175908835126848,0.0462822605804869,0.00902709683473466,-0.00700761272352823
-0.0217375360955153,0.0241493186677513,0.00244707580778674,-0.00654281405760994
-0.016589930227502,0.00977112712750247,-0.00374805961752246,-0.00511424577815198
-0.00991350798837356,0.00925234732490306,-0.00980125310714899,-0.00332887345266572
-0.00612603065685694,0.0236529630610265,-0.00770856630322535,-0.00200173473777988
0.00717631347346435,0.045235191118311,0.00528800358872751,-0.00141348503462273
0.0304963533538702,0.057982286144139,0.0166354773177159,-0.000835380007937549
0.0456226447653145,0.0532527242561603,0.0156635746352001,0.00093489275072243
0.0413266402481525,0.039305871654143,0.00443101603721729,0.00375753487294216
0.0250277424171452,0.0325759061593979,-0.00478368633670789,0.00570013193778947
0.000945110602156372,0.0408248877828979,-0.00370005346483488,0.00552141448382641
-0.0263830547920504,0.0504242841067175,0.00218409420420835,0.00406588958767159
-0.0348802237849446,0.0521835384124321,0.00853099801269355,0.0026362907972177
-0.0157570453495604,0.0569295443891742,0.0179668403585395,0.00125857600433354
0.0111599302019592,0.0642677405072899,0.027097373031674,-0.00105457592641395
0.0317130119795107,0.0630357307633266,0.0291915726115444,-0.00454140350177529
0.0402883370706601,0.0529684994259539,0.0281621927424866,-0.00776083598575696
0.0342533959338987,0.0443525960108068,0.02584173298434,-0.00913171555571259
0.0276252963267476,0.046855837464818,0.017625954201972,-0.00836816701416263
0.0270077942907943,0.0538712249689262,0.00770217703574282,-0.00637316252212119
0.0223234379572625,0.0538125832842551,0.00190386749094404,-0.00438221303471072
0.00823220697724105,0.0433385319873371,-0.00115663853814327,-0.00273490154386484
-0.00895288372896131,0.0272959546350417,-0.00480134891563197,-0.000804540761834592
-0.0187943786243447,0.0150446156879193,-0.00805705493503955,0.00173963737312122
-0.0192466654834893,0.0071574227144902,-0.00853973799786583,0.00437063111650065
-0.0161029113359601,0.00160790554784832,-0.00853616659393629,0.00595419520304999
-0.0129977278752097,0.00152622517043515,-0.00975170288504968,0.00569280754949395
-0.0108549696015807,0.00477268308825991,-0.00903560268012224,0.00378701805496609
-0.00735365237146279,0.00791474526296795,-0.00380471986495701,0.000955861269977053
0.00492627159209866,0.0125265031355637,0.00197679020040485,-0.00186122191550682
0.0254458921541493,0.0170301616292824,0.00403195101908201,-0.00398490704222542
0.0345848316319183,0.0180633912490161,0.00822066601106338,-0.00516550372488119
0.0162232900629648,0.0134264251958761,0.0162529785084333,-0.00502539458401809
-0.00308108830769634,0.00378500436286876,0.0188547089199146,-0.00345084020527896
0.00486565741272921,-0.00549067797604797,0.0132849422485741,-0.00144686394407939
0.0184852053986562,-0.0125849863690693,0.00444215488584284,-0.000144825019734615
0.0184845310293503,-0.0137295654761024,-0.000263279757170271,0.000360678513578478
0.012853380026581,-0.00683469168785182,0.00188503011413106,0.000210457244393844
0.00539412251925329,-0.00253560354898234,0.00124777287012143,-0.000456022011498097
-0.00329108858535592,-0.00394999734106826,-0.00446558690325534,-0.000903069642835213
-0.0061579691324659,-0.00170680123109274,-0.00364622106437399,-0.000521777601394593
-0.000688161296474377,0.00479709310023409,0.00420010317341301,0.00043195171190346
0.00021830402044664,0.00630478344263529,0.00740917493568258,0.00141728577894519
-0.0187942588498325,-0.00202121633246014,0.00169730261661259,0.00228021807176537
-0.0425510333419664,-0.0128641218586343,-0.00334753096740097,0.00328005340941469
-0.045754299520092,-0.0139922608091505,0.00229632383687484,0.00450425535553615
-0.0409491969085222,-0.00743403076094735,0.0118547973766347,0.00506173661662215
-0.0418112842281668,-0.00416149491677148,0.0161396832066489,0.00382576265887035
-0.0373506601397458,-0.00533258667978508,0.0165868463165658,0.00133656834129381
-0.0232579140900733,-0.00465827795331018,0.0179003115384932,-0.000906841764171347
-0.00837526854348875,-0.00113152076255767,0.0224613382559269,-0.00224245541616854
-0.00609241991608718,-0.0040936505057355,0.0210083356860508,-0.0027990537622324
-0.0114526552553087,-0.0189674744364786,0.00699163343664547,-0.00275535760886752
-0.00145643972715569,-0.0303345286655412,-0.00377518258507365,-0.00206701277359709
0.0147552262555008,-0.0190453425118766,0.00429333277736677,-0.00117878170303743
0.0110107720226912,0.00331317995401247,0.0191079854482085,-0.0011497744664439
-0.000189066364260927,0.0128789672684805,0.0204827325770057,-0.00244992712615788
0.00061143340759392,0.00690598861581931,0.00631415472490085,-0.0040389807654422
0.00758797657605236,-0.00669346133000773,-0.012007988281565,-0.00438265254952453
0.0109538041961491,-0.015629840094543,-0.0210580602390407,-0.00294141412603523
0.00567263178957722,-0.0116621327854463,-0.0172791343383463,-0.000282741678051412
-0.00685280112787696,-0.0039218305503311,-0.0131103934948623,0.00259472347980578
-0.0135418316883179,-0.00403372101437547,-0.0183830769258834,0.0047138234770329
-0.00710691647925622,-0.0115518919640211,-0.0242284127478057,0.00544416520828066
0.00250499818737903,-0.017199540090273,-0.0191641265331158,0.00519870694443082
0.0110389515835125,-0.015551737222236,-0.00565116257482855,0.00446285816213191
0.0218001764867939,-0.0178038053270627,-0.000292430094668138,0.00291030753507505
0.0342471289544878,-0.037492208135913,-0.00918149131301575,0.000653985885431
0.0421036816318651,-0.0569807653983872,-0.0165012786032193,-0.00151697225912434
0.0339250762243524,-0.0531610091826658,-0.0159479776144571,-0.00318226810780554
0.00790577828967332,-0.0418579418673354,-0.0129053571105248,-0.00444835154539363
-0.0344438455994811,-0.0410981388587052,-0.00371286458518853,-0.00537290284170936
-0.0790871425777885,-0.0418382673284476,0.0133302978707629,-0.00568801345485877
-0.092592146795559,-0.0360011811971146,0.0299205706583203,-0.00485416642026291
-0.0702558983612281,-0.0359576893177151,0.0331136043791256,-0.00288952429419039
-0.04381495365457,-0.0578293503935632,0.0159843733711418,-0.000847612252120158
-0.0265969100191912,-0.0903677994216022,-0.0101761106992219,6.71915371532193e-05
0.00549683443580033,-0.104277333037509,-0.0294893729607956,-0.000390983085025538
0.0530432890145017,-0.0933625249287495,-0.0355561036391831,-0.00129972348481704
0.060364650721305,-0.0679865237457959,-0.0303775125289068,-0.00168956877616995
0.0142140139228394,-0.0248918229129505,-0.0169667814859676,-0.00143824459874954
-0.0250441777769982,0.0367910521351067,0.0060285446554801,-0.000971818627349893
-0.0312835192257192,0.100073837790003,0.0287621058581803,-0.000856362773598928
-0.0131780803828576,0.140171327837415,0.0323357703784406,-0.00139051702020748
0.0222724977983536,0.131991132965264,0.0180304322606349,-0.00204830271725386
0.0483238483999003,0.0676945230778458,0.00150367938407665,-0.00192899119215576
0.0416581034024087,-0.0165416682450411,-0.0103990558277359,-0.000661424214517198
0.0203086222356789,-0.0647993056617967,-0.0171518084401288,0.0012465247607591
0.0202967704521086,-0.0688780791627276,-0.018384419150584,0.00278317027466315
0.0397300364661461,-0.0629825501699242,-0.0157449475366369,0.00316853353998077
0.0446273521143196,-0.0609796219396768,-0.0106356916707213,0.00243321349513634
0.0234461797384438,-0.0606965536518592,-0.00645052643344381,0.00157970345782964
-0.00163349896184674,-0.0635536581295806,-0.010363598715902,0.0012455806640778
-0.014048804090375,-0.0628118258522046,-0.019367191823613,0.000890489312640383
-0.0178323567555696,-0.0527498292131783,-0.022098680787149,1.23366410854152e-05
-0.0193946890394309,-0.0360568446237905,-0.015237810092866,-0.00121716789685593
-0.0211777224001908,-0.021148031535488,-0.0057549716097464,-0.00240419748532495
-0.0247471903488705,-0.0119298716183683,-0.00160441761908384,-0.00316308519110359
-0.0286678583717012,-0.00546804134141143,-0.00305302214139203,-0.00322119589255821
-0.0280883271148718,0.000449962233372306,-0.00394334495457233,-0.00269410401002765
-0.0166787069363248,0.0100150015797298,0.00167096803577355,-0.00183686660691917
0.00674986158974297,0.0226273148119889,0.0111070602575064,-0.000639784399328999
0.0324777388278515,0.0304676224855161,0.0133984725087252,0.00118048256739798
0.0454457628084524,0.0329437278543167,0.00943077672414886,0.00382626668725575
0.0373079216761052,0.0376031286729457,0.00966865474759841,0.00635981862233728
0.023599877261242,0.0401834540560988,0.0122793827482642,0.00735785856367111
0.0240410885261936,0.0278386359413309,0.0112014592182473,0.00681677117572554
0.0305390972421692,0.00276348414631037,0.00828257097852561,0.00575273772863823
0.031633774710984,-0.0150566985406476,0.00970120488445141,0.00489440556758827
0.0297637358198552,-0.0116198802312663,0.0139334492370578,0.00409828849874552
0.0242532294578652,0.00510238257702447,0.0140759995990332,0.00268645850748394
0.00715017173682063,0.0212715087217925,0.0104420364378994,0.000298710842210889
-0.0196952870095487,0.0293222098637303,0.00647772842249167,-0.00253875752274205
-0.0365450923626007,0.0280119007117808,0.00343527194298252,-0.00444797341606915
-0.0293656012101475,0.02625465862335,0.00269805776910329,-0.00484284640111981
-0.00702428595701764,0.0299912995054955,0.00354793351230051,-0.00463613942452806
0.0149537959181535,0.0254253580748318,-0.000344621093567248,-0.00417139540022865
0.0297408095500029,0.00179672568001655,-0.00862079225027452,-0.00275886439255844
0.0356702212213714,-0.027730257202774,-0.010995360888818,-0.000303222062701922
0.0344133379637511,-0.0477706561447396,-0.00521081189233214,0.00253882312899625
0.0302698146371848,-0.0535729946668063,0.000516753187469505,0.00465537218713916
0.0261772216556647,-0.0453146456522612,0.000414244313989075,0.00533971621640324
0.0242662646308786,-0.0355180008469023,-0.00137577232056772,0.00534146513769149
0.0236401540362349,-0.0363148413077738,0.000967432132352646,0.00533955334014028
0.0211450754213101,-0.0405177630786934,0.00445088664588763,0.00469231505730165
0.0106738932712706,-0.0410846352745123,0.00248548340101166,0.00277609180226283
-0.00967289505927151,-0.0387124810818204,-0.00177421165272371,0.000425899593427222
-0.0313161266504225,-0.0261238851292078,0.00296165297123407,-0.000994174960576406
-0.0448334420549005,0.000207566452604932,0.0126540172283602,-0.00124137134935326
-0.038857272612683,0.0242120413502089,0.0140909961953074,-0.000644533991631263
-0.0180521569965847,0.0343993129033646,0.00973277705961171,0.000507592200796074
0.00117907304078412,0.0379976678656462,0.00842533743491282,0.0015730438862466
0.0221286759290005,0.0395660127393053,0.0117962271892137,0.00177541769376862
0.0340246704823264,0.0354006747977502,0.016099546014933,0.00062161566619186
0.0163623328564794,0.0319500363870316,0.0164140351219062,-0.00168221297676481
-0.00819477112536376,0.0350588642988631,0.0113250842253035,-0.00392646324045146
-0.0167926751229376,0.0317154269544652,0.00431362703311991,-0.00488625573599304
-0.0211057833465196,0.0159665121161471,0.000356401637721469,-0.00438222791548319
-0.0189912067484108,0.000725581814553553,0.00188302228954564,-0.0030465186340321
-0.00588759168944501,-0.00257647423378499,0.00988692652922635,-0.00175609650418949
-0.00627738833259752,0.00203650219506212,0.0190068780103143,-0.00102402978512091
-0.0245678042851912,0.000778372927468976,0.0151214726138467,-0.000885483111383525
-0.0387452851183342,-0.00868012782928473,-0.0028722344989947,-0.000910554023863747
-0.0189569147629923,-0.0123420837692902,-0.015130788584106,-0.000558803741604164
0.023521836769623,-0.000312246376715373,-0.00786715778837317,5.18026318571648e-05
0.0166563471112685,0.0186220584103125,0.00959265825161645,0.000629448487381352
-0.035722766808561,0.0270151763175726,0.0175479210529262,0.00119470292705891
-0.0653480017002837,0.0269577473796367,0.0112831971953939,0.00163678837250847
-0.0658225768134023,0.0299993325979058,0.00206784468583097,0.00173874625540053
-0.0534299774030088,0.0320320160510875,-0.00121932804130198,0.00167166861785724
-0.0256085834197844,0.0315586691737349,0.000875050473244153,0.00151879539728608
-0.00118149197718628,0.0375622769350725,0.00427536158905598,0.000715154667139605
-0.000433658196843024,0.051058629782187,0.00521850035410889,-0.00120163283523036
-0.01125430864902,0.0559843582657827,4.54390498574217e-05,-0.00369179664833666
-0.0177629909670642,0.0413932404288471,-0.00791314150358822,-0.0056571043985697
-0.0141357544566699,0.0179724541880273,-0.0116117062780344,-0.00634954397575427
0.00119182409836482,0.00174784469603008,-0.00710462663347917,-0.0057579206009405
0.01301414271522,-0.0014674416024664,0.00249505564032359,-0.00450670116834092
0.0169532094396872,0.000904030279319821,0.00533342238819543,-0.00301363482232201
0.0395403070478919,0.00122186141244957,-0.00235354460899041,-0.00126994270874723
0.0661932325550344,0.00349377946902183,-0.0107778384322915,0.000637593718312565
0.0503558499839397,0.0104253742709219,-0.012165376718333,0.00274665843769167
0.00702539786796839,0.0189935074541577,-0.00554372231011353,0.00527742220604866
-0.0184088154431818,0.0219897050278544,0.00249464500713704,0.00774832008024403
-0.0137364730304106,0.0144411228205231,0.00617707646621889,0.00899774818859118
0.00724742016104068,0.00854588839064555,0.00772529361664526,0.0082630652592518
0.0216095417950211,0.0128517908450041,0.00841266315018019,0.00553767817969066
0.0184197228597521,0.0198082087933044,0.00770360771811053,0.00143751786886597
0.0048863947765365,0.0237452260659186,0.0100165084811849,-0.00240910495712418
-0.00897835168121369,0.0243764328682141,0.0157084153706226,-0.00443701670376306
-0.0155410421449819,0.0259868092159713,0.0160483981209603,-0.00461527654866626
-0.0109970687588375,0.0306825185537134,0.0102360656597179,-0.00337878447960168
-0.00564273220462997,0.0364346765933645,0.00128880149431159,-0.00137245760268585
-0.00749993412277517,0.0435472901077363,-0.0118627301013262,0.000286912141178583
-0.00644843010140072,0.0456520071603425,-0.0211860733717147,0.00104742643216513
0.00331068479593654,0.0364606320014393,-0.0190877449715281,0.00129151568081191
0.0185638973322746,0.0181857555948273,-0.0126216894969381,0.00160580143356122
0.0332511827878881,-0.00472348253430632,-0.0117900938476254,0.00176411097597443
0.037679890135843,-0.0248177364240901,-0.0153460364087987,0.00128776985727022
0.0304729711161692,-0.0338855342526542,-0.0128491280685901,0.000147495104762091
0.0255105752991433,-0.0304163785604218,-0.00371548233121451,-0.0013034277547016
0.0340599907367332,-0.0207940998740988,0.00166528796013782,-0.00209793041848718
0.0438433070697198,-0.0175073971089879,0.00136619293902153,-0.00133359761781613
0.0460843744531757,-0.0226198895532113,-0.000558026301096142,0.000886414873807941
0.0489449843713541,-0.0185840010317214,-0.000636283650924067,0.00372288178019326
0.0484450408237068,-0.00105449152695692,0.0078145790726864,0.0063012398434798
0.0397009302107579,0.0133987446169464,0.0211763015857482,0.00795013605271825
0.031081310849852,0.0126691395983545,0.0239120084978716,0.00815183611463013
0.0217960496812795,-0.00121785514166483,0.0143491100755719,0.00655689689676264
0.0028789147141073,-0.0138006517394431,0.00499393783620918,0.00344608935492499
-0.0129948176251895,-0.0142035507558892,0.00048691019118486,-0.000141794783276855
-0.0113353485851303,-0.00353068656129136,-0.000828798679892939,-0.00295462525427321
-0.0111984882808489,0.0155150831978613,0.00284344368271878,-0.00393489216927147
-0.0194283338357682,0.0358878337742227,0.00983436431279076,-0.00342778454691232
-0.0142603101666214,0.043960113690623,0.0128757489111144,-0.00312676339147396
-8.16875149721868e-05,0.0363183563538383,0.00728125604410733,-0.00349994428424595
-1.26783268185326e-05,0.0203663232896583,-0.0042616660150289,-0.0033032971588444
-0.0145938564089605,0.00241271262825915,-0.0140952817082286,-0.0017429370671256
-0.0257341824502337,-0.013409511356457,-0.0201892610464319,0.000170209968636355
-0.0205743903555823,-0.0243875480070141,-0.0196058718887114,0.000654913841621447
-0.00372065890912603,-0.0309984398999924,-0.00811457204471078,-0.000742990816555127
0.00932065100581227,-0.0369308606583788,0.0047984606601469,-0.00226814945592556
0.0105048054619197,-0.0396659707966012,0.00978560430271766,-0.00173037918464589
0.00781266579517477,-0.0318892922027921,0.00862189875321463,0.000689281961025317
0.0128499306115462,-0.0164203591203458,0.00422240943968341,0.00291145897843419
0.0185358189425141,-0.00198014246172389,0.00124982420208158,0.00371545776924614
0.013131035371009,0.00655831507684158,0.00613672840177764,0.00324242970478131
0.00916717551303823,0.00711129207924806,0.0123843087918366,0.00185700368980781
0.0204793499987577,-0.00134348283495041,0.00709009629870654,0.000240783331640787
0.0320579422562359,-0.0211903365899483,-0.00706147018411691,-0.00059041993039598
0.0250659569751718,-0.0460945954948956,-0.0179364244621836,-0.000433246107197756
0.00721803556013754,-0.0575946874355316,-0.0229116165104187,-0.000102079692992935
-0.00913869548244203,-0.0491654466438688,-0.0206361180513143,-0.000578942908029753
-0.0181088132797976,-0.0332613100875391,-0.0100395625759916,-0.00235162335847721
-0.0153797122661702,-0.0224487975834201,-0.000832837519954829,-0.00479340664980903
-0.0106938859666203,-0.0177062180406021,0.00317660903138505,-0.00645980420611678
-0.0166324395717837,-0.0100739016655544,0.00501449658547551,-0.00665950964995692
-0.0309315647757236,0.00396198204407039,-5.72205169690125e-05,-0.00604828115272759
-0.0444898564444326,0.0159408753891199,-0.0109691499540248,-0.0054179932513723
-0.0481837559352742,0.0233031376784702,-0.0146795071369671,-0.00448052243163986
-0.0374227539742571,0.0267381468492683,-0.0073402181435289,-0.00254116946682871
-0.0184381118039227,0.0172327915622722,0.0024781021276848,8.3495610540568e-05
-0.00238348262443612,-0.00582360804283175,0.00522704984315296,0.00256687516399915
-0.00129590301265147,-0.0273823739664584,0.00310265652558567,0.00446554974860859
-0.0181398773022792,-0.031803881878689,0.00755308739343249,0.00559987484542833
-0.035112217414504,-0.0187315193751046,0.0160638808406834,0.00587049303214609
-0.0344743843603201,-0.00610297578726757,0.0186632762599316,0.00508787679979704
-0.0134625614102888,-0.00443735305000361,0.0147753585784724,0.00341726330577039
0.0205448177340417,-0.00617468879854154,0.00766052254907806,0.00142420235257765
0.0443292579981621,-0.00437394586970852,-0.000149085128575893,-0.000562050507654972
0.0472673861571317,0.00123267799889348,-0.00622602105983921,-0.00243064965313121
0.0411812368514592,0.00582291176035055,-0.00846999110116238,-0.00407479373225744
0.0293555869732935,0.00270485063029342,-0.00940416721240933,-0.00505984711489722
0.0152744756548807,-0.00202109845672157,-0.0101127660118151,-0.00478958212336371
0.00484500044587964,0.00308173701958737,-0.00668955247158197,-0.00332560544154788
-0.00266680229438127,0.0143772601734769,-0.000574045062210914,-0.00150117629514117
-0.00614243665612902,0.0212557781314279,0.0024329421208032,-0.000406446579154602
-0.00691945323098911,0.018535142034771,-0.00136442542866866,-0.000566175183206662
-0.011446721801279,0.00805157673979362,-0.00949381825226813,-0.00144349799627928
-0.0216247497698726,-0.00182605712195144,-0.0127938570644194,-0.00208012888761012
-0.0288052295128655,-0.00478278144079637,-0.00565767023842416,-0.00192642699735306
-0.0291153270487614,-0.002741269591023,0.00502845849364607,-0.00102310665173122
-0.031043655569922,-0.000247747715183107,0.0078915753160493,0.000310445784595018
-0.0363752339968117,0.00439995105016257,0.00234574249536926,0.00181388806555706
-0.0387073337698301,0.0128957821496956,-0.00298494277598065,0.0030781002687982
-0.0378105121509892,0.0216387200225798,-0.0038983337181096,0.00343942348931329
-0.0385553663500814,0.0299963689269252,-1.45100056690162e-05,0.00246576707881529
-0.0333147822969664,0.0385985112628756,0.00990522621344203,0.000184427833900611
-0.00936418624308964,0.0406492399159335,0.0189179043507787,-0.00250061069780366
0.0197067385564248,0.0290211742291899,0.0175806265959664,-0.00384083508490788
0.0299698750081511,0.0119326693874637,0.0104111406915577,-0.00311097590771883
0.0187494021151245,0.00108244347535854,0.00387992201858223,-0.00135969290346848
0.00277997318904718,-0.0054159801740448,-0.0027603038034764,0.000415890927629327
0.00111226670094475,-0.012305672607459,-0.0103680091677115,0.00232710595242437
0.0120916912532319,-0.0156757764594653,-0.0176449387458885,0.00424869894381104
0.0221218381079747,-0.0126457421772758,-0.0224294850227068,0.00510258910692742
0.0259077600172255,-0.00807890008439206,-0.0206689650677507,0.00436278999679681
0.0135297883621955,-0.0108820659914984,-0.0119773762304171,0.00258306295619672
-0.0312758463740012,-0.0316487255258703,-0.00634420442758788,0.000571954606809841
-0.0828742018855487,-0.0646035860201114,-0.00952293673655412,-0.000925013387772369
-0.0932857401200909,-0.0862183149228871,-0.0146805803404997,-0.00168136064625661
-0.0727492806952299,-0.0883053493410373,-0.0161375684387401,-0.00210285409534314
-0.059501949019871,-0.081103117796293,-0.0163213972927426,-0.00263113636263225
-0.0523247198615762,-0.070820654312702,-0.0165233664596521,-0.00337364648555633
-0.0257932419046039,-0.0608416963546465,-0.0138885152254705,-0.00416031037592048
0.0206799827859087,-0.0599931202652592,-0.0101765232633786,-0.00465184805022001
0.0521766053877345,-0.0675164025396914,-0.0129332477536489,-0.00395759343502794
0.0542424318046461,-0.0693111330151046,-0.0216643413568767,-0.00128900196950474
0.0586042147165987,-0.058089301013368,-0.0248272597145903,0.00259650870494264
0.0751329562592808,-0.0389903084834772,-0.019956146655536,0.00575420351805353
0.0756632202227263,-0.023352238449995,-0.0142985310426678,0.00673516196526419
0.0488527804322778,-0.0146085488885402,-0.00775218373959782,0.0054720049239392
0.0135546759877302,0.00248515964722817,-0.000176143127593335,0.00295458128647607
-0.00951301785681606,0.0373151320625276,0.00349975783604163,0.000470865121543707
-0.0169039355274318,0.0710720186421296,0.000493039994245674,-0.00133529170491177
-0.0198555816676543,0.0824270237597379,-0.0052195153692055,-0.00250707096458375
-0.0342475962329851,0.0635203060071726,-0.00718468976886202,-0.00309784102440243
-0.0555667892209805,0.0207171716583584,-0.00439414845138127,-0.00322380125684555
-0.0654767906870763,-0.0197843744286561,-8.88992749509829e-05,-0.00281966401365004
-0.0612437101249358,-0.0387391432543045,0.00212888466349299,-0.00165682406867444
-0.0449676867109251,-0.0485625916323658,0.00167636202236798,0.000100123689274791
-0.0217693747756663,-0.061330426590204,-0.00169546737315034,0.00179544925943576
0.00329786711839587,-0.067713969182519,-0.00714066881139262,0.00262128640579056
0.0347035566721427,-0.0578824353864867,-0.00950266207436934,0.00257390628181507
0.0595277592088729,-0.0319095687122035,-0.000178407323507273,0.00186511572712054
0.0612830619667759,-0.00830553802030488,0.0124644493893036,0.000149891264211066
0.0533799997391061,-0.00379761653622925,0.00562090833753448,-0.0018310016946288
0.0472437522020485,-0.00716748359647287,-0.00835469239681567,-0.00206225139020377
0.0387460320796178,-0.00455088482020662,-0.00250357518946182,0.000216867208652872
0.0353750954897973,0.000631494457531953,0.0105705884216814,0.00334763105020333
0.0409409076315083,0.0048189286144977,0.0112445917006775,0.00487701433829529
0.0384393724055898,0.00515028361271718,0.00402128208073302,0.00389826648437903
0.0153237592364735,-0.00555073884187643,-0.00347046808123074,0.00156814612522876
-0.0106643582972509,-0.013032485241025,-0.00706364129153684,-0.000194154948912237
-0.0163698564719696,0.00352609371360283,-0.00438122878253897,-0.00069477911349748
-0.0104429487371548,0.0329285029840785,0.000355454864428117,-0.000838370605018369
-0.00619746441528219,0.0577815412277545,0.00224954510839313,-0.000984579903732868
0.000854034099375845,0.0775149519950638,0.00255430280014111,-0.00077293726064092
0.0118988189289522,0.0895603871333508,0.00314103242008385,-0.00071069843459963
0.0163366560429504,0.0850032586084036,0.00179884553540728,-0.00141756224332004
0.014487598381107,0.0654771439875134,-0.00147963951805916,-0.00228883847200174
0.019215711464031,0.0456118433854719,-0.00137241652802169,-0.00278810181700946
0.0278113284154049,0.0350650222508074,0.00616678544245739,-0.00348299878698151
0.0320160766945616,0.0316193717718078,0.0145889996179027,-0.00477330731924104
0.0291604881360223,0.0288151985422339,0.0158168416007003,-0.00600094194002575
0.0183201773184281,0.0216878240239429,0.0108363722956323,-0.00564878318359257
0.00538802192666901,0.0112179531445375,0.00160455885125986,-0.0025422921571812
-0.00332049061114168,0.00977565808993215,-0.00697224937378304,0.0027391196082906
-0.00183212483559775,0.0226765004993009,-0.00387654848610921,0.00793247365306136
0.0112793723064858,0.0325979401375034,0.0114647950958268,0.0104510167321258
0.0217385555615635,0.0255520094873832,0.0215308924747997,0.00936574053163654
0.0175311512445828,0.0115061667471676,0.0179686751901656,0.00625292276699932
0.00715095409578304,0.0104262486328219,0.0140753255173409,0.00337143181429021
0.00354329112268849,0.0274392138229643,0.0136592979753355,0.00137800671063669
0.00497447310857394,0.0429897642941198,0.0070703991929703,-0.000499874427775342
0.000121574151986437,0.0363612130612183,-0.00373221826793553,-0.0023797504723601
-0.00929994996501541,0.0149761188298159,-0.0104267797962465,-0.00365211462182181
-0.013203043540712,0.000711959303595133,-0.00733517820413838,-0.00423711084565659
-0.0151078678543316,0.00187767517154108,0.00351725090902716,-0.00395251341935126
-0.014208171197433,0.0105937350664408,0.0121936458554391,-0.0028250887083669
-0.00844727426767758,0.0153083945531253,0.014852239578718,-0.00204776291921347
-0.00683143470042925,0.018265293551464,0.0118573229308571,-0.00242056924291718
-0.0101251008356632,0.0240045975247247,0.00489541449360065,-0.00309624730129948
-0.0146451920295873,0.0199399386901105,-0.00589976865741147,-0.00258089258916604
-0.0178109378216821,0.00586349513497111,-0.0188756998720275,-0.000380897863479572
-0.0173090164131582,0.00137860984784377,-0.0239518705306602,0.00255133928618229
-0.0142428131021444,0.00866466857373892,-0.0157407230125439,0.00465387315505273
-0.014146854314645,0.0146378378031987,0.000601941742431559,0.00478542548898656
-0.0165950260905984,0.0170428714225754,0.0156322481262543,0.00336552856691202
-0.0155064622669153,0.0208370691455734,0.0219341080063383,0.00170623299287117
-0.0118298236030906,0.0262324193273367,0.0218837712966573,0.000420588703506943
-0.00421528729036175,0.0306967675112162,0.0234168334266477,-0.00055956434764061
0.00524972263376653,0.0315047914023193,0.0258074246931284,-0.00154225769322506
0.00210397892812242,0.0273656984786471,0.0205548099333263,-0.00228052625540185
-0.0177545243371538,0.0245406394284292,0.00839463794221005,-0.00187411571734256
-0.0349762553679231,0.0273511824624131,-0.00321720529329223,-0.000154029816863722
-0.032770384931403,0.0279750317178705,-0.0105798165694384,0.00175294176755555
-0.0179041788122446,0.0207001440803569,-0.0122314105382617,0.00268208184374131
-0.000516526505885476,0.0103520806476559,-0.0133619454755082,0.00262342856040312
0.0135274275304043,0.00130051880850291,-0.0152562546137374,0.00226892109781527
0.0174464275543991,-0.00620257423231269,-0.0112529489641065,0.00195174763781305
0.0141261569832199,-0.00867828062118353,0.000813957680214521,0.00133804990693591
0.00591930088568145,-0.0100505083210065,0.014716257633673,0.000271929353297576
-0.00422020249053312,-0.019992693255895,0.0186640916390293,-0.000618161681190956
-0.00753757583092544,-0.0352457152127182,0.0109785805155958,-0.000668644052943535
0.00206767173967157,-0.0485643430113048,0.00192986540203005,-3.40164631832388e-05
0.0180675031577744,-0.0589139626827226,-0.00146490831059974,0.000556489992076936
0.0191398384773676,-0.06354108340189,-0.00208988123860435,0.000615950502382961
0.00221275865699738,-0.0608761814544248,-0.00497019117349517,0.00033448832608025
-0.0143458068406097,-0.0545346954168514,-0.00731342854157257,0.000260889962594236
-0.031303129072311,-0.0445197611723197,-0.00454155913662361,0.000586670164491748
-0.0556698136038678,-0.0264181334002002,0.000797273765975758,0.000830405734148593
-0.0668450820139682,0.000133473852212643,0.00209652392693266,0.000554501098026796
-0.0607440521818249,0.0249365524591528,-0.00283490982343303,0.000160555629850085
-0.0579199964090582,0.0386164697793675,-0.008567198413984,0.000317834515173289
-0.0550134606747207,0.0472550617649161,-0.0108970205358596,0.000960574965669338
-0.0189449280291175,0.057004675504523,-0.0132357891441957,0.001484556455049
0.0511185592533313,0.0577357013014239,-0.014783627619454,0.00157614001468271
0.084871604616664,0.0402066924220096,-0.0099289896910714,0.00123404533009386
0.0619920668839076,0.010328268196687,-0.00306972418750124,0.000508043226272067
0.0399796366887535,-0.0196616649742525,-0.000688084662428921,-0.000277042744271068
0.0339968968432827,-0.0379815880070402,0.000513712583707448,-0.000696552606668892
0.0288957916843788,-0.043662489636316,0.0014888610881355,-0.00069330533822009
0.0271409552563364,-0.0449966998389048,-0.0022250850050082,-0.000412167709346355
0.0252015146228666,-0.0437994639658728,-0.00690909085799172,-5.95568241111024e-06
0.0130955947326249,-0.0388660604661313,-0.00873153882412141,0.00026739964430698
-0.00114894117883337,-0.0309356755793116,-0.0101366265722429,0.000281668245380271
-0.00605456828863065,-0.0192355653880601,-0.00953613625638678,0.00020159524140936
-0.00818792273302017,-0.00783382945703864,-0.00391358663133683,0.000150602523407626
-0.0143079331638883,-0.00650487073985122,0.00410870792367482,2.19943463008725e-05
-0.0224828627110352,-0.0120846411887724,0.00869729000335598,-0.00068040733096621
-0.0314073044205303,-0.0154225934753632,0.00367236714502708,-0.00208865053960279
-0.0382154617261576,-0.0168280568846895,-0.00818186239246051,-0.00293259822684195
-0.0421464712173468,-0.0128644782326979,-0.0130060945749449,-0.00228613719982436
-0.043401635364899,-0.000467590032494818,-0.00882630289413282,-0.00101047746838522
-0.0369782681959692,0.0150709800349085,-0.00289289869574723,-0.000621272728720002
-0.0244736467003255,0.0256431361872711,0.00324980912195435,-0.00209942725059823
-0.0105543865763511,0.0274435319661343,0.00624382204306293,-0.00456548233015334
0.00199988801730623,0.0311067559095938,0.00606040558773268,-0.00553134112467618
0.000764211675433044,0.0432364865240323,0.00895223415314949,-0.00362750721410815
-0.0161453738550243,0.0513466737825736,0.0115543670080542,9.73169610096504e-05
-0.0178658939609838,0.0507804049002026,0.00769540642758593,0.00374366646472986
0.0171038398159704,0.0493935245953851,0.00264382325773225,0.00578512813926019
0.0571075551449544,0.0476144042545184,0.00202642295030626,0.00522045381265423
0.0646428719507639,0.0396959171862905,0.00152296617128969,0.00252839401853908
0.0460813231992175,0.0253350599807022,-0.00285732627361419,-0.000375814642716331
0.0237407802542777,0.0173577496334941,-0.00249234978930138,-0.00204217816157706
0.00732505420852572,0.0210614394743657,0.00667099547118943,-0.0025151205826138
-0.00493778506264217,0.0225096178420498,0.0138258793877749,-0.00280064279335764
-0.01414863311312,0.0157364269971858,0.0120681481637835,-0.00377621269450872
-0.0203524844281911,0.00800873097181386,0.00687047404437232,-0.00519263421778758
-0.0219996535258011,-0.000597586247261465,0.00376136659484419,-0.00618430923173294
-0.0181667263217309,-0.0116557120644553,0.000911303393287391,-0.00620327839502144
-0.0201173714188242,-0.016385409335287,-0.000269330122450209,-0.00532074353175942
-0.0276132544394616,-0.00828495352513572,0.00191445664663277,-0.00389721581879695
-0.0309458522092038,0.00409574059591153,0.000247847268749063,-0.00181418265782464
-0.0337781250754649,0.00737678526004621,-0.00736120252774782,0.000591312969380725
-0.0356592643739038,0.00414454073304061,-0.0132269125305524,0.00239968036436708
-0.0305240626227078,0.00373484100513856,-0.0143306107345239,0.00325602703731314
-0.00334802513735929,0.00413918970098733,-0.0126619655209867,0.00298326538613963
0.0424392997404754,0.00197205690342252,-0.00734336616686138,0.00153371068945599
0.0565099750594275,0.00372845783932917,0.00403431282752666,-0.000330373740406059
0.0313119293905435,0.0109521901130593,0.0178983003425368,-0.00150050220716204
0.013978369436846,0.0133476088002301,0.0244588543410183,-0.00144120495223262
0.0169539108822379,0.00654478767437408,0.0181979782014691,-0.000366865939192758
0.028700745343698,-0.00641239662029442,0.00351297282906039,0.00111510822233406
0.0372090598878135,-0.0234551554303234,-0.00981276352358462,0.00252987391414416
0.0293452010207504,-0.0400095354409269,-0.0153537894539341,0.0037222469702923
0.00999940395951131,-0.048862230952668,-0.0172905957071234,0.00431602448351679
-0.00973871329104758,-0.0472436907007742,-0.0195913168501533,0.00355041737228632
-0.0233026915040618,-0.0366651824457874,-0.0157546958272564,0.0016552999128204
-0.0303467850118285,-0.0252997204041577,-0.00504072005039802,-0.000118518985134016
-0.0446256818833682,-0.019200099200073,0.0036183088055648,-0.00161975176328248
-0.061543557618939,-0.00750444175804364,0.00360019671478559,-0.00348642979898124
-0.0556440585318875,0.01475338829313,-0.00402671053037891,-0.0053689310483875
-0.0269466284901822,0.0335488257229736,-0.0101300230639994,-0.006525614769492
0.00277318122091504,0.0357475431998583,-0.00781662473318404,-0.00617009293165026
0.0142220334555052,0.0245765860413688,-0.00252355330001394,-0.00373044150805752
0.00687373345640401,0.0113019483190233,-0.00547458132710291,-0.000318066163173768
0.00304568530306721,0.000257952983450174,-0.0115635708355522,0.0021755189347467
0.00938738934788946,-0.00531115966057266,-0.00562470393667596,0.00286618184515388
0.0102584623025048,-0.00886172452077285,0.00520417808578024,0.00217860683113461
0.016899907879865,-0.0212252907110401,0.00473634029777349,0.00125940869671001
0.0372660669837903,-0.0387099076343002,-0.00366948111604189,0.00111584843410428
0.0508183123454276,-0.0480800694092472,-0.00888158799472324,0.00237076712783616
0.0625270803869045,-0.0439196359937059,-0.00902585964311683,0.00471558234235024
0.0663442358689187,-0.0288568201993363,-0.00653194863477292,0.00645788725559463
0.0388049050353966,-0.0124386263727811,-0.00487598275036701,0.00633511793955083
0.000548693690805305,-0.00246232844865822,-0.00791619988518181,0.00485996251026676
-0.018182026301133,0.00529503234163465,-0.00927554263356069,0.00301252534343073
-0.015666888384139,0.0154357505382864,-0.00462115037152199,0.00125792525967456
-0.00825230528277038,0.019909545821444,-0.00273139882860318,-0.000362921638235786
-0.00750888874039168,0.00676435012736525,-0.00698732178482833,-0.0019278305569161
-0.0127744185943912,-0.0178092619757552,-0.00873115035889556,-0.00312319294288866
-0.0235411028720291,-0.0304677235154609,-0.00355157592186593,-0.00310302605834717
-0.0353637046627476,-0.0267868733196274,-0.00138689741961126,-0.00180794185866661
-0.0396532296025552,-0.025199229159285,-0.00848517812644982,-0.000522805842103192
-0.0312185776221945,-0.0336916366107137,-0.0154174251793943,-0.000208518888016856
-0.00849183923409603,-0.0455389885194644,-0.0163146383152848,-0.00061491727089449
0.0236981349357872,-0.0498443737814769,-0.0158631950851346,-0.00113984560321954
0.0561146456973244,-0.0424537131728292,-0.015923109870529,-0.00137902069868703
0.0747529905817733,-0.0360644099618126,-0.0141920109091039,-0.00122774571604557
0.0674816972714627,-0.0377754313223211,-0.00860638245657407,-0.000746900208120841
0.0510352942498975,-0.0339650661687656,-0.00154040347823919,0.000216710371561832
0.0440921437647122,-0.0155451809098806,0.00280641880766025,0.00157217111592437
0.0399853154876123,0.00569297308195001,0.00502295592614517,0.00272042892827297
0.0322256635042027,0.0203804287630821,0.00658346530893672,0.00336863982279115
0.0206626844627179,0.0318356660419901,0.0069712502010054,0.00394211268481513
0.00874112572334172,0.0392431323550588,0.00478100721923456,0.00451926719554034
-0.000380195294655987,0.0412452316253122,0.000868955291519678,0.00448062423651399
-0.00136676563018916,0.0253358668600974,-0.00454089801522825,0.00360569766300496
0.00808775900419165,-0.0180335990169136,-0.0108014018890855,0.00240317458588843
0.0129412172596745,-0.0557986673394122,-0.0100122533498716,0.00149094413717067
0.0018391263945258,-0.0562905005373322,0.00144468677574437,0.000851646171779832
-0.00659189722093392,-0.0365179411307027,0.0089148709694607,2.27124351245933e-05
0.00880094801764715,-0.0272150354196727,0.0011045765139205,-0.000967082177816724
0.0310679073277135,-0.0333890319201015,-0.0113011343622371,-0.00177545142701434
0.0341392679168087,-0.042098491537636,-0.0159432949592802,-0.00219280002681184
0.0257124376572317,-0.0410941836112308,-0.0111592161244985,-0.00202146562803066
0.0222635897754684,-0.0272288098672583,-0.0029922197272704,-0.00141479663511432
0.0172528005305707,-0.0125855917699203,0.00244634836735037,-0.000751882833672073
0.00414920743663966,-0.00398127629152323,0.00364013090256543,-4.74640040307524e-05
-0.00919048260442781,0.00848302166853758,0.00239628989552375,0.000895755729407606
-0.0165487042436693,0.0221235273730605,0.00273507271847333,0.0021120641798415
-0.0134235637944123,0.0248416351369581,0.0052709803780417,0.00310648667843158
-0.00128224300823448,0.020831227996445,0.00688565649697747,0.00300174044255177
0.00826894097673524,0.0198870187438769,0.00635031698574674,0.00157082113379356
0.0110629014481132,0.0235330159297727,0.00359363778425005,-0.000309389538740691
0.0128283254898291,0.0294741137319213,0.00069688408079269,-0.0015034664277966
0.0141562919893749,0.0329801566667836,0.00143814805965072,-0.00166187164506169
0.0128371835207056,0.0303779646441691,0.00219552440446365,-0.00122339497204997
0.0137466328938918,0.0215360764181925,-0.000410829877194026,-0.000618363283262787
0.014619159044888,0.01119469546768,-0.0012365560477015,1.70254619941872e-06
0.005365491360482,0.00702603506880374,0.00201728177936329,0.000523658220907435
-0.00707897086826216,0.0043780948410382,0.00432255176640263,0.000902631171028747
-0.0125869067927977,-0.0059899535924413,0.000600158554888433,0.000938171165068623
-0.0160392658332621,-0.0139412849392441,-0.0066944570434961,0.000457289317100027
-0.0158148618065229,-0.00611978756414496,-0.00839312526955202,-0.000408750853495945
-0.00379192823042098,0.00830482088345266,-0.00366534325135216,-0.0015494988961769
0.0110602451169328,0.0122330015751166,-0.00174084872416506,-0.00234817541662673
0.0151132616150017,0.00722039738019218,-0.0014382952695873,-0.00204782335815862
0.016627542184045,0.00746327705470901,0.00609326520102399,-0.000930162076094073
0.0222716279464029,0.0115429169339573,0.015005075462006,0.000153179151675902
0.0184349750607891,0.00895307255358198,0.016386393979556,0.000814450422839086
0.00610796721681636,0.00291045341676854,0.0133881272088156,0.00124977155974869
0.00178019168972181,0.00625509534506002,0.0107504953440262,0.00140715505291748
0.00590796763749693,0.0185653306931025,0.00939004022188011,0.000910766245228955
0.00516182332986429,0.0263835027454715,0.00765597074817743,-0.000268777088231302
-0.00652778443994783,0.0270087414660003,0.00648908831359419,-0.0019358516821167
-0.0214731940519191,0.0291113083833106,0.0102782958783075,-0.00365164450858337
-0.0337491177760674,0.0403999478144002,0.0177716256683211,-0.00476590164422136
-0.0439322553188298,0.0544060419897466,0.0186179002188927,-0.0049546064072221
-0.0527232280282514,0.0553718056183317,0.0066770205289375,-0.00424853434033129
-0.0598088396924665,0.040867506206088,-0.00984671720515865,-0.00272144149612436
-0.0583694099001242,0.0216666489281245,-0.0215273021719915,-0.000628937065132735
-0.0416626532237046,0.0075280288757666,-0.0253011091956114,0.00133617621402963
-0.0160876358602598,0.00204232990484612,-0.0201809184113507,0.00239050916538169
0.00723201819929545,0.00160447424013418,-0.00915171813907111,0.00197129345744258
0.0232293054433408,-0.0027964075547867,0.00121112686588022,0.000143092671716027
0.0167410702576545,-0.0105374425283079,0.00552390992501784,-0.00190543246090115
-0.0231181050281592,-0.0145319464575724,0.00241175610011978,-0.0026212084963429
-0.0648867721618522,-0.0156382227982817,-0.00196112938345299,-0.00172939744313006
-0.0724981896707557,-0.0123009194973922,0.000222823818442484,-0.000332137196449522
-0.0514575912138987,-0.00316123389325037,0.00529237889616893,0.000415343658255441
-0.0236938144021265,0.00389793883437475,0.00554589594854202,0.000272533710013912
0.00485614253591035,-0.00508688242618673,-0.00113823186037148,6.66359012771329e-05
0.0375549487200087,-0.0320923715180951,-0.0109673017354305,3.74703828344052e-05
0.0579184905789211,-0.0513654945142712,-0.0109450327611988,-0.000939089141793745
0.0366425736016297,-0.042819538150195,0.00486090248633562,-0.00290470448990438
-0.0110640526250343,-0.0261246721129863,0.0210102049805088,-0.00394800581504204
-0.0400737178519977,-0.0235485573990025,0.0224578365631161,-0.00255170510551423
-0.0458024382296704,-0.0216457212662612,0.0114362167702645,0.000734962750559901
-0.0503086148921878,-0.00724856964788266,-0.00306063643709937,0.0038271957899876
-0.0564298880207288,0.0104151427900007,-0.0127914484387136,0.00505827504846866
-0.047569438625338,0.0259097360229005,-0.0132908226710913,0.00406554485996563
-0.0209643998098571,0.0395605572793479,-0.00936765361663335,0.00136231002073385
0.00528366964505874,0.0466663882828068,-0.00489369039611506,-0.00181424350416209
0.00841766947527651,0.0421450468274401,0.00213320492847609,-0.0040043710633758
-0.0138644493538802,0.0243137142452151,0.00763259811678319,-0.00430445029084188
-0.0296713588344084,2.75236484307377e-05,0.00674977849727407,-0.00294741462389744
-0.023332864053546,-0.021358736460208,0.0010349178404721,-0.00106454482998093
-0.0138889825559054,-0.0350013908071601,-0.00328713699463756,0.000405216587378561
-0.0127737920309974,-0.0342072327610344,-0.000927300849985132,0.00117177007115466
-0.00820483517975098,-0.0228763918177918,0.00018627550453805,0.0012444139527336
0.00470029828242398,-0.0151638390056568,-0.00273329933316051,0.000879318053974857
0.0120102712925555,-0.0139447632202881,0.00084407765453287,0.000495789749106718
0.00895295307269253,-0.0197166179788812,0.00715470978972973,0.00023755950784695
0.00629908439896426,-0.0346511775902651,0.00429473950222222,0.00010652439019007
0.0119438433943011,-0.0519516243745684,-0.00615712909362588,0.000220657074131778
0.0219799480237441,-0.0605127306888122,-0.0135085535019013,0.000370123448439115
0.0243983132028659,-0.0523534268838843,-0.0123117917747028,-4.99005731245323e-05
0.0106704646274988,-0.0363015574468672,-0.00720397571739323,-0.000998676493986997
-0.00824253056199414,-0.0281931481526563,-0.00606555205591877,-0.00163087926394661
-0.0205190477741646,-0.0227995471806158,-0.00921903063867017,-0.00141863349296457
-0.0319116898020061,-0.00695379478472227,-0.00820191715118763,-0.000226920590500307
-0.0399484579155079,0.0127031062175913,-0.00497679678013824,0.0020049272997189
-0.0324741189433031,0.0221283309243325,-0.0080876612263262,0.00423508215265528
-0.0064451506765095,0.0225422768444624,-0.0122020320623156,0.00511805898609861
0.0291210457369488,0.0173047209044604,-0.0115176078563692,0.00520305400184059
0.0479933075034202,0.0098160279572583,-0.00890993046263112,0.00544664563036803
0.0345004327562062,0.011196409981947,-0.00471390092661099,0.00505149148307542
0.012106856124782,0.0182134197821789,0.00122425714641253,0.0031036120546075
0.00560648319700488,0.0163922697493485,0.00673072288826859,0.000424249840296632
0.00914644346096216,0.00505411444349894,0.0106823494649643,-0.00185480948447476
0.00503140195326476,-0.00510301887573539,0.0097792597653849,-0.00356316807092818
-0.0130175337182137,-0.0110929161381763,0.00166697541493692,-0.00464699321065244
-0.0313164625527229,-0.0138174758205836,-0.00864333027799999,-0.00461125811518564
-0.0315710759377879,-0.00340198124745985,-0.00852463667440196,-0.00319976856095922
-0.0174740040503542,0.0189207868606969,0.0108398356399698,-0.00118172720338188
-0.00200445819811391,0.0306866821907644,0.0327122451722302,0.000173540345842384
0.0184313921339041,0.0205416782823047,0.0307427226393081,0.000391380674826342
0.0420275531401556,-0.00309526270965739,0.0052593088539219,1.02217070958961e-05
0.0441379739021924,-0.02800523222056,-0.0211418383256465,0.000121741428198292
0.0245394550934017,-0.0368886887000734,-0.0300379391148953,0.00164261359519672
0.00903564574119197,-0.0229474103516615,-0.0217878313774144,0.00367159614274667
0.00129441055158112,-0.00378043486386332,-0.00801168266685898,0.00414865319800074
-0.006626954429802,0.00812731362556404,0.00205249701511461,0.00279613472800387
-0.0211460206443088,0.0163176741438731,0.00667485899890521,0.00100658748054553
-0.0363647668579329,0.0209726173755504,0.00699162756068284,2.32982506209172e-05
-0.0327130109627916,0.0185957083174676,0.00459151895346413,0.000273291428428374
-0.0137423842173254,0.0099077532562467,-0.000123934597703764,0.00102879736484944
0.00067828812902767,0.00100060219791706,-0.00734417737434706,0.00145770442107165
0.00280406983949425,-0.00194043744067933,-0.0122482649771149,0.00146290184371083
-0.00842909510266432,0.000459867305987675,-0.00976561762515573,0.00108605445944085
-0.0294998654985491,0.00585264428567327,-0.00146354103890795,0.000178686666935051
-0.0488231102076269,0.00935627640230825,0.00271891952924252,-0.00148654393686584
-0.0567302898496431,0.00815123929991723,8.76395151182523e-06,-0.00308665057604086
-0.0504866990167631,0.0136285225634092,0.0041066766428412,-0.00302050381631093
-0.035572890360977,0.030931852721184,0.0190320106104129,-0.00160783032293356
-0.0119646919350049,0.0462944443374781,0.0271233288860223,-0.000997329089973947
0.022308001432624,0.053387837320557,0.0166765395022172,-0.00179450316267919
0.0341687441383679,0.0504354288683671,-0.00178359084659948,-0.00221114230590396
0.0113094986639553,0.0332445322901577,-0.0110555675467623,-0.000958378582673554
-0.00964565635609224,0.0111828879317684,-0.0057185809756971,0.00149722608675153
-0.0177109594107228,-0.00790902047037371,0.00684864739876957,0.00422952610731089
-0.0242665653784216,-0.02305111786206,0.0144671051512725,0.00583535787981924
-0.0344219225578623,-0.0300783757749177,0.0095343570509121,0.00483600587971073
-0.0443478244811078,-0.0291580829033521,-0.00240213335160226,0.00150811340930474
-0.0468679786133541,-0.0226289199155122,-0.00935274206580412,-0.00197720418536627
-0.0378961676164693,-0.0102142497471864,-0.0108346699461961,-0.00358298996352196
0.00512572552093646,0.00155476641058158,-0.0133127091881673,-0.00343110555630839
0.0625984802473148,0.00793161007011495,-0.0122864273473307,-0.00306706859741392
0.0646601481669579,0.016888167150258,-0.00184894200442043,-0.00322789168525778
0.0257933574772586,0.0259651011935409,0.0101637662469179,-0.00338067850931942
0.0018977066292163,0.0243652934940973,0.0141632108852041,-0.00301219803139764
-0.00200378334142116,0.0157341900831218,0.00995618811797161,-0.00246541570228071
0.011976136402589,0.00281369897344818,0.00400610824844585,-0.00203752621204447
0.0336438433537166,-0.0167657265779987,0.00275300133799351,-0.00159614199886996
0.0363710285640048,-0.0344063324405552,0.00288027484043621,-0.00102615118074112
0.0171201264053933,-0.0436042380627192,-0.00291688752597023,-4.77531384927171e-05
-0.000814553308378416,-0.0464043385602815,-0.0132658158890373,0.00141128906532866
-0.00749020312901123,-0.0410186622641429,-0.0166667088184586,0.00297439920733118
-0.00840222153982229,-0.029133455652691,-0.00877140216946942,0.00411520295329563
-0.00512208909637838,-0.0214416742210408,-0.000625897541992878,0.00447650647009766
-0.000514355717499915,-0.020296712635952,0.00355361509037432,0.00413096309974888
-0.00179126984101943,-0.0184747438305679,0.00541213411337638,0.00321103404894639
-0.00931869752396237,-0.0129990712965235,0.00261750115714901,0.00184625921252577
-0.0129280002866625,-0.00472779562537982,-0.00223714415255703,0.000539687187878351
-0.013424795327527,0.00118995016428537,-0.00668064927931907,-0.0004615125964156
-0.0165155970305169,0.00534873463584003,-0.0108372673048059,-0.0014355214259262
-0.0225253435497267,0.0225883934856448,-0.0102918342774776,-0.0024275994655746
-0.0349795303343984,0.0528629304544176,-0.00198854109668011,-0.00315280845489486
-0.0380889560622392,0.0715272598271714,0.0047703554612625,-0.00357548247458521
-0.0199508808970249,0.0638641855210136,0.00111377527788814,-0.00405442127778743
0.00597465318547853,0.0383143347063412,-0.00526834672268349,-0.00444841233248337
0.0317551553820896,0.00800386724537785,-0.00620416636693952,-0.00408410750052167
0.0495611086417117,-0.0168503489856305,-0.00583838264908722,-0.00272334419913928
0.0684948204724629,-0.0303527395800518,-0.00999164124135009,-0.000508595756591985
0.0996856817472906,-0.0361114842583217,-0.0158238703215736,0.00250047622284213
0.105097809479674,-0.0386797821021525,-0.0136001650493742,0.00558250774154667
0.0730984212680988,-0.0400593920449891,-0.00177987801514064,0.00707109210889517
0.043430186297221,-0.0441650081735034,0.00670318435392016,0.00603217552017662
0.028163890236027,-0.0492768229767841,0.00426147037999706,0.00310926199811063
0.016749558065967,-0.046964968771349,-0.00033416106943502,-0.000744086529842338
0.00538988270591058,-0.0330490766523622,0.00257294675484994,-0.00465412592880135
-0.00381410634626695,-0.0114036212112466,0.0104138629159344,-0.00723784486989198
-0.0128170333393774,0.00811878441877102,0.0131040686824107,-0.00753409887020472
-0.0253557539752144,0.0200162020083663,0.00997243417424328,-0.00593252563538632
-0.0350266864977076,0.0277997736428633,0.00560986325083881,-0.00338807802056125
-0.0365074155329375,0.0342487151973399,0.000634329745422959,-0.000819790972275834
-0.0243362373985872,0.0413265604497987,0.000567278888871548,0.000793586506364861
0.000280142908027657,0.0490939081684136,0.00775877712179999,0.00165138127480054
0.0239586911948282,0.0505585887919127,0.0106707996734738,0.00319657160818279
0.0451127346208646,0.0407558113861074,0.000886834988742542,0.00564707755550583
0.0634053037844948,0.0223353802488822,-0.0117817609515588,0.00757946685184038
0.0614315506024776,0.00381041722852775,-0.0144553497673342,0.00790223530212054
0.0372093130854989,-0.00525654177988707,-0.00874551161625468,0.00656270016589461
0.0159146273699353,-0.00461227261080702,-0.00577261756748559,0.0038329862508499
0.00685099872772216,-0.0011010709056825,-0.00811177024036201,0.000282856021135166
0.000304148305214309,0.00322575715493248,-0.00967008897006432,-0.00301961280853398
-0.0046533021037295,0.00842529779351999,-0.00839903414743096,-0.00525644953107516
-0.00339439548930435,0.0135078769842836,-0.00581086131903892,-0.0062733135290345
0.00232279965739403,0.0206335958404947,-0.00215392700169928,-0.0062716518774731
0.00622944238095551,0.0267156668876548,0.00300763015615136,-0.00550351591769463
0.00315605940168944,0.0254911437506465,0.00700978724323305,-0.00412817281391201
-0.0100510689658626,0.0180086423373128,0.00622971002376414,-0.00218310737015634
-0.0284942004961122,0.00849318318692286,0.00171223168651357,0.000130627266449054
-0.0401988876011985,-4.19497906314799e-05,-0.00164623330066547,0.00197935246603436
-0.0382412775919359,-0.00396069021085527,-0.00177087735082436,0.00262343282549
-0.0248068878310249,-0.00123567003137667,-0.000579768788744882,0.00230702749397795
-0.00292903477981071,0.0105979723040478,0.00345597427691372,0.00182200376771523
0.0233941633283993,0.0309052807848225,0.0119964407779941,0.00152034055620472
0.0368524072757573,0.0450431283994511,0.0192629804908409,0.00118534917869927
0.0256633145641338,0.0382127122706311,0.0168694112919412,0.000852790770950439
0.00823747653258937,0.0207333765417298,0.00842385943651962,0.00104942075407921
0.00370114911195156,0.0127612316147261,0.00592227406365485,0.00217702997730792
0.00970694154168789,0.00974559795577723,0.00516055302481836,0.00374822252307442
0.0157606780121524,0.00431995061767978,-0.00253835733899815,0.00487377011664364
0.0179763802782984,0.00144505176833752,-0.0106782148838744,0.00512195254293934
0.0281287618387176,0.000119904094272532,-0.0139600787693673,0.00430256781741015
0.0401479799083921,-0.00125769326654884,-0.0134682998911889,0.0026165044791642
0.0342922242195006,0.00152759390276221,-0.00814725480658234,0.000611104880011834
0.0212855193042787,0.0142566923011948,0.00135517523454704,-0.0013238329566327
0.0128474745664613,0.0273660618991154,0.00973980023604822,-0.00310032032024409
0.00610326604710651,0.0257173939248093,0.0109035480877421,-0.00472472809038449
0.000586703178719471,0.0142813386595597,0.00511087452268143,-0.00535100245148936
-0.00664534644634737,0.00255857365314542,-0.001617043188003,-0.00418575136631211
-0.0141667330389827,-0.00488639538777714,-0.0051795018944187,-0.00211208950757585
-0.0196612378738426,-0.00840057546453008,-0.00522008441071196,-0.000455541340930352
-0.023061541869307,-0.0167566447504305,-0.00540283153192893,0.000440581769334708
-0.016682078611329,-0.0297076917777938,-0.00818829380929147,0.00105458609004644
-0.000385857647014486,-0.0376736057285703,-0.0106089611007923,0.00174377794358663
0.0143735482971173,-0.0409719809200023,-0.0120180013122002,0.00243471642967669
0.0191424745694464,-0.0438134856222662,-0.0134815593093272,0.00291414649160705
0.0122594503728914,-0.045032561326976,-0.0114806941117579,0.00307236577963226
0.00390600995647101,-0.0462718950761482,-0.0044447671196532,0.0031756600223188
0.00591580804586638,-0.0504447374867773,0.00171115115350643,0.00319120373787132
0.01418587740248,-0.056412471183772,0.00452212567014943,0.00237593513284583
0.0183948232281173,-0.0616438460264318,0.0100064996134026,0.000318172624863849
0.0183256102544969,-0.0604569621552846,0.0190182566160298,-0.00205674147806226
0.0241832449220915,-0.0519864733073586,0.0241074171305264,-0.00344421149378469
0.0384658212530196,-0.0437287517385736,0.0217742919337954,-0.00396580887353543
0.0466569313740761,-0.0321300168928387,0.0143822372569555,-0.00431435460303215
0.0455047440622975,-0.0111967097329783,0.00574215781445303,-0.00404585988012854
0.0377282733085244,0.0124605932865219,-0.00106812093799509,-0.00277330471917415
0.0149962137428139,0.0337214569314685,-0.00620583750455471,-0.00125133202491574
-0.00722200503822269,0.0500899078273167,-0.00842822211979992,-0.000355398157908619
-0.00597586485986572,0.0467373753650598,-0.0109374681019104,-0.000133653563486215
0.00657511780988947,0.0150939350957675,-0.0201921258956367,-8.66579744494976e-05
0.0142540032979325,-0.0163232683136493,-0.0275940997896903,0.000171001191160881
0.0183724012551417,-0.0213192817222659,-0.0217428467334575,0.000460559901578231
0.0145336497408188,-0.0146133403576085,-0.00834842096428963,0.000311961015005028
0.00123150584995985,-0.0173623508395828,0.00200916000355701,-5.72374801462489e-06
-0.0129840599639175,-0.0356676516975383,0.00191192287714753,-0.000130241337840238
-0.0222724238160745,-0.0578925383638005,-0.0117404485911096,-0.000201104680814696
-0.0189740337010657,-0.0588424811663585,-0.0279792433833052,-0.000113137433678347
-0.00397193621904819,-0.0338360055377734,-0.0304911291896174,5.06000990050444e-05
0.00593847734395005,-0.00547924647509785,-0.0127071792615849,-0.0002275269170191
-0.000328670792598615,0.00893545481832989,0.0158234359932975,-0.000530496216833426
-0.014700642049517,0.0144207488192321,0.0316449036848948,0.000303484546228211
-0.0227170459607476,0.0183049513902155,0.0231777144579722,0.00194887267278759
-0.0176713420857111,0.0193756769986919,0.00531263946160512,0.00284689960816466
-0.00687049211426474,0.0181342991769006,-0.00283016970526241,0.00266003900854929
-0.00122244957190595,0.0155069989470981,0.00152713263428837,0.00231454949513815
-0.00232881914530576,0.0118209923836126,0.00926525229172542,0.00241865926611978
-0.00844126317569489,0.00920122337822198,0.0144466518336795,0.00269702272204598
-0.0141115990924773,0.0103669758663399,0.0164679777254134,0.00204426061740013
-0.015644457212832,0.0163380997390545,0.0121801049978496,-0.000329332794514373
-0.0192557337771144,0.0235224072940586,-0.000222481485595609,-0.00354200613267756
-0.0243350687632534,0.0275803491498417,-0.0113895752257282,-0.00565874165914172
-0.024029200592727,0.0300967297202734,-0.0126314713349014,-0.00566918630053724
-0.0207581769022506,0.0356769912423077,-0.00869463260366341,-0.00425945815019211
-0.0173896669765543,0.0441727381178822,-0.00790885445981336,-0.0025604451190829
-0.0103244724364614,0.0525415657315936,-0.00763608969216244,-0.000760728953294241
-0.00173214661221483,0.0578147228994347,-0.00304321392309558,0.00132972161374998
0.00105801745455392,0.0599406360758727,-0.00248412393803531,0.00325624008144265
-0.000189841542714246,0.0624290399582979,-0.0102601949135843,0.00426176195516878
-0.00255066908032768,0.0586363351399353,-0.0161077660761676,0.00383008129151882
-0.00813677199478187,0.0387388521166177,-0.0135735712664976,0.00234150575850451
-0.0179124184323167,0.0143838436777912,-0.00827872274126054,0.00116339746197842
-0.031195496687873,0.00393757175924209,-0.00209780409257613,0.00146075105796187
-0.0454709983418711,0.00703168950850439,0.00588047570046946,0.00295688594867923
-0.0541228971819437,0.0106636497670751,0.00915491841798178,0.00435039017245316
-0.0509718611273487,0.00731271947333482,0.00658352357859979,0.00452711413532729
-0.0385047285712294,0.00100809522351244,0.00127640522219026,0.00291055349450622
-0.0188577602731845,0.000946344934926097,-0.00308995945432902,-7.01789546978596e-05
-0.000441503451453693,0.0127072024865133,0.000934008185617437,-0.00288987412113759
-0.000131458245485772,0.029051211938079,0.011170887214998,-0.0040303466070393
-0.0117013728204239,0.0351550074164948,0.0138250651262641,-0.0031741307091167
-0.0120743154600208,0.0240389285775219,0.00401720779128365,-0.00158293814427062
0.000578483653655426,0.00202435039130958,-0.00794682760272257,-0.000805106992622013
0.00847152564514064,-0.0163547357987657,-0.0114962159734766,-0.000884017901695947
0.00928352317440429,-0.0238754532353825,-0.00465406977566505,-0.000946964433055223
0.00311267121267388,-0.0292710074795078,0.00533736631134942,-0.000723644584258154
-0.0238905496499486,-0.0346808687040055,0.0100024011373809,-0.000553489123583101
-0.0592875888008486,-0.0228162379981935,0.00873810866638589,-0.00088623970270894
-0.0738079009340614,0.0106779197736817,0.0113222664851792,-0.00158932543806984
-0.0629927117535479,0.0414372313553067,0.0224362714927439,-0.00203153103281623
-0.033420619176919,0.0443998563573338,0.0240608087209348,-0.00218439729714766
0.00430503837427855,0.0163773967242485,0.00464621688694667,-0.00252488031414045
0.0389145817466019,-0.0195554828310976,-0.0172406680596029,-0.00279241596478382
0.0654631598745453,-0.0374494122475397,-0.0178896195434556,-0.00235630676699858
0.0562984379026155,-0.0428756067031574,0.000433878903031453,-0.00145943328579053
0.00682583201588186,-0.054196445964201,0.00970103341042304,-0.000538122817257784
-0.0334267171775837,-0.0691771634408875,-0.00492895067049843,9.67293077286913e-05
-0.0391756576835087,-0.080208734544615,-0.0260744426227755,-1.58405889873036e-05
-0.0260119922903366,-0.085895067403326,-0.0316107035179151,-0.000691684202121038
-0.0147895575753703,-0.0848775379114786,-0.0216041049762967,-0.000838656013840625
-0.0201610893834328,-0.0811084817371197,-0.0105022015354464,0.00068450893622067
-0.0376547637906499,-0.0777618812711274,-0.00447901510930928,0.00352056800563955
-0.0417887254971688,-0.0671690717209552,0.000291626426324895,0.00544893259176212
-0.0173179610634656,-0.0412009968446707,0.00824541555038978,0.00476659912815823
0.00863872093285373,-0.0105344370012557,0.0161675884531077,0.0020298092382927
0.000904513161606404,0.0125203358942826,0.0184948017900255,-0.000927454077859234
-0.0184465291333945,0.0289306572528141,0.0168945804191276,-0.00267483800301457
-0.0129880122480468,0.0293928226462094,0.01156131267056,-0.00324971196023505
0.011684229990822,0.010383513287978,0.00601493227224529,-0.00349788380385774
0.0439380475374055,-0.00801998362553068,0.00757477950059095,-0.00392241936181821
0.0642956653011637,-0.0148176030155423,0.0102804494941555,-0.00431674703848922
0.0407371736598153,-0.0167374850034345,0.0077446827767195,-0.00389130379840226
-0.015702020013718,-0.0097038128036511,0.00630402380390074,-0.00217978559821356
-0.0604909526958777,0.0100665563364726,0.00746983947058679,0.000116377721707164
-0.0769494666388526,0.0264989625454374,0.00574039578455727,0.00195638177638151
-0.0755351667423945,0.0288327472777158,0.00266161339885253,0.00307599120569932
-0.0634967159337016,0.0137102856916305,0.00166050641436456,0.00350522363088606
-0.0349813213980446,-0.0148312139929437,0.00231721749328691,0.00333645332350251
0.0171864790130658,-0.034608413816591,0.00480384038601869,0.00277223918970942
0.0645640489311651,-0.0343081222435085,0.0113762203999862,0.00164384635625154
0.0689201737312468,-0.0258079506715487,0.0204646384550182,-4.77524721915899e-05
0.0516776558798877,-0.0206642180736107,0.025980395970277,-0.00134499353389465
0.0416015900725833,-0.0166233877018234,0.0223093980623602,-0.001396473335391
0.031016720338713,-0.0125229208682371,0.00691878081911264,-0.000481355214194082
0.0103067029665996,-0.0160001444230299,-0.00918091650726902,0.000991528149313573
-0.0261989047982608,-0.0223222456462115,-0.0139324065377894,0.00276989729031637
-0.0667681970346039,-0.0182863071058138,-0.0153305690004702,0.00402206479999198
-0.0950018762779077,-0.00275278209976659,-0.0191139723499427,0.00429144682412396
-0.10470235563857,0.0153613467101235,-0.0173276764339489,0.00388405018688979
-0.0886114336193079,0.0261706626933187,-0.00695534190813846,0.00260855076512397
-0.0485710042180914,0.0250794278985849,-0.00152409446696118,0.000270071597927753
0.0182062186171376,0.0186688446989358,-0.00979040283274943,-0.00199065771930185
0.0794467323439229,0.023659447248306,-0.0119280888672494,-0.00289489329095212
0.0735192002758297,0.0444507195050045,0.00604849347899898,-0.00267408063155581
0.0336578251877343,0.0652738620135113,0.0294310828910096,-0.00224027913936414
0.0205051328056252,0.0771410374228996,0.0395415882606636,-0.00238047191321876
0.0206865937609894,0.0845119523438138,0.0358142483058223,-0.0031357752028877
0.0236465293382409,0.0858079205729965,0.0317404183503099,-0.00355150089655055
0.0340595629535343,0.0746084745644792,0.0361172900070481,-0.00326503223250824
0.036775472417523,0.0542048963487739,0.0406957263012596,-0.00263595838114894
0.032347928398046,0.0330439163653393,0.0305766869189345,-0.00180673519706693
0.0264847350208062,0.0152365083042187,0.00904829467850635,-0.000533461938985285
0.00600967816758498,0.00404802636275241,-0.00675258451370869,0.00128318304024267
-0.0212541403200179,0.00466176125529174,-0.0117613336734112,0.0028504937224389
-0.0375000656239036,0.0102828138419433,-0.0152833221569588,0.00336919613829608
-0.0448247323141143,0.00886965397078128,-0.0156862997905291,0.00298700864556775
-0.0411249864474594,0.00267830735655224,-0.00743818613699599,0.00226689665442746
-0.0211658278871241,-0.0012286709075552,0.00178774867798388,0.00170511432515601
0.0080616109721828,0.00230034406964727,0.00701120573819768,0.00122953817648045
0.0347350714559084,0.0120579057205248,0.00547243623634801,0.000199195620399747
0.046995166021146,0.0188740900065674,-0.00420218812262199,-0.00151238011545885
0.0387749010342989,0.0194193303957307,-0.014124764638337,-0.00301367570436983
0.0210858445539264,0.0221802945775111,-0.00960923263501127,-0.00314573195990294
0.00845789968931644,0.0322855585325804,0.0105900521883637,-0.00202208209317237
-0.00462346905314764,0.0325860885510108,0.0180776304385699,-0.000715768489911502
-0.0202119494362131,0.0147112326666782,0.00289578777883768,0.000144339938491012
-0.0385323600073588,-0.00339299338782789,-0.00865246779799137,3.95793663703712e-05
-0.0607649936419861,-0.00721932020984842,-0.00460047099349688,-0.00142398733225927
-0.0621478269880811,0.000679240310063306,0.00332887318444403,-0.00391983218245577
-0.0333973661886748,0.0019868683089918,0.00263046736262219,-0.00653007565161491
0.00443648616448006,-0.0121221334001384,-0.00428737990850594,-0.00778963960348349
0.0363781412425151,-0.0330146161542797,-0.00722469056100373,-0.00626931490364698
0.0579649835713347,-0.050583314237463,-0.0079913300608215,-0.00221639727058816
0.0855270993652651,-0.064507039439404,-0.0114771382399339,0.00248726431826674
0.11867443894401,-0.0746549176981916,-0.0130253008214917,0.0062823681954575
0.110251686657517,-0.0757940323020811,-0.0133377239790767,0.0084182240702714
0.0578095734123096,-0.0715888470051605,-0.0150740103307585,0.00877664396573162
0.018310894562098,-0.0671951253639287,-0.0152358887312777,0.00808055849725719
0.0167997503397892,-0.0665601423133704,-0.0180124667117592,0.00668941532678659
0.0331493702996034,-0.0650147226352055,-0.0229524712047027,0.0040251686152084
0.043989037118492,-0.0521851804717015,-0.0199213989538158,0.000298819906970858
0.031914706885512,-0.0354760453572698,-0.00934267242766815,-0.00286076145616294
-0.00448756380860754,-0.022094716417428,-0.000287818685264122,-0.00406387310486186
-0.0367799133076134,-0.00519415924399534,0.00467054123800477,-0.00331781800204136
-0.0487541784889994,0.0152363153322205,0.00803788445547342,-0.0017115591778866
-0.0527741323448009,0.0348899375655987,0.0110004118411763,-0.000450191989046466
-0.0536387971343283,0.0519129029075717,0.0125440319153701,-0.000106108445572315
-0.0413067064125555,0.0633833621686697,0.0118288031009982,-0.000692137494845416
-0.0114924774408909,0.0646766808746569,0.00973358116598569,-0.00171634308692659
0.0187865384302372,0.0540217349952942,0.0062482592469513,-0.00235571189811444
0.030128453747837,0.0394165849215794,0.000914295509217254,-0.00225761368924982
0.026966315993781,0.0229381763801627,-0.0061381311692965,-0.0014466024620111
0.0257142962821815,7.90916128718122e-05,-0.0121340321693095,3.21338848535213e-05
0.0288741427105584,-0.0241548072072917,-0.013495183663666,0.00187066776400257
0.0265363591731157,-0.0455029307942623,-0.0122474943057611,0.00357654560719383
0.0213089793023418,-0.0614457935106843,-0.0114818064072322,0.00454790419293891
0.0230961890489405,-0.0655754565328335,-0.0113006919443386,0.00457829047140228
0.0279677744262152,-0.0551635061564091,-0.010171477023779,0.0040280082815941
0.0278817176124406,-0.0369215454765748,-0.00635130217495796,0.00331560778011538
0.0243042382243522,-0.0170589793446559,0.000999467098399349,0.00270025727937976
0.0196177567596742,0.00248793306421225,0.00840266701422773,0.00221298726096574
0.0109648041830315,0.0152261303917995,0.0104514905277932,0.00172908489973876
-0.00121582737452586,0.0209591679149368,0.00575099879224492,0.00100992618151372
-0.00878400265248933,0.0284340723808355,0.00169904634570294,0.000125597829768152
-0.0062102712464726,0.0412120748233971,0.00598126523389332,-0.000927563966684265
-0.00263302452321405,0.054286336284222,0.0122989169555378,-0.00253085595077529
-0.00678879073544251,0.0617040647334413,0.0119413452486492,-0.00434093686467029
-0.0106526933566708,0.0635325733413451,0.00787332275641113,-0.0055209702561494
-0.00807899144553724,0.0620757981580658,0.0078485523717874,-0.00565771039163483
-0.00157822497986752,0.0589294285659308,0.0120737713367404,-0.00499927920569566
0.00807845576432906,0.0553989967643039,0.0149804076745363,-0.00436310653630926
0.0198527312567893,0.0516690317818329,0.0148128515104543,-0.00408319386136546
0.0243211085139032,0.0511144660424072,0.0150444268180928,-0.00375689058130152
0.010288360897885,0.0545944112728614,0.0157136649293276,-0.00310472841416633
-0.00975502722608726,0.0563147975584895,0.0141297871981118,-0.00200705549606247
-0.0162198567396952,0.052635641007488,0.0104324536492373,-0.000268157309175241
-0.0119738435490469,0.0461889117052388,0.00742267603574701,0.00213651120764401
-0.00800101892350756,0.0408016752196815,0.0080903094867702,0.00448103079745554
-0.00739922245044109,0.0326456812229535,0.00929754637738266,0.00561986157317365
-0.00692865416763571,0.0194042817794314,0.00626304028108678,0.00539212756608043
-0.00409838639339107,0.00936782915406893,0.00260778206028535,0.00474848786513999
-0.00175741293984595,0.00846876820382807,0.00270637998262802,0.00418528220361649
-0.00231854111584894,0.0118500909305628,0.00258248636289397,0.00310981714567491
-0.000953074631316185,0.0107893008328693,-0.00181074722429015,0.00132111732906126
0.00654571684344456,0.00454584387237685,-0.00926382486787121,-0.000443464175846142
0.0144055890465541,-0.0039721781606952,-0.0175850016981031,-0.00179132110448444
0.0169796648288629,-0.0117334021293587,-0.0238664431740356,-0.00280611948708075
0.0138830529687554,-0.0151026632738128,-0.0232067755254493,-0.00344741343517928
0.00774598170371045,-0.0171534457502162,-0.0160720385932963,-0.00411155748486635
0.00617190424691579,-0.0208993798646755,-0.0101708944858468,-0.00564722798360803
0.00834299064074493,-0.0263378558009699,-0.00884233930911431,-0.00787501996182267
0.00533550561490512,-0.0296250084534313,-0.00866896249884992,-0.00916961502604695
-0.000467791772510152,-0.024881609306438,-0.00615795196098349,-0.00800779450708806
-0.000593153461457963,-0.0113971787978493,0.00063932725024397,-0.00460869972571237
-0.000580972216833816,0.000802931833704765,0.0101403130712424,-0.000660112294602609
-0.0195466801682499,-0.00605867325336421,0.0150678589734466,0.00277592906711699
-0.0553847863020081,-0.0267487723729119,0.0126424826183787,0.00590655741682314
-0.0816804410008327,-0.0379768018291217,0.010371335275719,0.00861665227476243
-0.0837720799508495,-0.0326491291735274,0.0103582166300642,0.00998364681416387
-0.0556542126677545,-0.0206122633928616,0.00750414315814314,0.00954820512732655
-0.00627287102191243,-0.00733383636204574,0.00555691824387031,0.00765365078713226
0.0351491755747816,0.00427741634369407,0.00946197603337109,0.00470141919018871
0.061201768913219,-0.00175706784443971,0.00916685993027652,0.00122670271573448
0.0763484636793028,-0.0267167206880836,-0.00141351800580358,-0.00194313781666959
0.0622209949362483,-0.0509767496667541,-0.0102598779332482,-0.00375599627898136
0.0254745133981905,-0.0631592954923149,-0.0111331561351799,-0.00349648423743044
0.00482846684268792,-0.0659431019927357,-0.0129570330054013,-0.00187204920751831
0.00447861828673307,-0.0673488272523667,-0.0162506971324746,-0.000107320004614892
0.00950823971298343,-0.0649796793369282,-0.0125725829782795,0.00100010181709983
0.0208386094745183,-0.0506177025236366,-0.00502632412010467,0.000816030606621409
0.0286038156147518,-0.0236365703539869,0.00144721822880906,-0.000484499674103772
0.0113014604893154,0.00783356234157868,0.00808395640689659,-0.00218495417712496
-0.0224954823126044,0.0300480958555627,0.0125674395755185,-0.00364648117958276
-0.0400291491222661,0.0397030613350735,0.009855767842267,-0.00370125612170448
-0.0364102172273546,0.0452743069800551,0.0036336355124698,-0.00146960551265107
-0.026902316512878,0.0526804305749373,0.00235093605363806,0.00227726986161014
-0.0126618654352786,0.0527653035225858,0.00513384756782356,0.00552279470037083
0.00972384837147321,0.025080974660891,0.00458110111233668,0.00669027909286545
0.0389326209301887,-0.0244360089104507,-0.0023187118413885,0.00594386660415885
0.0639113113789354,-0.0647641501980636,-0.00963387409855994,0.00431495350712299
0.0643610097247473,-0.0874029820779541,-0.0100153555857542,0.00257796542109709
0.0422863137370739,-0.102547190990805,-0.00330678246151981,0.00130510397270814
0.0191832902853337,-0.111943713692795,0.00577608728036266,0.000490780491841046
0.00282148725113594,-0.107882724146079,0.0120444548328581,-0.000437311107879269
-0.00625895545208751,-0.0868803132690847,0.0113803592190536,-0.00155133352580377
-0.00521376231960213,-0.064832632426015,0.00420964371680648,-0.00224506267459658
0.00141140458637411,-0.0527235866302315,-0.00371325245659466,-0.00225107432251017
0.00511755209982152,-0.0373758189962557,-0.00324804687264152,-0.00212055792624621
0.00270738844554009,-0.0077573462757561,0.00548638144849952,-0.00243859253976049
-0.00217171365293781,0.0291440567306131,0.0134428494853901,-0.00315099140526159
-0.00164390047527452,0.0590140226230393,0.0177001216031971,-0.00386339103835469
0.00600573203665212,0.0708006182548833,0.0185372951709427,-0.0039309758219346
0.0136769740462547,0.0646068302915219,0.0156689436754072,-0.00271311682876832
0.0143368798119128,0.0635179988658592,0.0136541307517676,-0.000549332049731273
0.0100978944213231,0.0853220250345984,0.0181073598572338,0.00144328029052512
0.0105709008792957,0.104930091063926,0.0236175947827934,0.00265439789287174
0.016766686806751,0.0876694413852914,0.0194554211894676,0.00313754526720794
0.0206556589202104,0.0411762501524569,0.00709670636934593,0.00321881082658
0.0181628571896387,-0.00618010465587421,-0.00100478742437204,0.00332562722911156
0.0112148201687412,-0.0417456271869707,-0.00136860748132639,0.00294977939973838
0.00541575509835111,-0.0551092705500331,-0.00241105435614132,0.00164204386756607
0.00124938563804484,-0.0501074910601315,-0.00861092145935747,0.000569218279087076
-0.00198603468062198,-0.043620009915467,-0.0111304973833481,0.000377811934764007
-0.00113400260989503,-0.0343185876514755,-0.000355527744059569,0.000271904576800291
-0.00354446918262429,-0.020515040719896,0.0106158593476845,-0.000196685093605683
-0.0185334418748956,-0.0104273989155563,0.00744069283433989,-0.000847936920830633
-0.0369142352073627,-0.00124396507761494,0.00221373291096681,-0.00157199061938165
-0.041895621610836,0.0113030950175763,0.00349103597523428,-0.00254025097620702
-0.0326778441503017,0.0157002188169246,0.00132036245581111,-0.00381151505293125
-0.0213482385203502,0.00959293200340122,-0.0019348182549366,-0.00449327631511221
-0.0108036165897674,0.0081488792072429,0.00305093316711024,-0.00361540028471335
-0.00574524450040977,0.008527603274748,0.00377554563612672,-0.00192868911699703
-0.0187409762020197,-0.000393380813126922,-0.00882387520741811,-0.00116504102058156
-0.0394332692307613,-0.00710265980692601,-0.0194706234688937,-0.00184254017244729
-0.0526172599329477,0.00180946322473924,-0.0109109310739384,-0.0028059023737414
-0.065954610315276,0.0177386607021668,0.0177153122127132,-0.00226513441692322
-0.0793154332554109,0.0269071004408626,0.0459478431295861,0.000671796569192522
-0.0639853877766886,0.0313758508889545,0.0482078158595929,0.00431270610728911
-0.0104511895546948,0.0294924334664883,0.022474069945736,0.00522453124934154
0.0395704005009897,0.0122976098507354,-0.00394257190055154,0.0024490253257921
0.0508455695681568,-0.00754372688753702,-0.00961637589087976,-0.000685731639924666
0.0352325391376898,-0.0102868332407809,-0.00114738094236664,-0.000664649711218234
0.0147213282574953,0.0070588072447013,0.00777170014184925,0.00210562050963376
0.0015920240474001,0.0317129232704245,0.0105638061432474,0.00477631888195772
0.00732557055299602,0.0510257097445547,0.00538339958328073,0.00546469886567238
0.0140225000094365,0.0651902328436769,-0.0012629670541622,0.00426845626925629
-0.00588571030535245,0.0632519120980898,-0.00243679442157118,0.00250223582753495
-0.0356988029555661,0.0284075413217298,-0.000713136146637028,0.00163237750919446
-0.0502714179166132,-0.0237144297569022,0.002141950379131,0.0025013870920438
-0.0561226103348867,-0.0572655146590225,0.005758269280005,0.00443085522222559
-0.06507159887042,-0.0622602818699727,0.00829018362391892,0.00560572430303549
-0.0696361389848428,-0.0523326181030343,0.00793594923365687,0.00483245996967689
-0.0544252424383612,-0.0287523911946657,0.00502229019156406,0.00231614094824256
-0.0242903830180161,0.0120534454116453,0.00429486143201999,-0.00100862401350856
-0.00205698086021509,0.0478367039717357,0.00356986388745885,-0.00375604527176085
0.00510968929782521,0.0508127839779075,-0.00270523030200606,-0.0044219771508832
0.00520603883112463,0.0278286161153764,-0.009267018284412,-0.00293514007191768
0.00605236713050604,0.000753144387046573,-0.0124985496612231,-0.000534877104729747
0.0136159793702522,-0.0194052258079016,-0.0152080223016619,0.00186446422449882
0.0222861180141614,-0.0268298543896097,-0.0152043012881569,0.00372841164665372
0.0204513320963589,-0.0249723624937277,-0.0148432828207803,0.00459970537603003
0.00429093784578385,-0.0239324565384407,-0.0204856180782276,0.00455914549614483
-0.0150599269938449,-0.023465503632895,-0.0243442340536862,0.00401146690547811
-0.0197498024455415,-0.0136264635808036,-0.0146673612248992,0.00305518084184207
-0.0116623320955817,0.00541480352674124,0.00223941561341324,0.00155177118174826
-0.00158792739394559,0.0191509976136757,0.0117867752046515,-0.000410493421786306
0.00828158536730387,0.0221427238054222,0.0133076565431845,-0.00255939708383156
0.0137927232415725,0.0241814521261953,0.0135598962254473,-0.00413410230167467
0.013139525980363,0.0331557660875393,0.0143604731748788,-0.00396630053300366
0.00795509286510939,0.04403377259808,0.0141870800447405,-0.00216187758730491
0.0039247392105082,0.0448271649362846,0.00891168872001786,-0.000131350780867311
0.00557653819832536,0.034864283912068,-0.000694162217509365,0.000975244323431193
0.0102754457755373,0.0238039148965006,-0.00801147449508593,0.000598765500669972
0.0222463085626223,0.015558306390522,-0.011381368986449,-0.000656675204686815
0.0362825546718757,0.00964238290790258,-0.00834520439529002,-0.000874302455515761
0.029829149404505,0.00993682667892229,0.000425776582736927,0.000953039213665078
0.00560617693472141,0.0181646938225377,0.0043432670798079,0.00362067204460098
-0.00614741428627096,0.0260834302487522,0.00226957191061856,0.00508245419768521
0.000880672907777987,0.0270108476446287,0.000159891827844554,0.00423746412652678
0.00929756780136305,0.0204261455742046,-0.0018578867899488,0.00150247833148646
0.0116577388277605,0.00662346501974815,-0.0036385611241878,-0.00172814329309694
0.0105570000984647,-0.00550886652245193,-0.00645498925249736,-0.00419752938310962
0.00884011070934811,-0.00936315751658112,-0.0146675474314602,-0.00562169350137413
0.00457829440732699,-0.00693379264818348,-0.0226722471791349,-0.00620221849634674
-0.00388458797291697,0.000882944823562472,-0.0213176562221598,-0.00615044994656435
-0.0110639013258768,0.00585414649078917,-0.0113898722978306,-0.00582035304639252
-0.0106845201143608,0.00460939487313294,0.00239274501307805,-0.00566740105855196
-0.00421442245939576,0.0159019645809901,0.0107495158071602,-0.00579639242507993
-0.00146635675039263,0.0491451792771287,0.007904783648047,-0.00602161223434079
-0.00471408651677776,0.0804116499642023,0.000984994983803575,-0.00631773223884224
-0.00116420323741805,0.086879591857896,-0.00438293947902847,-0.00638329597910766
0.0136891870007985,0.0684417437484175,-0.0085134687105115,-0.00586335534261609
0.0258539393204548,0.0352495845930995,-0.00974818850025949,-0.00475596575306607
0.0252510187026937,0.0040729126266895,-0.00906046623797041,-0.00323962113264013
0.0196930547982432,-0.0123747068066531,-0.00973556707115587,-0.00149074919373894
0.0198094805854964,-0.0122603668416282,-0.0105879308385837,0.00038057931521848
0.0194828520799885,-0.000924799398780689,-0.00938408951515102,0.00180316266565314
0.0095480564672882,0.0110695985857069,-0.00517993201927269,0.00230257719468413
-0.00317836637895006,0.0170582626475295,0.00268508835192526,0.00206482836446146
-0.00961937768225346,0.0175471469577638,0.00796495816788623,0.00141363745406777
-0.0111093469802333,0.0160528605981907,0.00467543556849558,0.000602598786602111
-0.0128166336687784,0.0167696768163259,0.00131345825024988,-0.000187374906936864
-0.0118841229213702,0.017412368212868,0.00371696209840769,-0.000806382568799076
-0.00122022505718808,0.00896311621413718,0.00476373217798681,-0.00137499152367319
0.0151770228918262,-0.00732826907410798,-0.000291643422469632,-0.00216277983825894
0.027125614999111,-0.0179882245090724,-0.00728302910581928,-0.00302978147888082
0.0319836945417442,-0.018735129703145,-0.0106542779452008,-0.00375377183730133
0.0293531505595945,-0.0170291727107631,-0.0120230586482098,-0.00438183068643666
0.0202324234389769,-0.0211185338326166,-0.0106594168956699,-0.00473114320420024
0.00884360050613264,-0.0341019205113233,-0.00153573136935982,-0.00445045835467482
-0.00777135970970121,-0.0509942459340012,0.0114751968447921,-0.00361668955116069
-0.0280350479586486,-0.0605862160637439,0.0209566576268858,-0.00241186821166806
-0.0398301939446295,-0.053782011465187,0.0244364223118795,-0.000677547545411799
-0.0403822660435629,-0.0394648984765137,0.019953457173215,0.00141415790136588
-0.0388139118360575,-0.0290734227499928,0.0105872596480111,0.00334425323531861
-0.0416019474576471,-0.0217904595555284,0.00438028793896521,0.00482170275014458
-0.0390851642739097,-0.0128714546050456,0.00335224715620432,0.00534864076828053
-0.0247964781111722,0.00225037699496823,0.00755663967794978,0.00375500300758703
-0.0141996931340277,0.0184966524002632,0.0169141277799706,-0.000231268401251731
-0.0123444166531799,0.0231782030371403,0.0217923259820355,-0.00433179397114522
-0.00874446311458051,0.009301426329755,0.0133673151525055,-0.00587452897198521
-0.00538390680038114,-0.00916116090281854,0.00167207434712826,-0.00430445954038251
-0.00460385868123083,-0.00655790335992301,0.00126634695399932,-0.000532161955269951
-0.00148539018914163,0.015982378030764,0.00594467464639755,0.00349218282577678
0.00469190181772533,0.0284523396802998,0.00214110746908122,0.00531979370189802
0.0123075004410053,0.0160226528139662,-0.00233630776202426,0.00468387429695314
0.0128312979782027,-0.00905992630916794,0.00185203625917399,0.00348293073302458
0.00136475026835017,-0.0381808238805113,0.00165944216721882,0.00275550937836902
-0.0138592661612189,-0.0627258487586555,-0.00928488947246217,0.00201946636806345
-0.0287428661986183,-0.0697123720760275,-0.0143539723759413,0.000798982925674234
-0.0438292839153246,-0.06550780112234,-0.00579261316807438,-0.000747307236511616
-0.0511224277273745,-0.0634214962784811,0.00277443207664961,-0.00239713885481851
-0.046040462495891,-0.0623277923249675,0.00587849355902875,-0.0040664139486086
-0.037982740886988,-0.0572492276947585,0.00924566445569258,-0.0050514596200719
-0.0403492447311914,-0.0523091105323847,0.00987455203121246,-0.00409900591488819
-0.0590847805557376,-0.0487885987881684,0.00574221443987357,-0.00126122982060393
-0.0798224241426227,-0.0364238500133448,0.00307967787395669,0.00125428507948958
-0.0788770364397111,-0.0148922269534696,0.00939265143039602,0.00155486635797925
-0.0551076762890766,0.00488762192447646,0.0218031062726699,0.000574494043990911
-0.0250079324993385,0.01740532402318,0.0217129319333992,0.0005841588410452
0.00860883639547781,0.0188258366202248,0.00357689546157526,0.00222972753646387
0.0531365676568355,0.0162997095997489,-0.014337665561722,0.00456509547034468
0.0882502642880022,0.0264371808968181,-0.0169610989372631,0.00693697593754888
0.0734383425750046,0.0443605463555048,-0.00152028431725228,0.00922652243579232
0.0226453456100514,0.0473859763474598,0.0174864009110977,0.0107465837053573
-0.00970792455419639,0.0284533931387987,0.0201489546333026,0.00987604486911377
-0.0102823821649977,0.00153853292726756,0.0111570391218476,0.00577972754037941
0.000286199433781185,-0.0174486122474866,0.00293633952060851,0.000235804776714348
0.00484495204636273,-0.0249541764326865,-0.00378773745057156,-0.00389633145396819
-0.00362505311040006,-0.0276071530669156,-0.00735897779600498,-0.00541394856761269
-0.0184682038148193,-0.028354197852094,-0.00600836313158524,-0.00529359322320391
-0.0217331800639922,-0.0224678752475325,-0.00322798322030524,-0.0051475079287841
-0.00836684152457383,-0.0112126310375491,-0.00259089693116948,-0.00541598940444966
0.00635560346368426,-0.00169857133434319,-0.00328217156141795,-0.00543139927224803
0.0103032404843169,0.00861848933131684,-0.00262918826854302,-0.00438384823366852
0.00531807497367998,0.023527759018318,0.000199367380801809,-0.00193956054274091
-0.00732449389308881,0.0406148943675003,0.00587381511671158,0.00123765002082832
-0.0319101358523558,0.0538786237165733,0.00928726674395397,0.00408676882872455
-0.058163669125184,0.0500025153654327,0.00340083110156372,0.00606096449332019
-0.0629870176112503,0.0289631965036089,-0.00520253534735999,0.007379528600924
-0.0418830751684782,0.00974408619442203,-0.00703947861990727,0.00834468661244152
-0.0139031993999742,-0.000715578120486685,-0.00611921116585335,0.00844747690447987
0.00622179866886478,-0.00831415820959275,-0.00789028478978855,0.00700472544843623
0.0288999012415591,-0.0159351854043939,-0.0103559639749405,0.00440124956697556
0.0654384615189376,-0.0228804316967224,-0.00903698915666226,0.00182145572713193
0.0940402368864113,-0.0284651161389482,-0.00493224824233313,-8.0708804007794e-05
0.0890882705339581,-0.031537312934476,-0.00320967885435832,-0.00108143089776779
0.0580844960408043,-0.0253615402876071,-0.00096100107855877,-0.000946303966860712
0.0332377118906947,-0.0101745290512446,0.00639516499576384,-0.000251620062394919
0.0340656080660829,0.00546343311486033,0.0138378396789932,-6.36952702351815e-05
0.0443690699824947,0.0165207664801819,0.0172477025260021,-0.000729906097432253
0.0422551441016904,0.0165242935523165,0.0167103380959368,-0.0016190444274229
0.0270816937220444,0.00632831508098629,0.0123178555786762,-0.00180645216444918
0.0120488422767852,-0.00620927845832207,0.00889054399724926,-0.00109097746623653
0.0134744341374226,-0.0174980548526265,0.00618675504765202,0.000133275165909315
0.0280473498337678,-0.025803749381852,0.00121761041484123,0.00130830905274688
0.0330356847859638,-0.0354462747337436,-0.00401588860379232,0.00190470281627822
0.0236932824460085,-0.0485439403059868,-0.0102475137905527,0.00201699689598539
0.0135173654875227,-0.0550105378921114,-0.0153524684415659,0.00214933464790934
0.0114752410797514,-0.056155567216533,-0.0170019585259126,0.00238707742152039
0.0134841705886594,-0.0643198048827142,-0.0175958578999387,0.00248404910725387
0.0112451754091411,-0.0724035889231829,-0.0176869101074681,0.00212954551207857
0.00258251409434812,-0.066824206017043,-0.0156837545083431,0.000955491700002418
-0.00907205001758131,-0.0467037427491529,-0.00985022827342603,-0.00108183619687229
-0.0158806179078526,-0.0199840999719959,-0.00162299506217752,-0.00351148814057721
-0.0162647306645484,0.00594642155767586,0.00422358856658406,-0.00558215228538437
-0.0160308345179641,0.0306213293217693,0.00431355157106214,-0.00659887989606105
-0.0136165393533037,0.0483370943016611,0.00147547448276307,-0.00629831407250383
-0.00370891144062468,0.0454516807289417,-0.00283687334659437,-0.00505270529866697
0.00892499685695127,0.023077806890624,-0.00846011015293999,-0.00336599569344719
0.018592944417871,-0.00292213466350445,-0.00945743590242301,-0.00122588407401224
0.0241517798355758,-0.0317376104205762,-0.00292870753632016,0.00117217141840884
0.0253355059035045,-0.0718225935169574,0.00523888056947992,0.00278075198920863
0.0272633969663441,-0.111090556817807,0.00597984945075235,0.00310049247884344
0.03036011083759,-0.125261085381149,0.000141739648314839,0.00294262031821202
0.0262263502530453,-0.107535862979686,-0.00641841475417004,0.00300844958767615
0.0148561566845012,-0.0740717345036632,-0.0128918875326112,0.00326560951371061
0.00727057521265078,-0.0408217343410939,-0.0175476431074779,0.00352020617617987
0.0128460225520913,-0.0068694946837403,-0.0167999079534912,0.00322529715913645
0.024704498904494,0.0370478817272897,-0.00975512497193295,0.00178951757169235
0.0212551775146916,0.100869219104834,0.00181575817535206,-0.0004779681726404
0.000970350672962979,0.176674945192873,0.0134386998872155,-0.0029729746744187
-0.0143605525932138,0.227604866691326,0.0167566247836707,-0.00607579791987789
-0.0167184658411236,0.219794272412165,0.0107594408442444,-0.0105846892246845
-0.0164656596890435,0.157698401896287,0.0059990881870159,-0.0156342044289168
-0.0244832153566198,0.0741596060693059,0.00640096932788827,-0.0187154987847147
-0.0365341043315615,-0.00132014901838434,0.00465811514955411,-0.018017853799418
-0.0430671980891554,-0.0515049339960409,0.000332141824281658,-0.0138290186992664
-0.0458141331563688,-0.0775305923230895,-0.000795189134046524,-0.00773950566740252
-0.0435985647731799,-0.0919047441425301,0.000521346781188663,-0.00116816503207535
-0.0330577130020336,-0.0928389252896012,0.00192695624070843,0.00528294652724591
-0.01724645061386,-0.0736010544052558,0.00544153490198357,0.0114846776094707
0.000414903254850545,-0.0416803064133209,0.010751707899946,0.0162777201565723
0.0118230561695724,-0.011125452681328,0.0116736623040663,0.0175144040020327
0.0151136487980564,0.0139070929687218,0.00734132527023223,0.0146757481183965
0.0188828482383368,0.0464100222640502,0.00633997608725837,0.00959655507471646
0.0186870247614833,0.0847505995552275,0.0102575854221816,0.00399902812844308
0.0139404858555034,0.103750738536363,0.0103732784257381,-0.00132983548882148
0.0205866010339847,0.0997304865489388,0.00611105152753628,-0.00529841503478242
0.0320372856128386,0.091825196874593,0.00396729643904887,-0.00658414209688594
0.0220221345435971,0.0868169429907084,0.00509447457756444,-0.00443011690288594
-0.000322856965479464,0.0806201347124702,0.00826715030970623,0.00023004244411884
-0.0111196611894641,0.0698749401314645,0.00926069920301797,0.00421017741574205
-0.0155988338896021,0.0539643650558392,0.00313140500497214,0.00479706490599288
-0.0223858102517984,0.0377850353640206,-0.00278258947869852,0.00260894515985223
-0.0294222598781009,0.0218398073936161,0.000258717939811605,-0.000266683374325482
-0.0279990353636344,0.0035454627024251,0.00600820679073581,-0.00266972720572247
-0.0135498462240193,-0.0135054752065638,0.00626204741329025,-0.00424203944547839
0.00240829614139637,-0.025838724894046,0.00233470803585949,-0.00517283337298763
0.0118894246242902,-0.0396979190752478,-0.00136190430811789,-0.00536321957163835
0.0223795620786723,-0.0541754981131627,-0.00287257087170434,-0.00416314377460501
0.0365298648577257,-0.0533632274832577,-0.00556786178986068,-0.00140590289311219
0.0430997424719739,-0.0448180621321321,-0.0145110515811095,0.00237838913044176
0.0359975038127487,-0.0470314078746665,-0.0246307690374991,0.00649291353135987
0.022486270923646,-0.0534525354953296,-0.0259983927736727,0.0103223744085517
0.0103580400570286,-0.0537765244174242,-0.0186749048362101,0.013170404817469
-0.000139151667492267,-0.049462113819841,-0.00747527083258666,0.0144002034228536
-0.0125092073367227,-0.038103064039067,0.00666771286621465,0.0138580336346119
-0.0234914579286597,-0.0148615249405922,0.0211270369613019,0.0120120895536548
-0.0254363896801081,0.0116855851349268,0.027909919243287,0.00952195174503173
-0.0170871101310927,0.0272648032866554,0.0247456481962898,0.00675223824516931
-0.0064629600835684,0.0318343411826305,0.0201301813331861,0.00403614949485187
-0.00370730522915222,0.0386443079581276,0.0205787696381537,0.00175528424439386
-0.00461864640223104,0.0477481470456247,0.0243258547885693,-0.00019859832940616
0.00355086609200118,0.0485706703061554,0.0244100009117821,-0.00194507007910228
0.0188021406445859,0.0409869253924578,0.0169084837739486,-0.00302910223699207
0.0288220806494237,0.0230876867836573,0.00694063382653178,-0.00299291094841154
0.0296673659680577,-0.00491139945108005,-0.00132894513109052,-0.00196618479622299
0.0253521359048442,-0.0244285410394829,-0.00968521338864579,-0.000729054013096448
0.0161359185217082,-0.0303440069549468,-0.0194089851686089,-6.7614002322294e-06
0.00395096058975056,-0.0330223799174386,-0.0276897563591481,-0.000120168461863314
-0.00160906751846655,-0.0320885514532764,-0.0301441312370258,-0.0013186510149305
0.000988664311386833,-0.0328574275545406,-0.0271945867631061,-0.00393713735840592
0.00957652772021059,-0.0390146536118559,-0.023515137471135,-0.00751982418654876
0.0237770226990883,-0.0399474848382895,-0.0214167750321146,-0.0101110022445647
0.0360136498475727,-0.0341282086947441,-0.0199497863029652,-0.0102131585005357
0.0411519661583921,-0.0313751944035697,-0.0197296476415773,-0.00816678330122099
0.0363628020803713,-0.0369284234668595,-0.0197810692195873,-0.00505465924683546
0.0221431316080399,-0.0479367742586298,-0.0134584534265594,-0.00223837902964609
0.00766937607665386,-0.0538496477663214,-0.00209528088588472,-0.00103079939678605
-0.000267343400799848,-0.0438445811547424,0.0061602253438527,-0.00144801863301003
-0.0011011120449218,-0.0204687932229279,0.016972852076814,-0.00255699308611643
-0.0023143903232991,0.00146354830332117,0.0339583266794669,-0.00375584848075957
-0.0164567561701423,0.0128242354504739,0.0426467926512351,-0.00445562263430914
-0.0384065227376412,0.0169163608678827,0.0350022801212705,-0.00388857237057554
-0.0498273386064487,0.0217280412460953,0.0261593006132817,-0.00224934281827991
-0.0521952886516812,0.0325679013900077,0.0320110131596282,-0.0007299256763053
-0.053657480839314,0.0405181528319107,0.0394339409116349,-1.28157131098891e-05
-0.051372496325529,0.0411733859067447,0.0265863697779598,-0.000238904956692172
-0.0476194307999687,0.0531645778862044,-0.000624541989924232,-0.00157527952596748
-0.0446346030002891,0.0769188696993611,-0.018043455668036,-0.00366103078196054
-0.0362454253333408,0.0886314473976707,-0.0120295544625254,-0.00561777284050276
-0.0208136308562761,0.0877773811319046,0.0101586562522383,-0.00664431458158853
-0.00551077731775916,0.0812682632700197,0.0265651896242643,-0.00667531617767502
0.0077238277954875,0.0602815065563593,0.0211852334516103,-0.00625326247456718
0.0217852231215312,0.020367429791067,0.00221057180197985,-0.00540792213895212
0.0291481333122923,-0.0325380507238624,-0.0132553905343936,-0.0035755099593006
0.0246589917123055,-0.0742059125941691,-0.0232139159790524,-0.000853348333286892
0.0190013549587484,-0.0846502257478813,-0.0302943710488619,0.0015104714501103
0.021020270759965,-0.0745050188305012,-0.0272774383305999,0.00249339522198397
0.0210271576350627,-0.0591618601199815,-0.00917748875886661,0.00218493597132178
0.00800792158966843,-0.0448811826826777,0.0177570109586563,0.00131461334391345
-0.00601208236588078,-0.0390528679753705,0.0381088556365933,0.000491067962076885
-0.0087176466482462,-0.0446034013827202,0.0403862077890849,-6.01874245660366e-05
-0.00688745006527499,-0.0471054082126108,0.0297124681051383,5.39818089332744e-06
-0.00841780310780193,-0.0295909039718441,0.0173147186149558,0.00068863508496397
-0.0164255428143137,-0.00270023628158223,0.0096288462654094,0.00138429647550716
-0.0256112338384727,0.0132915513123132,0.00907877738589556,0.00179815366555066
-0.0297308591463051,0.023176643867659,0.0124154314810004,0.00195225890097054
-0.0345772996819496,0.0420926165873646,0.0141352115867124,0.00182913957994727
-0.0416611732470975,0.0712254223411193,0.0135036154383504,0.00153248935453378
-0.0414682028195644,0.0980029956155292,0.0148243372049926,0.00123683604350074
-0.0308600866882077,0.104404452553289,0.0196413263626073,0.00139507250444431
-0.0188574490321588,0.0835641223293857,0.0201288647696432,0.00294377778021521
-0.0125759684714858,0.0501278482570896,0.0107814319474919,0.00644918771604958
-0.0147040651993615,0.0213655706475803,-0.00387466012683709,0.0106537642024863
-0.0269582147556489,0.00185406206229202,-0.0160660728201768,0.0133273600180889
-0.0433716550546164,-0.00813582474117152,-0.0174628353726197,0.0137427996111896
-0.053918308151309,-0.00846021873198478,-0.00684316838791321,0.0124139761634899
-0.0570460382374135,-0.00160197031224103,0.00180055899725922,0.00974907451376399
-0.0558179973275987,0.00827772780629463,-0.00204103576838516,0.00614416719474826
-0.0500065347136315,0.0171557096765339,-0.0123880090282448,0.00241948637120987
-0.0371135286565432,0.022868446006091,-0.019754268991267,-0.00026971440980827
-0.0106657573769557,0.0249636647413783,-0.0199897018726977,-0.00138598909431855
0.0231708319426728,0.0262493095702671,-0.0131233387188336,-0.00164097943761242
0.0426975121281039,0.0272182103952054,-0.00247091007713302,-0.00213824899605867
0.0526759742000121,0.0248819228547496,0.00449366057464802,-0.0030299002731897
0.0633315833183801,0.0184724200498853,0.00542203940452909,-0.00370127741220689
0.0511675265439453,0.0119581675076023,0.00453799095973757,-0.00377276504644198
0.0160669717845643,0.0157311965873967,0.00432062486987294,-0.0032195785042589
-0.00819989742252712,0.0305335112198244,0.00349777875827262,-0.00232496470945058
-0.00630548227946843,0.0423378067179976,-0.00290475036942965,-0.00135328538064071
0.00869711155495183,0.043309034628686,-0.0105116037577688,-0.000138719732025032
0.016166900704381,0.0344074768136879,-0.00804627373552338,0.001387790357905
0.0114234842450466,0.0222133213944385,0.00421284033030476,0.00240674583382276
-0.000704874533427845,0.0129112584363476,0.0166761726935122,0.00192828200790806
-0.0119611656541865,0.00401418952064433,0.0172799858823722,0.000269952239928762
-0.0147902321060623,-0.00858242316818896,0.00267730256907728,-0.00150754564079688
-0.0128629869126764,-0.024064862195657,-0.0150327027580632,-0.00263319723985073
-0.0112174888254271,-0.0311075403886902,-0.0240722507130953,-0.00268543395542413
-0.0130375582975753,-0.0267659525228055,-0.0239619971490512,-0.00178845612155836
-0.0167283850965265,-0.0223253441578234,-0.0198254114223846,-0.000665101785231899
-0.0148439393399974,-0.0213265878832271,-0.0155255434968106,-0.000162938509834628
-0.00807491630563572,-0.0196663682114572,-0.0111419971298203,-0.000797113064668287
-0.00207975622898131,-0.015718775522921,-0.007715613641606,-0.00262447611934107
0.0060850234675592,-0.0134898022102909,-0.00689527680685408,-0.00490589586046572
0.0218139063460465,-0.0122923311301069,-0.00529238378127945,-0.00668381482566187
0.0366799627881131,-0.00806066172291409,-0.000516856595235789,-0.00787693195777315
0.0379497914875196,4.68302744522503e-05,0.0043471441876239,-0.00823969990118431
0.0263770283451737,0.0116688070388981,0.00558091827376775,-0.00663270603465962
0.0135267637757405,0.0150078011464625,0.00350992319309934,-0.00328895018319425
0.00815782600080023,-0.00127504641304397,0.00353312183540005,4.33042180338437e-05
0.0114882342839429,-0.0257830381396191,0.00743851383269159,0.0028533161548129
0.0231818446727774,-0.0313103798986943,0.00993691151352248,0.00507447111288596
0.0369487186796338,-0.00971182170441362,0.0108619422611232,0.00543391657001655
0.0437847082418381,0.0142614753402772,0.0137936878840473,0.00289892508471488
0.0473429330886892,0.0190141738391815,0.0156742255324471,-0.00219597717488602
0.0517735107474565,0.000927979984028778,0.00972051245168728,-0.00777895186422603
0.0476706877286764,-0.0259327864190375,-0.00187292594026726,-0.0111133274230837
0.0318566563715357,-0.0387291048322552,-0.00868216549149623,-0.011639996284785
0.00970957100165536,-0.0374986930277113,-0.00879302184143263,-0.0111359917102592
-0.0104483937178051,-0.0355904711564294,-0.0115388280248372,-0.0103088233821933
-0.0164828082234447,-0.0368282171003596,-0.0217530597080681,-0.00764643408073817
-0.00565217281757589,-0.0340318297080354,-0.033975289167929,-0.00193674838299376
0.00977246771193769,-0.0172390880789178,-0.0443379014792805,0.00575724879816216
0.0167974682420221,-0.00296194663265229,-0.0508631842980349,0.0124435145433348
0.0185133287489542,-0.00702784439735684,-0.0493549787854804,0.0155171139375443
0.0199836441274214,-0.00743243222313245,-0.0393152567788943,0.0151635314205827
0.0205313065065913,0.00980114653598998,-0.0226458494040882,0.0138744453024806
0.0158221276484186,0.0316884323607716,-0.00128091038342751,0.012350139339282
0.00186220607171447,0.0472794291735588,0.0178150086030338,0.00847772423847188
-0.00239405872530341,0.0509139301773323,0.030053595418711,0.00178948853070844
0.0154637152297058,0.0347631659077585,0.0373010817385498,-0.00536112124178283
0.0272658026086085,0.00289029003810964,0.0393527057184676,-0.0103553865209996
0.0106087711154197,-0.0239934489900918,0.0347119587280536,-0.0115101063067745
-0.0130947475665653,-0.0310021668914247,0.0225465944947183,-0.00928394340244884
-0.018706875123182,-0.0224076761037382,0.00583176883272651,-0.00628741366193433
-0.0120258897295815,-0.00717956501779861,-0.00682835942846046,-0.0050389061667558
-0.0101680004624347,0.0121776947847713,-0.0128876222457103,-0.00618539984583965
-0.0152838050026319,0.0279793331907566,-0.017334936792917,-0.00839659491806629
-0.0158159955032642,0.0287648878731324,-0.0219667782863557,-0.0101526207125631
-0.00993490162697717,0.0162554283068857,-0.0250685845870506,-0.0101797539758043
-0.00241566128141132,0.00616200175133979,-0.0216494432954306,-0.00609444873020608
0.0032173640847919,0.00408096332732484,-0.0111743521916417,0.00294523187821154
0.00136854907697984,-0.00345231122127505,-0.00367352053277508,0.0129197618676824
-0.0110331829494742,-0.0163201425184699,0.000153820221188355,0.0184071278965287
-0.0303352366441016,-0.0210033014456422,0.00587473435807484,0.0177847735602538
-0.0422992638878888,-0.0173825848169602,0.00739505512178,0.0132060923638246
-0.039108122157654,-0.00989866523688725,0.00382499652344094,0.00803830514455711
-0.0272754058890906,-0.00132377023241122,0.00364093836484563,0.00456922761260428
-0.0168003093656476,0.00134159623783728,0.00736016724592355,0.00278351290067405
-0.0140082917299964,-0.00646939606780697,0.00898007152377743,0.00118208499893495
-0.00752529995239104,-0.017316737769407,0.00748157662282152,-0.00108890343574463
0.00707677516353021,-0.0210225497330506,0.00762792760168315,-0.00253202865593526
0.0133720692823354,-0.0178456709895301,0.00959152575859216,-0.00197891174711364
0.0100473823375302,-0.0133708824766317,0.00943663176176864,-0.00163333238816329
0.00425400191958987,-0.0125555933007707,0.00855381092837757,-0.00381986891848263
-0.00327233117560974,-0.0140864926554737,0.0104499190424122,-0.0078882686631793
-0.00662657926514825,-0.0129443146552382,0.015206196300553,-0.0116636294120745
-0.00731386587619965,-0.0105379104306283,0.0199590595307459,-0.013708640646272
-0.0143377572599986,-0.0161667371839624,0.0197153200938406,-0.0145974429665627
-0.0217574538551693,-0.0398977568047537,0.0160062590398933,-0.0156604714882454
-0.0186505066955378,-0.0711973270720174,0.0184498735996759,-0.0165642076493831
-0.00596238991269322,-0.0837145491449762,0.0268908600524798,-0.0156587618731797
0.00717017286682563,-0.0734786851031206,0.0306019429524617,-0.0126360550758878
0.0107547298107574,-0.0591234063499209,0.0291174905320497,-0.00960113638806722
0.00610838684588701,-0.047051860973923,0.0297205076799093,-0.00729424284497758
0.00286711048264453,-0.0377348620253171,0.0268034837160091,-0.00222001867549742
0.000843785312278994,-0.045123910952851,0.0128245581752256,0.00756401452930709
-0.00529862744927354,-0.0682733726619786,-0.00297748433274066,0.0178336696756247
-0.00600577569570937,-0.0830570061125559,-0.00824951557733176,0.0234654937050452
0.00853345727086374,-0.0755518140236637,-0.00392511100100649,0.0233642165411328
0.019892586588037,-0.0500787345956154,-0.000884115657404929,0.0191418200058809
0.0130476293206819,-0.0184448347445653,-0.00407294368696899,0.0130100152844376
0.000882391809838762,0.00967494611814514,-0.00612360766454982,0.00662332937070981
-0.00320419535710298,0.0297810392650864,-0.00184191743213385,0.000537160629862088
0.00987251017328047,0.0352672285109997,0.00162043050968098,-0.00511048411371356
0.0345846761399519,0.0252824588935732,-0.00112425152572166,-0.00911327909189492
0.0474260045078342,0.00884783296666904,-0.00643919120346401,-0.00986963617305701
0.0415885297076569,-0.0123156387020162,-0.0118773591364835,-0.00798310058841388
0.0295414248243191,-0.0357151367560533,-0.014178335449,-0.00481916072173413
0.024355432672817,-0.0432895799257016,-0.00881578236541314,-0.00119477370828603
0.026510054871323,-0.0246172302179146,0.00235472442887123,0.00079766297085787
0.0233793645783947,0.0100039446504958,0.0133006460296763,-0.000474337993629005
0.0132574838099342,0.0431550058039739,0.0195756701801609,-0.00325716248972762
0.00408148780006906,0.0524549109011721,0.0194300468716935,-0.00438816887327875
-0.00455496144470971,0.0321350878532124,0.0130618445456777,-0.00152712511120783
-0.0138076357533446,0.0077089109930414,0.00277646486213565,0.00632139444440287
-0.0210886302579525,-0.00171710805294527,-0.00569719509758776,0.0164323258025559
-0.0204393364485,0.00357712290042564,-0.00650270813275107,0.0229423936402033
-0.00456908380052985,0.0151744416538032,-0.00257887627775485,0.0215193657554501
0.0182623417680667,0.0240918460421016,0.00250844300578484,0.0126392679322905
0.0299877912823852,0.0260978651617627,0.0104808308350674,0.000305359080219673
0.0286539517107331,0.0225012955278764,0.0173165527711226,-0.00990759427941717
0.0233232601566923,0.0199718379483431,0.0155931629274653,-0.0113810280652545
