-0.0793384157015977,-0.0833195242557293,0.0219793109653152,0.0020012548888356
-0.0658208501575004,-0.086932592606789,0.0190627088339662,0.00277596927741093
-0.0339267494054345,-0.0383563913105497,0.0187522367083119,0.00252968359253021
-0.00885187665027323,-0.00736007523071344,0.0145763922593937,0.0029168814080731
0.00541464312970401,-0.01491373388482,0.00486874246755764,0.0050595302983915
0.0193017298789034,-0.0250091643984326,-0.0058797503279677,0.00767870412944467
0.0330426582731512,-0.0176713684903733,-0.00664923408400713,0.0092657044011081
0.032680120997336,-0.00342143699578159,-0.00069945149602217,0.00870501063530304
0.0124512885955579,0.0113718490167984,-0.00400399932967494,0.00572387812447041
-0.0206265822331983,0.0331581719863436,-0.00817241627098602,0.00253223254826274
-0.043027485035797,0.0429471173788181,0.00171550198989687,0.00085504988251768
-0.0385366749534722,0.0273734586946638,0.01255791326958,-2.0057354905254e-05
-0.0263389948178158,0.00173285937988976,0.0114127755031067,-0.000678557245200105
-0.021562277271012,-0.0173983800723576,0.00730356974825832,-0.000838268208672372
-0.0149609397730456,-0.0244297541593351,0.00984000157808483,-0.00166474703275042
0.00106647542525949,-0.0263771338355734,0.0151093903820804,-0.00459426895068517
0.0206246373268932,-0.0245094216134018,0.0171115294533669,-0.0079650578483624
0.0256714307205159,-0.0206691167128784,0.0181441567904787,-0.00892486201321891
0.00611109932569481,-0.0260956741835321,0.0225736626141012,-0.00690703357152479
-0.0236031521781398,-0.0491787514757393,0.0290284790821112,-0.00374689802606608
-0.043839264051376,-0.0793267329459791,0.0316126474693994,-0.00140018105640317
-0.0547719629493202,-0.0921502209733979,0.0294850531483221,-0.000271873623946949
-0.0686899533579637,-0.0818498189031567,0.0285971863292406,0.000124771919043106
-0.0837458588258559,-0.067605006100284,0.0282186707559188,0.00024358818464041
-0.0866320321439473,-0.0623940713198566,0.0252836701992912,0.000494765883710692
-0.0710125665648922,-0.0552839080171303,0.0229614058239222,0.00113697013496341
-0.0418587684781253,-0.026734484049872,0.0225863758526379,0.00214020768797477
-0.0159290093188814,0.0161109616672495,0.0237850880302558,0.00390945875118143
0.00291288493613326,0.0357570430175395,0.0293306355114996,0.00748720622710748
0.0233070436941483,0.0258370529005889,0.0385914400969198,0.0122020815257979
0.0264817706851807,0.0190613138302521,0.0410100040403699,0.0144338508433668
-0.00106975738459345,0.0227803171526232,0.0328954477482065,0.0116881115872262
-0.0264290354591692,0.0172808609106056,0.0268418866372772,0.00545406348788332
-0.0264685007438191,-0.000109450551636924,0.0263201785166149,-0.00180600742855537
-0.0197287472184544,-0.0156109833475122,0.0231489841949701,-0.00850465063608118
-0.0136998792692208,-0.0194502738542876,0.0212803714749996,-0.0133105866902442
-0.000122297094839825,-0.00740167626800991,0.0271245276614144,-0.016132429121301
0.0138254152592478,0.01777899919743,0.0359681327660281,-0.0178273508958793
0.0201004488373185,0.0438345403558213,0.0395757959427289,-0.0178928767989114
0.0160015208473126,0.0511996975505353,0.0354459173165135,-0.0148629568809555
-0.00067598834177128,0.0301170290464106,0.0309386177209816,-0.00879587227560625
-0.0220557316047139,0.00404297344082961,0.0318561702953845,-0.00180088005343086
-0.0383478018111716,-0.000800509143578272,0.0337820148630837,0.00386188903831013
-0.0504349900705213,0.00671652006799866,0.0311132638664955,0.00726133604523119
-0.0593719584911772,0.0167508276040211,0.0278134345738337,0.00847337905109534
-0.056942045045971,0.0432230468343177,0.0290726882295906,0.00799555554596143
-0.0378530680429494,0.0816089103633233,0.0297786438570841,0.00644026135794164
-0.00960358293602489,0.0964240691575293,0.0251756190723358,0.00482470187474237
0.020457807680523,0.090183156752579,0.0210338182102229,0.00429139069933573
0.0476760236601392,0.0887693398546362,0.0230666773178614,0.00471868650825516
0.0601944750094642,0.0819439310279523,0.026654636163374,0.00472074507246605
0.0520916013294694,0.0590005277020656,0.026477772575651,0.00340562126487483
0.0323494976848806,0.0199167947592505,0.0222617428196846,0.00147745665715253
0.0107611447756659,-0.030977967512473,0.0152708372859377,0.000293476467485064
-0.00832171649717786,-0.0620221477479388,0.00961818748055917,-9.05263713465556e-05
-0.0208361281582354,-0.0538406052868353,0.00830544566235127,-0.00108078095917543
-0.0222487549470068,-0.0383313320457222,0.0101016726007481,-0.00318136290385021
-0.010809581607484,-0.0394515254978516,0.013967041056562,-0.00501306692923514
0.00855777651139054,-0.0480522748927303,0.0184543344627142,-0.0053851652266436
0.0280848888894077,-0.062767664942575,0.0188543598190282,-0.00460666672990223
0.0420266628483671,-0.082212521958812,0.0123492792409645,-0.00344103938908463
0.0417000895315159,-0.0949887531753116,0.00745898726579103,-0.00222173734148494
0.0264426700733617,-0.102308048044883,0.0109423374206973,-0.00138395189776774
0.0125516030912256,-0.0815304844441234,0.0150096041399979,-0.0012563216906292
0.0122283734974326,-0.017469315302161,0.0185572008753662,-0.00109731117659283
0.0215620689532112,0.038839043265479,0.0217583603309043,-0.000454160503468354
0.0271634520859874,0.061845526158487,0.016394425108343,0.000142026361539607
0.0212604231884051,0.0777198029585649,0.00618015894825203,0.00101844789679081
0.00977464699700058,0.0909782243579402,-0.000248966380787148,0.00310081768484574
-0.000156385336324977,0.083681489318088,0.000180887911266095,0.0058875081204026
-0.00638045096596073,0.0507192045835585,0.00544918586423774,0.00746293758297068
-0.00859091124132196,0.0120578654314221,0.00767714892480919,0.00670482271091852
-0.00747800778816756,-0.0106999577147614,0.00706526867515726,0.00466556956782352
-0.00510953974922892,-0.0194281117623345,0.00927863907240917,0.0028836032150347
-0.00518816854868322,-0.0179462526049728,0.0128829173390365,0.00139663947325727
-0.00923054315100543,-0.014867824931162,0.0129517809595808,-0.00070353167570689
-0.00962885008879096,-0.0285863729816423,0.00741984603214408,-0.0034765636746647
0.00141871392904531,-0.0512385651693005,-0.000780395833817216,-0.00559008867593478
0.0148048884860295,-0.0677498269005045,-0.00522472620653876,-0.0060629956168571
0.0191064639015132,-0.0735568521472062,-0.00244928196416489,-0.00539019156833465
0.0207262678454036,-0.0595410638874291,0.00193347479745553,-0.00487073300702513
0.0250575380732021,-0.0387862466410578,0.00314068162985305,-0.00569260733872183
0.0261956140389225,-0.0367750486550632,0.00216614442972149,-0.00713607869568947
0.0248097761628762,-0.049412938238186,0.00149856842659957,-0.00677909319546122
0.0237583775969139,-0.0590743256878437,0.00104512914720357,-0.00347030503423566
0.0132465955078831,-0.0675965686470469,-0.00398859786767715,0.00179906543649978
-0.0178309053728871,-0.0701815817534282,-0.00912049769749051,0.00704784513659472
-0.0549461653682854,-0.0499082513640549,-0.00481313032379707,0.0101555322697411
-0.0684971326373541,-0.0202920527261904,0.00271243159595769,0.00957283147935423
-0.0583174819441029,-0.00860928260083038,0.00251580705233153,0.00582761294024977
-0.0452341852313387,-0.00651269791443422,-0.00101124251698056,0.00178995077657352
-0.0334996291195839,0.0185471778262388,-0.000904906848388156,-0.000135523050456872
-0.0102388086394726,0.0502932623912591,0.000837940167952583,-0.000177129488605072
0.039577065638781,0.0521902740030243,0.00428482365995281,-0.000262663330391726
0.0885438045563208,0.0434263842242254,0.00969444781578386,-0.00211786081374356
0.0815736825917455,0.0480162893215195,0.00995293276934021,-0.00541431283014475
0.0296735276670569,0.0580394085515847,0.00239434154679648,-0.00691402256050594
-0.0104578388835366,0.0600087298959201,-0.00392744927324128,-0.00431260227618526
-0.0198883110586004,0.053047240040394,-0.000217427987318136,-0.000469847444844906
-0.0103950466466126,0.059657578883805,0.00833876586610727,-0.00041046074455861
0.00351440094686012,0.0878802419581489,0.0137592344230433,-0.00495709022650473
0.00777859137595351,0.100832461790119,0.0191797501630926,-0.00950102332593929
0.00327887839458704,0.0833966379103106,0.0205767064055988,-0.0102075751349927
-0.00406651496011814,0.0674603294864272,0.0128567795604699,-0.00857087902595497
-0.0152696982811103,0.0656151362090963,0.00669757529299078,-0.00732084173919201
-0.0228391963364871,0.0606668921472876,0.00629538964965483,-0.0056339137531104
-0.0211166046460296,0.0178299518961209,0.00215364905279507,-0.000594414348967804
-0.0158847585942074,-0.0763923512890843,-0.00548528413545044,0.0081507601592075
-0.00509633786359677,-0.153955162097784,-0.010029587452187,0.0165149174413808
0.0177026674964415,-0.13140616359722,-0.0143792713302344,0.0195075436704934
0.0404224741502449,-0.0240154653000282,-0.0166711127374575,0.0162114622520637
0.0419690911508994,0.0809484704527932,-0.0109039882716505,0.00976585755688353
0.025032848334173,0.12971811594416,-0.00643522403483934,0.00330373651473334
0.0134667690061975,0.132681175269489,-0.0114267306680813,-0.00116381659037404
0.0130166333143504,0.117906589465775,-0.00906272313601244,-0.00264671901596878
0.0142289075030868,0.0883211804348343,0.00433592336122672,-0.00302896344146265
0.0197283921834343,0.0476239267190177,0.00434059306070204,-0.00476728335483466
0.0275796157920324,0.0214126510857024,-0.00828116166726273,-0.00699885121725792
0.0274847867096353,0.00507683002216015,-0.012491215964458,-0.00730455083706807
0.0207631495306824,-0.0319041295482179,-0.00569066582988382,-0.00516063943108999
0.0163321387070969,-0.0806970820936711,0.00363723815142149,-0.00223315896786564
0.0173020383974356,-0.104041262128356,0.0105749554563053,-0.000311769337622642
0.0172883265661695,-0.0872027422388314,0.0141048280745075,-3.03253333712534e-05
0.0119473551385738,-0.0512504044071392,0.0123044594004613,-0.000693019441999019
0.00600138557818579,-0.0239998483921817,0.00446238168678079,-0.000467659004281548
0.00239717474198577,-0.00840427251350183,-0.0043271187440824,0.00163794050777977
-0.00276906477777405,0.0016961576231637,-0.00858448826993686,0.00435254305489912
-0.0121840267393181,0.00579981808741982,-0.00678974367553601,0.00589319606324065
-0.020202455987176,0.00227052441865558,-0.00373024596531688,0.00571605480517538
-0.0190302318220711,-0.0102080376647064,-0.00395077278160007,0.00432071475911598
-0.00345156601464886,-0.0273322214042459,-0.00519838319692786,0.0026231349818152
0.0266714820293219,-0.0385631747154323,-0.00639505748955265,0.00114162018371068
0.0503262501400292,-0.0273086025834734,-0.00767778283599342,0.000136779173403392
0.0467877866364108,0.0147676821665942,-0.00386075583932775,-0.000383175220519041
0.0315272789800704,0.0646618460866534,0.00406529472869709,-0.00194428795998615
0.0268387873982348,0.0810011070869502,0.00346742141624974,-0.00529531712401669
0.0289778065440142,0.0642211189291023,-0.00657251305366537,-0.00776888191886606
0.0269592151195109,0.0555624246179492,-0.0151087098791224,-0.00641778144622194
0.0225743764866327,0.0613734289781699,-0.0198385040891006,-0.00148822959904776
0.0220195789995076,0.0550235262938978,-0.0229294610997066,0.00439410922329805
0.022747413688196,0.0353488130888294,-0.0266849021294999,0.00877676748228298
0.0189382507043396,0.0173461209363666,-0.0301306159978577,0.0107060173296763
0.01155315132271,-0.00504741265188344,-0.0284477735662207,0.0102732978677178
0.00684028004976344,-0.0426487418584727,-0.0198445104896216,0.00803948062965388
0.00750099665885082,-0.0777694225782734,-0.0102334751915644,0.00539245405600541
0.00751659513456929,-0.0846117362425411,-0.00979818743999012,0.00381369103535263
-0.000359061148028299,-0.0782471408840926,-0.0151498886643416,0.00379797649315023
-0.0132353991919678,-0.0892754042860136,-0.0165466582492296,0.00470828289168664
-0.0194193899936931,-0.114387059667529,-0.0160083247058035,0.00514910143022976
-0.0121353004854043,-0.113584870178157,-0.0189475775481629,0.00405069009014214
0.00270929705760348,-0.0626008223891359,-0.0222330347941215,0.00148603642533852
0.015763539237752,-0.00538218328912951,-0.0207261564907965,-0.00144007478225907
0.0242684012169196,0.018009713937585,-0.0166197871516691,-0.00357244629019063
0.024103673641088,0.0390182889239222,-0.0148794199800484,-0.00430475091026325
0.0111747011229532,0.0782194553238273,-0.0164738555893327,-0.00375914915378428
-0.00226960154659847,0.103240630835756,-0.0184624476938039,-0.00329799309311143
-0.00123754466630524,0.105636427729862,-0.0197506930971513,-0.00493837767147497
0.00806893163168502,0.104934982715706,-0.0235141633357224,-0.00908214179212082
0.0141464727747295,0.0956949238760968,-0.0286498587885269,-0.0131290489964925
0.0171844534391558,0.0661966818047742,-0.0295302138782928,-0.0130888684109813
0.0215770101259138,0.0286255520885849,-0.024252759497866,-0.0072135330275239
0.0268856880934058,-0.0095083370364531,-0.0187733122820342,0.00178616411830533
0.0258200608672344,-0.0554807164234681,-0.0168415207122345,0.00963853214773257
0.0150021831516829,-0.0991399701154463,-0.0146214810685887,0.0142646480448827
0.00167679216434613,-0.127401208177617,-0.0161607738046258,0.0157074442410377
-0.00284344160845695,-0.143869456001415,-0.0251232434105649,0.0153393379427561
0.00199239021577588,-0.141756751519375,-0.0311925767064803,0.0143504286621053
0.0080104853839729,-0.112844714654849,-0.029424277974064,0.0116291856857367
0.0116404451985742,-0.0774024344095803,-0.0266261692274462,0.00550461795952599
0.0127192548559829,-0.0657533464835469,-0.0226202141301895,-0.00260307011388109
0.0117274979127998,-0.0703775569866439,-0.0128428603255577,-0.00893938209213506
0.00925834046469117,-0.050364799591575,-0.0035837202884504,-0.0116207260429384
0.00570998497796958,-0.001085879184912,-0.00754806116077347,-0.0111866144683306
0.00179092900632137,0.0405291802513712,-0.021031681503883,-0.00797775531364196
-0.00173562055050526,0.0575639225081861,-0.0252287075981214,-0.00315629031666671
-0.00693449800872747,0.0605396525520621,-0.0170143125109218,-0.000167457673774822
-0.0239360318906677,0.0584377989613806,-0.0138074629145096,-0.0010667308665825
-0.0513227981772552,0.0664652592100652,-0.0220873575245736,-0.00344120387096397
-0.0651190958946681,0.093744244847222,-0.0293872128059901,-0.00401860945174931
-0.0572600586870646,0.121618725356063,-0.0274352401089646,-0.00315733867238361
-0.0485297262303508,0.129730110240895,-0.0157815338697257,-0.00285235115646204
-0.0444024431850356,0.108655476885935,0.000893428662058458,-0.00333697388671036
-0.0217460871813335,0.0680614183415025,0.0103844267997681,-0.00418558178663593
0.0241997986830065,0.0309999747690491,0.0065400271360462,-0.00528819196038911
0.0523141947277782,-0.00192702721848348,-0.00396871436914193,-0.00567697987316828
0.0250211774628687,-0.038133902156615,-0.0101006348784735,-0.00425894273197045
-0.0185161018896827,-0.0724334236902137,-0.00837510020810389,-0.00142170872004186
-0.0169934627005605,-0.0879252868882256,-0.00890712521498664,0.0013995041344696
0.0077237946876796,-0.0557375846937985,-0.0153975086411379,0.00348480664606911
0.00216164702760143,0.0107052281610813,-0.0205919701080574,0.00533790686454487
-0.0281255392305091,0.0531045870420748,-0.0149223919096561,0.00689856030519481
-0.0458861778172567,0.038798324048216,-0.00162851219253854,0.0067887883589444
-0.0339521926642309,-0.0216204337324321,0.00147135399618773,0.0041124805481399
-0.000647994359138586,-0.0886158435337752,-0.00583007345120915,0.000155578348321519
0.031486475960742,-0.106429484191087,-0.0121503647778579,-0.00241907842901977
0.0450457355599233,-0.0497228263217762,-0.0171496325735961,-0.00240846150980661
0.0386147846704671,0.034195699016528,-0.023366281454229,-0.00131050221845956
0.0229041129196528,0.0846787443611491,-0.026779496521329,-0.000866150242502814
0.0137981833016073,0.0916310965811275,-0.0248040881345814,-0.00128274863318909
0.0147582975363544,0.0871822012930728,-0.0239786823250998,-0.00248661237243158
0.0151174467158891,0.0949783897504066,-0.0271706826866765,-0.00446874463737767
0.0112944882935663,0.0912306961639264,-0.0253554631063747,-0.00653151833966199
0.00882142179799826,0.062012483289276,-0.0143139873786353,-0.00751810698321418
0.00931380846113479,0.0389358697618304,-0.00190412035975836,-0.00691891699702953
0.00622418691845142,0.0352629376801462,0.00214640534030506,-0.00482435218238284
-0.00542875054414757,0.0261880997395645,-0.00196481018986842,-0.00172521255854401
-0.0159374741739518,0.00614391190459177,-0.00283023182107898,0.000832864127900001
-0.0113495773407664,-0.00596750646256791,0.00150898167192843,0.00172455953700496
0.00737697471823733,-0.0116597522306937,-0.00128919302471234,0.00210464864989847
0.0298059631785771,-0.0208543098008871,-0.011773022330351,0.00406677752060238
0.0454030284968615,-0.0271632123222641,-0.0180815503563037,0.00744834760447842
0.0461997748997302,-0.0303570985508598,-0.0179156593168106,0.00963279621902209
0.0346267485328355,-0.0341877598346315,-0.0157634655479837,0.00918670805267111
0.0236834242062601,-0.0485673684105071,-0.0138386437722918,0.00707340833664657
0.0204441133211274,-0.0817020168122744,-0.0167471806747617,0.00438353121806118
0.0194753278894445,-0.0976131470017539,-0.0234294660080549,0.0017357956819845
0.020314513549387,-0.073378628325588,-0.0270418320033796,-0.000165750067653825
0.0295997691457296,-0.0419383722691628,-0.0265883837249215,-0.000941469917381625
0.0399665060606863,-0.0236915863191738,-0.0242505100519612,-0.000974141054764158
0.0397525063196375,-0.0180748154864354,-0.022855415488266,-0.000965944838095511
0.030917592491409,-0.0307812314630951,-0.0226888282535937,-0.00122388216017613
0.0209980605309004,-0.0500475163273896,-0.0215172094377976,-0.00153155517830564
0.016331232799128,-0.048645244557038,-0.0187313105569758,-0.00159487460897451
0.0171601884109548,-0.0245664826091198,-0.0171121170300651,-0.00141606360095281
0.0226810669372645,-0.0112478324116427,-0.0169529410274103,-0.00052654545132341
0.0325157367113833,-0.0306617795500274,-0.0140716924419283,0.00158834010247695
0.0429344139908464,-0.05566591110788,-0.00827118559324661,0.00404912269587298
0.0455662194216863,-0.0547474688968043,-0.00202231325540251,0.00495841434116148
0.0312718487456946,-0.0334446939359058,0.0036060465654998,0.0029659882280349
0.0109856795134887,-0.0108358283594572,0.00491884838703471,-0.000635043826524305
0.00418959288855581,-0.00179720468499369,0.000490156398371615,-0.00275693220285747
0.00692965658176452,-0.00505349007157896,-0.0061938848142042,-0.00214891215153403
0.00465008753331633,-0.00548045801219129,-0.0119401580536653,7.44984913270403e-05
-0.00339720262108254,-0.00352279935033284,-0.01613839872549,0.00222328517568066
-0.00870297152440694,-0.0061378644089977,-0.0225379652449306,0.00317972506413149
-0.00860390803077212,-0.00638676815578847,-0.0292699512941296,0.00272384085665295
-0.00804443045537527,0.00265690519716283,-0.0284991214190583,0.00087542745895291
-0.00753357784020741,0.0184469846001554,-0.0194948037957452,-0.00189403481321566
-0.00110508122802391,0.0309072627241889,-0.0048718862487154,-0.00449031859643116
0.0110927241092169,0.0377908105209091,0.00755556045054783,-0.00706912372887662
0.018510777617895,0.0445584168683041,0.00415426782021401,-0.0102174523408238
0.0126077435311714,0.0456678425930637,-0.0117452131484513,-0.0114635862758522
0.000873367618157737,0.0346261641994739,-0.0220224558401977,-0.00752854349411091
-0.00178699549014291,0.0167113080148208,-0.0203377706558235,0.000776595149152914
0.00182787939797003,0.00352433269410821,-0.0122744619823956,0.00954062359694384
0.0018096375672942,0.00966711211817811,-0.00371164103112287,0.0151497302096331
0.00430721053858319,0.0312745428896234,-0.000139236195769606,0.0155885846540511
0.0117375899333631,0.0427763017165283,-0.00598276861767939,0.0111535710726008
0.0103719780011777,0.0379207857067422,-0.011201054155242,0.00497111454692699
-0.00477492983721058,0.0216026278284468,-0.00489904299216563,0.00012753814087807
-0.0256415993700383,-0.0103287985490391,-0.00265354365513653,-0.00311791314519209
-0.0457362647079014,-0.0373719490399664,-0.0105130782020624,-0.0053103480592235
-0.0558158207403143,-0.0295480350272154,-0.0111648970456583,-0.00620080239524766
-0.04803888836544,-0.00353973656762783,-0.00349663007267767,-0.00612382318509303
-0.0271518940781129,0.00995781522652955,-0.00198500251933196,-0.0062289827384598
-0.00173356171739349,0.0130135268387081,-0.00813174533618061,-0.00665150600226797
0.023050618612408,0.0125858943223894,-0.0138123704867501,-0.00637545138801633
0.05074926185759,0.00288528806471922,-0.0157078685409095,-0.00502608466931196
0.0748333410615027,-0.00876614514935123,-0.00988811474365808,-0.00347008841974274
0.0706759080049743,-0.00723230430224328,0.00250464735376293,-0.00259375758459249
0.0407026990818186,4.5196612679899e-05,0.00950164167375302,-0.00219184194897158
0.0141327729785939,-0.00224842912089298,0.00583990378127722,-0.00165021144107794
0.00209007407661018,-0.0144161654379176,0.000610956253135009,-0.00110645279555769
-0.00108059877984756,-0.0175099156941489,0.000108572130410699,-0.000829736116436345
-0.000954691926755256,0.00573640060262216,0.00242302224237713,-0.000437543910029311
-0.00509868880628946,0.0352745871903729,0.0056781284111317,9.12962797489109e-05
-0.0203753897389811,0.0409763033655407,0.00592574522661378,0.000181827191686958
-0.0460630236398499,0.0281447778250855,0.000660517312849834,-0.000180946727830772
-0.0634070996366081,0.0267019882266962,-0.00204385971695237,-0.000330938751522755
-0.0568109234830187,0.0478826606661968,0.00267825115768741,-0.000118434965577497
-0.0393413747378932,0.0711876510138917,0.00531879985997222,-0.000271780059577326
-0.0266855802797786,0.0791177589001839,0.000719251810480024,-0.000999694652997023
-0.0175116412039736,0.0675960291818765,-0.00489717958148844,-0.00118116730806293
-0.000158342142732353,0.0417018048516119,-0.00649629891853844,-3.17489478445759e-05
0.0194907770986199,0.0179584452512335,-0.0026073722490142,0.00124072744416287
0.019623519810155,0.00525736579257927,0.00464400735378755,0.00116454996672506
0.010547798942136,0.000760679941716517,0.00952237404627572,0.000147022505874465
0.00907017353556532,0.00349083499808452,0.0093069437827619,-0.000980304601249692
0.00876177523330861,0.00398729410093848,0.00759107686215097,-0.00205169804526435
0.00564179570926474,-0.0101873921887292,0.00637271561300863,-0.00277153777960419
0.00367561842703757,-0.0221312467715131,0.0034429016194632,-0.00305380718232499
0.00634803634603359,-0.00749950251540687,-0.000825397546296957,-0.00302265990841731
0.010645940424918,0.0178844965431719,-0.00792414826723559,-0.00251182110981024
0.0126408117924835,0.0235588374924309,-0.0156389499555702,-0.00143300735599417
0.016645935932092,0.0159382547133516,-0.0144549622307294,-0.000742881712689042
0.0229934865003621,0.00699656196451733,-0.00574078042301082,-0.00204898239784619
0.0122277432506218,-0.0068387253129475,0.00336502696377641,-0.00503801399850765
-0.0200769631415496,0.00309399236694679,0.010900661383115,-0.00693399702265703
-0.0437473168343725,0.0466120438348631,0.0153947390963594,-0.0057121922619763
-0.0398131633667396,0.07607044159048,0.0144849145897249,-0.00209088367069705
-0.0183649617715792,0.0779313425725907,0.0055518806355629,0.00182088794171785
0.00490815077651663,0.0781659903501339,-0.00665370315050671,0.00427421045160828
0.0184321304486938,0.0704276337230742,-0.0131450250707855,0.00490246526717305
0.0159144789284745,0.0391331404767353,-0.0124797555538344,0.00472296453150352
0.00412677629357938,0.0112565754208554,-0.00828054222577251,0.00465121366337881
-0.00264986958685205,0.00903660937659693,-0.00344355167403947,0.00399716595864772
-0.000730887209581733,0.0118509023781249,0.00143549983667876,0.00135365327033255
0.00389873786891362,0.00255587147721438,0.00561253540427136,-0.00273102447438108
0.00263502744043366,-0.0148104174143287,0.00842490433911059,-0.00479535041637189
-0.00728121477346381,-0.0240394616963658,0.00987747067357144,-0.00185061086686004
-0.017290729216388,-0.01815813702764,0.00622893200383234,0.00446130718607531
-0.0250531356957678,-0.0118738648483568,-0.00195594656589432,0.0095543697192085
-0.0357665227896038,-0.00650224393436686,-0.00553295816633893,0.0108164463558178
-0.0424918007472992,0.00155278459082611,-0.00162592741214121,0.00835994571243799
-0.0317770940125699,0.00328258829914724,0.00343806488846382,0.0028200588355063
-0.00871131830374762,-0.00934424966580496,0.00502278160448637,-0.00427419806441851
0.00787439093141407,-0.0402758344219361,0.00215577851143118,-0.00962404502465951
0.019640812017286,-0.0778787595407381,-0.00230962900780704,-0.0101004840573032
0.0384295840585439,-0.0980548749897706,-0.00313654378069726,-0.00584393985989268
0.0488367503424245,-0.0986079184549979,0.000198942235762656,-0.000248748781654514
0.0347372250288079,-0.0892795312735725,0.00172276569035062,0.00391760145170656
0.00191877161151905,-0.0626900565114915,-0.00289750268190994,0.00631809951376823
-0.0390578719854834,-0.0237752866945144,-0.00912984806001728,0.00758217771945589
-0.0693115481743525,-0.0133953552742192,-0.011842918354082,0.00791335638974786
-0.0733024283786487,-0.0422629985892371,-0.0121949431270286,0.00741867712089131
-0.0571457092443356,-0.0468006868351084,-0.0112430761569756,0.00665906775884978
-0.0360680790233226,-0.00638641311969744,-0.00927763153986805,0.0054597025156235
-0.0130160611846787,0.018082429655948,-0.00849675759552952,0.0030191602036045
0.0319346228889681,0.00521894168377018,-0.00738894928528687,-7.64147393695468e-05
0.0888327100721747,-0.0123278774828055,-0.00394058422479122,-0.00216654595270153
0.0924017359699865,-0.0205154548503692,0.00124170622947577,-0.00233723730480551
0.0313861625284994,-0.0306629986265457,0.00696393575024881,-0.000528661155544295
-0.0296812858626305,-0.0507380024861251,0.010923874784292,0.00281104163632406
-0.0582145541608459,-0.0741505106082469,0.0178237023815069,0.00603717190724674
-0.0629455011772632,-0.0889364516115275,0.0276583686335572,0.00680672069001506
-0.0524566254722962,-0.0865108326647661,0.028989244653889,0.00478942132559279
-0.0444153212621311,-0.0693701382498835,0.0224118316338128,0.00226287643824818
-0.0508257947213339,-0.050162395161787,0.0154931745675969,0.0013409295559543
-0.0550472661613434,-0.0394311821899885,0.0133789456181667,0.00203123771562391
-0.0399730273571449,-0.0438859033729579,0.0170791888470963,0.00232969620919955
-0.0109951766605213,-0.0541783761497669,0.0170413660194613,0.000535397465271476
0.00882636860239226,-0.056808644192892,0.0102782997210495,-0.00204843831720088
-0.00137602016806235,-0.0559924068490836,0.00493032697311359,-0.00310300373704903
-0.0297468583069032,-0.0488950770751123,0.003144057510703,-0.00280766425568667
-0.0473874204924788,-0.0218391910467124,0.00174255587156004,-0.00284178323754645
-0.0464819283428876,0.022289788553805,0.00147097922811194,-0.00342662558702288
-0.0334308214022913,0.0545941369330973,0.00526037714879083,-0.00374665304240948
-0.0165505487533334,0.0653306346989764,0.0103700448491729,-0.00406177244257742
-0.00636405523485906,0.0792401047497896,0.00763895386433034,-0.00484233890286971
-0.00468927287347103,0.0912967040786509,0.00286379321248242,-0.00541715483014657
-0.00744885417058794,0.0853157929082325,0.00656856122971705,-0.00493659042530611
-0.0119876806646615,0.0777977222129894,0.0106227372227012,-0.00295581339293223
-0.0178585138715925,0.0875782987396033,0.0120176263690228,2.97616125474291e-05
-0.0249772662577813,0.103853444268562,0.0135301205870446,0.00234802104681962
-0.0289729211089321,0.0967747903645877,0.0136412791684662,0.00317469000495973
-0.0264222823027049,0.0628590409177783,0.0128079086773412,0.0029531117984344
-0.0188400209299613,0.0328150875967981,0.0103529167048118,0.00212914498033643
-0.0118072888182736,0.027974931852468,0.00836795888492466,0.000639681164003147
-0.00463149394978575,0.0424977073206711,0.0110721056692622,-0.00190850095827918
0.00517222857413091,0.0566258675979548,0.0188200938080144,-0.0047066802476194
0.00795900609012163,0.0527978328559966,0.0215688330997422,-0.00596371682500051
-0.0041299967652522,0.0389173476021345,0.0137160678169349,-0.00504676135358055
-0.0198899435636368,0.0272478215289918,0.00558129287209714,-0.00294017147993792
-0.0256045216622553,0.0159953024647242,0.000623670343736821,-0.000894601230901002
-0.0234305421922222,0.00624699089959402,-0.00291267124246986,0.000554687701256796
-0.0205649713455507,-0.0100553793006167,0.00101035741011909,0.00104059358909451
-0.0201374137343396,-0.033714137719225,0.0128839867972451,9.30937640403321e-05
-0.0182717511068126,-0.0524909190008468,0.0224891659030068,-0.00219918367971245
-0.00920205115117076,-0.053206464727659,0.0219472065240739,-0.00434287697026526
0.000190082386798009,-0.0193130438946657,0.0131093612904232,-0.00452648954829602
0.00111698495992873,0.029071019919244,0.00669828903755614,-0.00313224342727745
-0.00270491744671867,0.0514716619846664,0.00775055141878336,-0.00230527397233568
-0.00829281513845416,0.0464884733245356,0.0109218601318031,-0.00302050212517661
-0.0185823857693082,0.0387303885128706,0.0125776454942255,-0.00372782273933346
-0.0296261440330559,0.0367790354912908,0.0116546635214698,-0.00253717608957009
-0.0337881004541121,0.0316672751316006,0.0153294651688334,-8.36520998845594e-05
-0.0303424183025975,0.0157477942896162,0.0250739621240181,0.00119688229854687
-0.0226524451005617,-0.00821544752060908,0.0283601884738931,0.000148447467558693
-0.0136213852426397,-0.029739592634526,0.0245481595778168,-0.00197505089253678
0.00126646467873637,-0.0431320946252401,0.0176953784241347,-0.00296502274551085
0.0246106936915596,-0.0530317528498203,0.00810698543634756,-0.00152772523610813
0.0428617813516591,-0.0603573886936324,0.00448997271179034,0.00132628895546844
0.0434467659327734,-0.0608442458692558,0.00705699059374302,0.00296290218089746
0.033175587582819,-0.0617036859330014,0.0055640966627047,0.00277968456398331
0.0258725268127588,-0.058671553906413,0.00241204654399996,0.00272133351657976
0.0242041873250841,-0.041259854116503,0.00252773647316227,0.00340367617194221
0.0211050576672491,-0.0224813820270249,0.00288167444221963,0.0034468201479721
0.0120960201359308,-0.0133713913479641,0.00453224855385306,0.0022019056153306
0.0011591755838737,-0.0107514466349959,0.00900827972816661,0.000601262185302066
-0.00579262440610839,-0.0133883034930671,0.0153310218604341,-0.00050153035848407
-0.00503654377165297,-0.0211557554414192,0.022993376223584,-0.00122598451847712
0.000628554110720436,-0.0326815160436036,0.0283724692438583,-0.00177231298025123
0.000762813616391009,-0.0478880904207864,0.0269449952077464,-0.00167751122736929
-0.00775094199591532,-0.0557165267084388,0.0209239869231454,-0.000541259741781167
-0.0194906859943043,-0.0476978847164566,0.0239848002912682,0.000795429044388215
-0.0315747736934005,-0.0342642179541583,0.0378141952598818,0.000974670864071122
-0.0376106032537048,-0.0259552340273646,0.0396547945630722,0.000299234618914784
-0.0340035694903026,-0.0237670041784596,0.0263955704859585,0.000695325226527297
-0.0330728372157775,-0.0280808242574944,0.0212521650497595,0.00254060311634844
-0.0355468815206377,-0.0502639659038006,0.0249516245755098,0.00406024409423595
-0.0254623059352746,-0.0922285778872504,0.0234782827856261,0.00472633675432934
-0.00941035086725633,-0.115651598895534,0.0198841344136613,0.00511878843553934
-0.00488294277252001,-0.0896817389569915,0.0198735343721769,0.00457882700846423
-0.00750162601055938,-0.0410680649009109,0.0188597053497152,0.00271212762501267
-0.00567567247157412,-0.00204266362836926,0.0159075306273167,0.000614749865729023
-0.00205263171265559,0.0257707049646859,0.0139643263563377,-0.000748679274977442
-0.000911887849159757,0.0405964539225176,0.0108836878202723,-0.00164602902513374
0.000420937629668779,0.040066796483477,0.0116846828233173,-0.00264573016717506
-0.0038811192416838,0.0349556932287555,0.0230563132032827,-0.00347093957835292
-0.0177579210449382,0.0264524016186685,0.0333405473514398,-0.00383711174750928
-0.028264000149541,0.000203769527073568,0.0296164895293766,-0.00388625001220662
-0.026822184936768,-0.029737653191103,0.0186095946148786,-0.00309310437321541
-0.0131074123851725,-0.0292859729715454,0.0113334226984373,-0.000791246541168063
0.015654964529575,-0.00748473309053495,0.00895772835586872,0.00231935603292773
0.0403559418136454,0.0053257924325798,0.0101113162126156,0.00455679525035661
0.030354862891425,0.0140123246207075,0.0133683223834167,0.00507268744775172
-0.00794124786032446,0.032211134401556,0.0150695387704779,0.00409745719413661
-0.0424515284560719,0.0463682327998019,0.0147619486323977,0.00231013335351868
-0.0563183468224728,0.0470667079659444,0.0166867166713046,0.00110216359596415
-0.0508579836977356,0.0470466651975322,0.0203405723765708,0.00113808457780933
-0.0365708678823713,0.0478129177555567,0.020998105800381,0.00151452737072217
-0.0243881066684572,0.0302209981292228,0.0199357743513983,0.00188830862740084
-0.0155004352062529,0.00806570077575135,0.0174959848995554,0.00263301719977552
-0.0083671572699109,0.0158250592521614,0.0127479993852664,0.0034171044618192
-0.0147548509665101,0.036330340875939,0.0103674198603503,0.00344274163147844
-0.0387442723836622,0.0419975268335957,0.0121598768998285,0.00232087608649727
-0.0537171185693343,0.0412211146378161,0.0126203403886924,0.000308969000054505
-0.0450657188698056,0.0348376741025117,0.00923581677843397,-0.00201846508547142
-0.0283708958006735,0.0211630616158469,0.0047226236285431,-0.00363284354027737
-0.0123210454614726,0.0193869759477908,-0.000653212653408308,-0.00325521642535246
0.011859503235083,0.0300207930226022,-0.0024249508875894,-0.000905461341662006
0.0536811284435129,0.0347916370686294,0.00354220516179729,0.00127396517144168
0.0998875702834184,0.0325427874714279,0.00954588217571214,0.00111115338766552
0.109824817032266,0.028189945295101,0.0066363630375139,-0.000866760348566592
0.0675524042088937,0.0213244371055626,-0.00276898615767756,-0.00185444894496084
0.0157769338426623,0.00939387242293555,-0.0089984951973109,-7.86215436392719e-05
-0.00193606909923523,-0.0141032001456976,-0.0088092139860966,0.0030711928446457
0.00712729580379722,-0.0377256282036037,-0.00632496924801774,0.00546868217863588
0.0119207159626396,-0.0425003976366603,-0.00408828516861307,0.00723395283626285
0.0018187402947851,-0.0414996638824792,-0.00402937745075823,0.0090536866092042
-0.0116403236580129,-0.0489515038749914,-0.00568862349935703,0.00979164775227691
-0.0178010742452689,-0.0430895066579824,-0.00600029308825707,0.00816114278201726
-0.0128916782248078,-0.0151777833251121,-0.00415093385265605,0.00527202257298768
0.00280613450783418,0.010108765493306,0.00155699608652162,0.00308994675075181
0.0224529045146803,0.0292399986620419,0.0117000608191978,0.000821631901554017
0.0313619581246678,0.0586823811783986,0.018160120429137,-0.00328689046988239
0.0249473139578744,0.0894080793010373,0.0108162591247765,-0.00758883984002415
0.0208188484963179,0.0999108063271023,-0.00267486111030195,-0.00881703819361465
0.0290958570106108,0.0885566215874468,-0.00509902535731652,-0.00684657168218371
0.0349513511403768,0.0592361174616062,0.00453902272802584,-0.0050257997989688
0.0288664298300811,0.0209136546678868,0.0248564035765365,-0.00570370799822839
0.0178260082393183,-0.00181180604764112,0.0486355292639102,-0.00843863638668746
0.00455955450006807,-0.00636717029514722,0.0446199550134669,-0.0124422516833493
-0.00762023894901844,-0.0137179782122214,0.0121895816932468,-0.015011130228867
-0.0104442448011742,-0.0228331340474088,-0.0127604434019801,-0.0114273897874075
-0.00296013214092004,-0.0129274669936921,-0.0197956809286869,-0.000981023359892821
0.00704671126588721,-0.00134063864410974,-0.0179605162673055,0.0117509677616034
0.0101902133603188,-0.0255466476850898,-0.0117836260243025,0.0209111514593751
0.00803227246161617,-0.0705005746081603,-0.00687683908125398,0.0235321940565261
0.0129162145926739,-0.105959972855047,-0.00336499768471822,0.0211448827957447
0.0254486494291354,-0.112380297545525,0.00224999537521957,0.015959692045266
0.0238651008844027,-0.08237875389277,0.00482017504651374,0.00832340889514881
-0.00467116980431698,-0.0508899753211472,0.00453029392692924,-0.000661395440635232
-0.0389768378233582,-0.0409243903517928,0.00801546272459155,-0.00828619256865293
-0.0557644163124986,-0.0356801489136327,0.0131643146399653,-0.0128771553797661
-0.0546109890650522,-0.0264517071824997,0.0171134996249184,-0.014613378850769
-0.0431795316075337,-0.0149691386549844,0.019296088805539,-0.0138225578255493
-0.0207005782643217,-0.00869175710531348,0.0164973588457499,-0.0106937163764696
0.00896394131568429,-0.0180802645343853,0.0106582185111481,-0.00610179008894023
0.0228269266791321,-0.032682636854808,0.00633296897258567,-0.00152748328122029
0.011854958005091,-0.0353524721539408,0.00627332649264142,0.00168183282023981
-0.00783597621846996,-0.0255309457833536,0.0116843673718504,0.00230058832970199
-0.0202503982684979,-0.00997893847712055,0.0175977282439036,-0.000413733885232131
-0.0234352791532682,0.00440424584226378,0.0189189380479626,-0.00492336950098834
-0.0243740053500327,0.010173326417303,0.015068710292377,-0.00835597364627692
-0.0184587138088229,0.00710588355741418,0.00869641844425869,-0.00918890962802256
0.0015724238712571,0.00713130115513293,0.00491073472440341,-0.00750456781067508
0.0212081353028754,0.0121963613297046,0.00627680244498587,-0.0045422491349336
0.0177826927961336,0.00509678121396663,0.0104875115308621,-0.0016769265379414
-0.00829652158707697,-0.0153663884284977,0.0116417768208799,0.00113814706580773
-0.0321590408565474,-0.0316731863061856,0.00771924700617535,0.00442411945191653
-0.0368434741915872,-0.0376088537480238,0.00453085361611177,0.00736037088647706
-0.029402545717467,-0.0405250185404385,0.00863910548268981,0.0083757503168249
-0.0209774320114524,-0.0396980749965688,0.0159450906663524,0.00671815323186211
-0.0132459049057861,-0.0300465479563837,0.0141292967550067,0.00356243099584463
-0.00367616531421511,-0.0177146869906799,0.00572163333308225,0.00143431295025559
0.00379322245066927,-0.00883650135518444,0.00182837723541931,0.00105921568413835
0.00489258850788345,9.02275008547587e-05,0.00065034836646166,0.00096367740137019
0.00539745444887821,0.0178608701180277,-0.0028454422289986,0.000721881178651955
0.00759843491416905,0.0409553952138506,-0.00654773575433313,0.0011504817795311
0.00795028548598465,0.0481164208427923,-0.00638120125175618,0.00196967879682873
0.0097480585234938,0.0401196954022452,-0.00446940296518135,0.00192286286408316
0.020528761523692,0.0396835488212745,-0.00585761695958931,0.000617441986716
0.0355905349152728,0.0438391742207133,-0.00782125372197324,-0.00119870998330707
0.0380775553382811,0.04132816570244,-0.00358854189236656,-0.00301942185353288
0.0259381718086457,0.0375153068797899,0.00851284400420483,-0.00477935683727546
0.0122536128765648,0.0348627243025137,0.0169014063113815,-0.00583989232536746
-0.000117186677874234,0.0259172876527666,0.00869392409086234,-0.00504298417057827
-0.0148928799881846,0.00692469667556803,-0.00622990620780637,-0.0018583687036291
-0.0208099059478084,-0.0151999894285046,-0.0123438581461737,0.00248916717703531
-0.00370567117091053,-0.0396753348212426,-0.00919797719505109,0.00550099779233514
0.0223720854963769,-0.0579808197391244,-0.00540539066844388,0.00563784983499966
0.025560504188846,-0.0451936803760951,-0.00429539794262238,0.00368698823797345
0.00379374773066118,-0.00998906353260391,0.00298854475161816,0.00112199548891873
-0.00686353202119282,0.0133059719873319,0.0153991276346364,-0.00134718980227154
0.0129120009489544,0.0179123469025024,0.015988548275796,-0.00311074459206988
0.0355955762117366,0.0145779269167329,-0.00232364891501783,-0.00349747024528093
0.0268146548021907,0.00720868024398161,-0.0248735276390749,-0.00179414079267495
-0.00405013900396924,0.00153408278074167,-0.0332027840995249,0.00190695484932903
-0.0236487536892986,0.00804550544202347,-0.0258359772904259,0.00504637159035183
-0.0223681747914136,0.0274424627653014,-0.0164406521389892,0.00463392954424849
-0.00696674978270147,0.0449142045453548,-0.0110115314293385,0.0012383410898682
0.0121385125310267,0.049292008047598,-0.00328231966708258,-0.00213361286225226
0.0157010107604027,0.0366750042152916,0.00214277534384321,-0.00391140189816274
0.00723877109454409,0.0116861803671952,-0.00129689790118395,-0.00380227295144972
0.00893137571997926,-0.00258761423185895,-0.00686397198007406,-0.00165560101089737
0.015607436084722,0.00423770587840363,-0.00985305528697608,0.00159596417240237
0.0151436122976846,0.0076876736206243,-0.0117203745081412,0.00396498018032332
0.0144531290928589,-0.0138805257675108,-0.013126340696442,0.00398549776716644
0.0168805361387539,-0.0548187440305046,-0.0142825526152695,0.00171947832573218
0.0139307538708145,-0.0968960395106297,-0.0148121245254187,-0.00157798365334317
0.0055685159754448,-0.105563523998153,-0.0154476319017461,-0.0041802674917774
-0.00237781620539817,-0.0635744472288721,-0.0182920900231465,-0.00478032186099306
-0.00776372749978406,-0.0122653390195091,-0.0224635977387088,-0.00323523461168294
-0.000749529735436794,0.0104080893783949,-0.0254189356928967,-0.000886063016136369
0.0198384412576967,0.0138110635535047,-0.0244342490509561,0.000408632207034863
0.0317752779992072,0.0161829889689881,-0.019853938134702,0.00017389054715488
0.0238180418108485,0.0144032554658347,-0.0163343427156652,-0.000787794662911364
0.00929577574610509,0.000769514091527868,-0.01615325338595,-0.0016610228986383
0.0030746867738562,-0.00936660691435582,-0.0207727497272437,-0.00213681271741319
0.0105821566667485,-0.00954766093332362,-0.0282338539803078,-0.00239612331538986
0.0259778345253663,-0.0114311865134737,-0.0324705718824322,-0.00244805611243542
0.0373662751893155,-0.00801042339692561,-0.0304588005097897,-0.00214586749145614
0.0361269520941988,0.00792417558639061,-0.0192230096994922,-0.00221315242930288
0.019500689736676,0.0236216730020008,-0.00462255966144584,-0.00352676463815721
0.000136751715564945,0.0302151298646211,0.00217172938213046,-0.00519818907511264
-0.00597824992107768,0.0280090527446228,0.00258350087174062,-0.00570446929662886
-0.00478280886682409,0.0160119134021918,0.00285854663002427,-0.00438615796973738
-0.00541902965468604,0.00380708268287984,-6.21441795466875e-06,-0.00132304016693653
-0.00706778844799925,0.00760703326975761,-0.0104429444713276,0.00204872113804773
-0.00931702014890606,0.0230289305561563,-0.0190247266319099,0.00407304857527081
-0.0119593025386449,0.0395584971426345,-0.0195525429574692,0.00468133477871261
-0.0174756144306776,0.0534670641562479,-0.0165249322629363,0.00464431298252684
-0.0224130646646227,0.0485847051853188,-0.0104870502150688,0.00373108481807456
-0.0168711242523367,0.0149294828507543,-0.00426238669010627,0.000461826685194238
-0.00057877856907082,-0.0273636762547803,-0.00550781571451968,-0.00485641448896563
0.0176473562452265,-0.0459603335023349,-0.0142912707963152,-0.00880409986489569
0.0303345354671297,-0.0399150722380391,-0.0202502154634868,-0.00905527358754303
0.0378971048278045,-0.037403748952401,-0.0165847066267504,-0.00677172500517856
0.0444871171040243,-0.0467205239956506,-0.0117387131801902,-0.00423655503749861
0.0490653060574129,-0.0512310869760901,-0.0129490151662283,-0.00273979279675184
0.0424689403540933,-0.0345252296182584,-0.0143209010840983,-0.00214085342978412
0.0224635496995185,-0.00393896660355539,-0.0157408517986934,-0.00127128745490386
0.00190255271418063,0.0198223058278846,-0.0194959174622776,0.00105178256737273
-0.00609260883760728,0.0290083124460026,-0.0215134843631081,0.00441110429074213
-0.00251362433337322,0.0260086638274764,-0.0198022858704645,0.00654558255875561
0.00355189616962826,0.0260403950894523,-0.0169343556828134,0.00614938834989495
0.00752595711255241,0.0455861141251398,-0.0153878707110452,0.00534186618043813
0.00519986572738355,0.0757551787044889,-0.0122307120970127,0.00719047618927575
-0.00720494204901845,0.0956767849433749,-0.00445305687864059,0.0107523690671967
-0.0241784642679374,0.10045875495759,0.00805979078740838,0.011576201389474
-0.0342340649715568,0.0972115927397194,0.019845021542135,0.00729309104822303
-0.0335256703489262,0.0914297678641341,0.0286063277166629,-0.000161625457921605
-0.0274752163283005,0.0798948585461612,0.0311406341317533,-0.00728178228549433
-0.0230266121871001,0.0576012642340715,0.0166481075076177,-0.0115917420935995
-0.0208159239776488,0.032153618887645,-0.00436775972803762,-0.0122022397283858
-0.0152168909143323,0.0169263962363492,-0.0124201923790863,-0.00963422350854896
-0.0063495079877645,0.0156068109575716,-0.0106448991704505,-0.00553079818184767
-0.000441149713127489,0.0208478857966019,-0.00781998857642,-0.0017861397617027
-0.00167405478863419,0.0262443385227012,-0.00305258581579864,0.000564166564432494
-0.0118045470077253,0.0196715214651761,0.00479662711242103,0.00207252364453187
-0.0221307374459129,-0.00814222669657354,0.00797877617945818,0.00410456304268578
-0.0155382368374574,-0.052820292169866,0.00186358420540431,0.00666665421707128
0.00367347836292636,-0.099220994886724,-0.00442886513985319,0.00839019028653394
0.0135824660707882,-0.113165511871824,-0.00820311806468492,0.00883152264597407
0.00749253967107097,-0.075665134737697,-0.0136436329217472,0.00876906247331838
-0.00657000077156617,-0.00936883598629951,-0.017768536346723,0.00849394896357281
-0.0173983250919273,0.0602176669094223,-0.0166847621269594,0.00756373106138209
-0.0175034137698402,0.114025783330898,-0.00918015254366261,0.00567151590973328
-0.00955996495031176,0.123060394318336,-0.000150878081421748,0.00308664713550916
0.00335596550504141,0.0933754060079775,0.000366929177988669,0.000755214643573162
0.0207166016060607,0.0554130404775602,-0.00561273357882002,-0.000141021909864409
0.0317773208639912,0.0158138998429536,-0.00667752169944412,0.000347665435872209
0.025074707083242,-0.0171765932193964,-0.00180974283367985,0.00103796800307492
0.00836687135142043,-0.0338284926091769,0.00349340823300649,0.00136278502005507
-0.00552326547687903,-0.0469471361361067,0.00422885984747581,0.00129066078250255
-0.0163612009518937,-0.0634543718148064,-0.00111036434259859,0.0011339813938635
-0.0249328634759985,-0.06190144486447,-0.00893826810552108,0.00148770810948301
-0.0285160060759626,-0.0263930818549385,-0.0136047955391188,0.00205193154565722
-0.0264416052891168,0.024687006322503,-0.0107502438810871,0.00178155329913055
-0.0214697486404387,0.0624128855832971,-0.000407111295045136,0.000434533087224949
-0.0209691283952086,0.0823558769417144,0.0108998637151561,-0.00123429634369404
-0.0261676347935056,0.0934286645139986,0.0118242084537149,-0.00278739699336856
-0.0296707656259733,0.0898336592389659,0.00266396544800941,-0.00402842918118866
-0.0303385733612917,0.0663814548720936,-0.00537098147265447,-0.00378205448498229
-0.0334293808867319,0.0426779769608495,-0.00919800747771313,-0.00104292212914569
-0.0351763316014191,0.0336915010248979,-0.0125768239345644,0.00296838426410722
-0.0286688271634216,0.0164619496747085,-0.0176741830078811,0.00576080028703606
-0.018393370588344,-0.0105747557587376,-0.0212955545806478,0.00611543854108619
-0.00593381921108181,-0.00946922488586356,-0.0220266169417696,0.00475912994531282
0.0217301714579548,0.0083650863893657,-0.0247274097174426,0.00314464216999914
0.0626874063411738,-0.0087637550417944,-0.02578830846352,0.00177738458405299
0.0793618412080056,-0.0644962722320452,-0.018709321113094,2.92225200936148e-05
0.049776741847415,-0.111494403165785,-0.0101251974930977,-0.00234357941392779
0.0027845424221206,-0.116298762095612,-0.00918946447143992,-0.00438669665325173
-0.0261263738859744,-0.101161948573578,-0.0141448592326827,-0.00486815914911601
-0.0309831576251593,-0.109900078964284,-0.0187829785890277,-0.00370499132905634
-0.0226069120811547,-0.136303298607686,-0.0202707866068681,-0.00156390967542301
-0.0127981493033015,-0.127406527478047,-0.0191990459117228,0.000423424828972232
-0.0160259272588113,-0.0711374116122642,-0.0212406175607726,0.000624898464666533
-0.0402792621094046,-0.0217516465143327,-0.0247196836337501,-0.0011488923564898
-0.0715178694570169,-0.00884117153457231,-0.0203813447200974,-0.0032112818405234
-0.0899337383645261,-0.0126914688317089,-0.0130850483255954,-0.00378348739468843
-0.0914298852377302,-0.0117088399571765,-0.0109325608141983,-0.00203150898554814
-0.0773552726416303,0.00513090667795182,-0.014076817372626,0.00177024110997474
-0.0461769469467846,0.0286147737802552,-0.020865951371714,0.00627595696655791
0.000288879746082812,0.0374471671128244,-0.0271983669771339,0.00930877463270454
0.0586111122888566,0.0274858134136297,-0.0315283167054025,0.00868492717991694
0.105560416410856,0.0114190140221185,-0.0336300290346526,0.00425265354659003
0.0950952001860626,-0.00400542095507424,-0.0259646268200463,-0.00150561858131719
0.028429752005562,-0.0182262053698841,-0.00494245306786861,-0.00640471964854499
-0.0293906736593962,-0.0283516557930012,0.011095500028242,-0.00990931682191518
-0.0360717833174376,-0.0262367893734945,0.0052276941348498,-0.0116161570010347
-0.0110428698660982,-0.0200707035455426,-0.011051793562304,-0.0115627698381167
0.0154964192864513,-0.0295973098119272,-0.01940811027382,-0.0106074641572812
0.033379508466762,-0.0424278262381731,-0.0212652141786849,-0.00899892372340896
0.0381455811568621,-0.0425323860853676,-0.0237848281136275,-0.00663843862701871
0.0287340666587322,-0.0441935680666315,-0.0262544827454826,-0.00409209987361848
0.00984264943187273,-0.0428366562500207,-0.0264228692218824,-0.00154685448624931
-0.00991362314324939,-0.00807792659606173,-0.0239881328177021,0.00129346351509875
-0.0178102993040068,0.0424592540901232,-0.0238321773499421,0.00398560786256036
-0.0178184237833483,0.05738492687508,-0.026154614367538,0.00601565271727478
-0.0240367937600959,0.0322658370349304,-0.0272916143304948,0.00708875583262769
-0.0329051302405699,0.0112337611872506,-0.0283002706408009,0.00675135873362867
-0.0378390110280702,0.0242917764270868,-0.0239227448920368,0.00518585727134704
-0.0356076543496467,0.0505932673025999,-0.0103824813637449,0.00315834096500465
-0.0181875947076942,0.0577583829185378,0.00540812981622887,0.0010460758437406
0.0104234851968505,0.0441661733262426,0.015279140767338,-0.00152186917841646
0.0345316535081705,0.0348767061289545,0.010506385829473,-0.00449147541102691
0.0446834126844376,0.0404768768323139,-0.00711779301490065,-0.00689179389817013
0.0331670401445446,0.0413248119914164,-0.0200960733501885,-0.00848043791314198
0.0030874540576109,0.0245429107042721,-0.0155824072570523,-0.00922742149016868
-0.0265812154790398,0.00603319052824203,0.000488808427109522,-0.00811962945225558
-0.0395708005260241,0.00642926598398089,0.0129499017430422,-0.00478153393028861
-0.0289063668035381,0.0179622371170512,0.0120255214573411,-0.000628408316791787
0.000421121472138589,0.0207058206453283,-0.00348057286046281,0.0025083777078391
0.0284005318102977,0.0120858747463467,-0.0222515752110476,0.00439422333876498
0.0369830421731809,0.0122150570091643,-0.0290981335165465,0.00536907647766298
0.0259935243602585,0.0335196758682655,-0.0245894014411263,0.00427606039613781
0.00970861492169655,0.0549557316263976,-0.022784488356617,6.45821286676075e-05
-0.00142136244924672,0.0614401466566226,-0.0261941059072242,-0.00543564752454384
-0.00871961504309159,0.059107355297622,-0.0226142184073761,-0.00889013803578994
-0.00758853686895098,0.0521180480668673,-0.00729957667600233,-0.00931142833631269
0.0081519462411483,0.0551701300759886,0.00896554173166243,-0.00858186436319369
0.0243045980245722,0.0755915102694656,0.0129064216484527,-0.00846677920805979
0.0129105513703159,0.0871425340677186,0.00890643394189013,-0.00800986821049459
-0.0322940792405614,0.074211691275555,0.00484519427804496,-0.00465715061606943
-0.0838404157624773,0.0493594795646531,0.00113392733011434,0.00207910970109022
-0.11600985292565,0.0181126483939141,0.00107474669908383,0.00944531877659093
-0.132878776159304,-0.0173496041783018,-0.000304349321558179,0.0142172990749858
-0.130866859878683,-0.0317958348290362,-0.0072588691218906,0.01534158629674
-0.0858243249138686,-0.00770608857945751,-0.0104618708917733,0.0135182393821045
-0.0119450166761522,0.0216707709790969,-0.00631119320151929,0.00947589952170875
0.0588417088079114,0.0105283812639954,-0.0028013305863347,0.00412702125616947
0.113571862039252,-0.0379296596469928,-0.00285534334880136,-0.000819271436976519
0.117637796177284,-0.0933773114331903,-0.00226243272664875,-0.00409172568271232
0.0596980154735054,-0.140816211333825,-0.000360636362796002,-0.00522656053272131
-0.00177082695083364,-0.155928376613801,0.00037794694584032,-0.00391431214792902
-0.0228417100718085,-0.122262994376232,-0.000633202227613702,-0.000711467558746826
-0.0113415174353876,-0.076371177225991,-0.00410013106647773,0.00261327902194111
0.013985565035539,-0.0470914528863817,-0.0052110786472144,0.00439933991722075
0.0332481436981219,-0.0238998834673593,-0.000333577531883827,0.00423140844827796
0.031300193785403,-0.0110922151413583,0.00147767303919154,0.00286825572752673
0.0133263323122397,-0.0123903854559244,-0.00226332463261989,0.00102510475717703
-0.00249418270182659,-0.00855188496084918,-0.00450023858353533,-0.00105794754375668
-0.0077217669578495,0.000728385656592114,-0.00366226270226164,-0.00238172076206971
-0.00828406747530805,0.00131683718526289,6.70267344448346e-05,-0.00140403715238459
-0.00912901092076184,-0.00929790364797018,0.00456518761609333,0.00162395653565011
-0.0054233681177514,-0.0280340002854008,0.0043878989794597,0.0045664473025268
0.00468236362257574,-0.042716862947768,0.00173752228858065,0.0056664492331701
0.0137805655110227,-0.048744750345496,0.00163091573754223,0.0048661614073485
0.018677307040704,-0.0537764536010429,0.00381482449023946,0.0033530400044261
0.0223462246990148,-0.0588237715551874,0.00301952367343395,0.00171689282134848
0.0289734507920018,-0.0638935742156071,-0.00570065879213278,-0.000336562746997133
0.0365771154283223,-0.0611234270733186,-0.0143738791806188,-0.00208554914502494
0.0392016536192123,-0.0416949419820673,-0.0078280379693525,-0.00165002180384902
0.0333255032977472,-0.00947624316403774,0.0146544164157122,0.00122031547263122
0.0239763379647314,0.0208590159528918,0.0319581079094758,0.00413765890238864
0.0244421936467886,0.0287285292116016,0.0272491078944124,0.00509798616762372
0.0286011125068373,0.0224594360189447,0.0112615441879627,0.00460923575447923
0.0220698977376652,0.0197511704475763,-0.00092281298016051,0.00368205173881765
0.0132743886097498,0.0121398717711933,-0.00911270768005561,0.00246321749651185
0.0138774350494452,0.00970750238190071,-0.0121172826951548,0.00212312063849482
0.0240358452614316,0.0271020945129224,-0.00768331490306715,0.00367384813375589
0.0354724173913413,0.0443768102795228,-0.0016806493877126,0.00499098949839154
0.0377197468426987,0.0376702614257221,0.00478856951979161,0.00323226653424844
0.0325703701191314,0.00155936804135662,0.0117385923181274,-0.00075506852954553
0.0343231760160876,-0.0389619405692303,0.0130609082999902,-0.00329470721984952
0.0510070069048536,-0.0479853585932908,0.00967437027051866,-0.00270153998823323
0.0710891588098499,-0.0201880832024248,0.00505368288021096,-0.000469187528659879
0.0760055109924412,0.0132273073767767,0.000902983266105398,0.00107489331575925
0.0615170464309856,0.0097217822116301,0.00161105353032568,0.000323509505548033
0.0383961203310099,-0.0323602522813934,0.008815379626427,-0.00272685934012945
0.0169877220452965,-0.0600183085715938,0.0166432940972335,-0.00739834903707938
0.00694235418776912,-0.0374986731825833,0.0170286750413298,-0.012706347512756
0.00657250445048413,-0.00307616923738466,0.0106563242255654,-0.0155836960685385
0.0021759651276039,-0.00173092296181993,0.00562452670930767,-0.0133166572309418
-0.00596340383585574,-0.0195983951243327,0.00626345464334574,-0.00789522291203297
-0.0106883329487389,-0.0241581838184303,0.0101211843621362,-0.00395968822448467
-0.0137253560703941,-0.0124650663993837,0.00998202003576936,-0.00324453484232093
-0.0189630383646232,-0.0089142442248374,0.00390053818595774,-0.00338672167991209
-0.0117083130344985,-0.0157998037583199,-0.00106970246236165,-0.00186440201351155
0.0274179058943013,-0.0128999721624468,-0.00270574877768373,0.000896359222098592
0.0680613270337996,-0.00336457265536372,-0.00369460775853407,0.0029788660527813
0.0616184410286877,-0.00128171779477866,0.00122098588264112,0.00339406545073579
0.0229514018431925,-0.00687845587769349,0.0118700258234521,0.00225316935154585
-0.00172415117353059,-0.00775153580109498,0.0208456377335136,0.000126912361549652
-0.00669886964352493,0.00498692742428565,0.0282704216960772,-0.00233897740233138
-0.00968193647988709,0.01955335047722,0.0273325411962585,-0.004035863423761
-0.0132549296857089,0.0206584149305187,0.0155646594086351,-0.00358409511058335
-0.0107629470610004,0.0064261695684481,0.00744009704022365,-0.00157861097093093
-0.00164421767763891,-0.0114553013421598,0.00700429196499941,-0.00105775587419833
0.00862168918775746,-0.0206263328951364,0.00549835903697246,-0.00368205176840264
0.0141204358893089,-0.0272282297769582,0.0036093825090654,-0.00753023111972554
0.0153971914068179,-0.0306902197202275,0.00570066898288093,-0.0102533673984034
0.0180063307193298,-0.0192677859850575,0.00648869005231706,-0.0114561682777868
0.0224662788592552,-0.00339137130914707,0.0047656359931191,-0.0111979029972998
0.0253996791689048,0.00110136913773796,0.00630340041867085,-0.00943515088981291
0.0270089664640027,-0.0121778834862202,0.00749711734062928,-0.00713629744994023
0.0287912020994633,-0.0373474442852304,0.00261928401301936,-0.00504221932375319
0.0282129535359297,-0.0463818516295714,-0.00165865553435711,-0.00236291322050046
0.0258955590956788,-0.0295708330642436,0.000199167603334387,0.00131162967606551
0.0237500156848657,-0.0118212684331016,0.00206366038233493,0.00494428506040321
0.0135536572889407,-0.0186561798886528,0.00111943688701834,0.00772531181002919
-0.00991545298219117,-0.0333940122238691,0.00203329781799767,0.0101317525728761
-0.0333693769276704,-0.0122872100913498,0.00568785671849721,0.0130566892978043
-0.036062309168084,0.0297678545441886,0.00457344444556273,0.0159099383459979
-0.013877760932714,0.0485079739605765,-0.00491353258356677,0.0164014559811586
0.0119593348363585,0.0454288667952874,-0.0105829278486946,0.0134310263339869
0.0201298807272441,0.0399721765355846,-0.00527199767961856,0.00786628496974365
0.0160182074911245,0.0431313588656844,0.000434985816063549,0.000938017523827044
0.0122746207492896,0.0556399675390795,0.00117794865173952,-0.00558994724724843
0.00764514982631207,0.0646691460220579,0.00272552329076058,-0.00995481333237656
0.00362798714208158,0.0434515452552334,0.00824934092835805,-0.0116670123312812
0.00415182128249501,-0.00840670084713845,0.0208682035905164,-0.0111365182518838
0.00434486944864083,-0.0298783128537405,0.0384052388502843,-0.00978762644608498
0.000174695791102355,0.00894597825480804,0.043097997269116,-0.00925158924522711
-0.00646683116810924,0.055896117254984,0.0289546538321954,-0.00824482943166682
-0.0115496060068734,0.0691851263441603,0.0144108960890028,-0.00389519522944786
-0.0119705263250868,0.0614224629922738,0.00848423188996105,0.00361534429107993
-0.00713583961838399,0.0450899493891523,0.00314888579981359,0.0114641797568086
0.00143621336306945,0.0202971114529242,-0.00307134073266438,0.0175208426875197
0.0075826403595769,0.012937447245725,-0.00206268974319584,0.0211580722747498
0.00776106499423892,0.0355843477288204,0.00708914780730369,0.0222597152510169
0.00472081704834968,0.057360707829597,0.0146634617883006,0.0208061487563889
-0.000323541123671984,0.0571086630862,0.0139636399378029,0.017466941282243
-0.00447090704952418,0.0512320668890876,0.00711616016038988,0.013203287929685
-0.00677173868013485,0.0625112639184305,-0.000738838904259163,0.00844825146312222
-0.00850186337129141,0.0746043392808221,0.00039347604949002,0.00421828679471994
-0.00524754875755089,0.0615894226295473,0.0182407478508499,0.00156983983232757
0.00856936435383633,0.0167006227683819,0.0357881913024434,-0.000961985634366596
0.0248530041331924,-0.0571412201628014,0.0356053103169605,-0.00498106813047162
0.0271994889613804,-0.116962626076993,0.0261631730792064,-0.00856921339888536
0.0169412258603355,-0.118768572060461,0.0145410839784857,-0.00884738682523432
0.00523309064900872,-0.0845486295465111,0.00408059919897506,-0.00562839814002358
-0.00383457362185003,-0.0483730729460676,0.00597489078750702,-0.00152623903337056
-0.0124717146945568,-0.00873562614740936,0.016678344323867,0.000103554533493916
-0.0196320527162653,0.0329540111490796,0.0220958049468901,-0.00165712808442367
-0.0143485967906653,0.0634306469307291,0.0255636414801225,-0.00408087067656665
0.000183561347715512,0.077122206772143,0.0386910561375213,-0.00480014715566361
0.00946737519386205,0.0734434239580607,0.0493357450168746,-0.00498226751900165
0.0141237019980428,0.0504424351429732,0.0358913720372497,-0.00545467921674277
0.0120649885101078,0.0137277258663255,0.0160934183347192,-0.00374390959278055
-0.00502972026624411,-0.0121946859045138,0.0172865664185064,0.000880166728221873
-0.0285622817612435,-0.019523570456187,0.0300371667136875,0.00406498645178422
-0.0441936032419988,-0.0345290404343711,0.0361770126508296,0.00226027072716638
-0.0456438629678418,-0.0587562498432444,0.034375560460689,-0.00260913033569772
-0.0324126125891868,-0.0648961015763527,0.0337630501528815,-0.00656490033578663
-0.0105968073390832,-0.0446375488697789,0.0375511925826821,-0.00786896886042818
0.00252196829500542,-0.0127297459287626,0.0357640296834276,-0.00704711781380814
-0.0111168320533697,0.00954690217010134,0.023464037843603,-0.00484872635559898
-0.0435809926593061,0.00890201074059161,0.0101800923401838,-0.00156066078410658
-0.0729203335041897,0.00663386150848411,0.00571536256691203,0.00214567138770365
-0.0886631487128022,0.0334157149508366,0.00733651030740964,0.00509005697773035
-0.095685429106015,0.0659362190391813,0.00855538907077482,0.00613070271312415
-0.0906236479325176,0.0664321632172239,0.0125391916032325,0.00468092228841064
-0.0400754278593471,0.0503247458756489,0.0197021750150019,0.00110591550446405
0.0562689645569416,0.0516247436562869,0.0213879435852033,-0.00320610513256661
0.127242968982645,0.061445706595434,0.0207816905768813,-0.00668135811120289
0.121613174838227,0.0480421929075753,0.0283372287231556,-0.00886755393880213
0.0666107404497048,0.0147386869086012,0.0367389513231187,-0.0100534645189795
0.0128395570458153,-0.0129658269382676,0.0360247955386062,-0.0102687846409353
-0.0169108484573303,-0.0159208957928843,0.029765111349271,-0.00960205534305303
-0.0290858989583845,0.0132074738160912,0.0223565954169141,-0.00800879374083868
-0.033626645671409,0.0446383926399012,0.0158333695959577,-0.00470774525082074
-0.0316501197879149,0.0421217123281784,0.0152345463690516,-5.0921934309953e-05
-0.0315151289628587,0.0107279254497561,0.0203448154367935,0.00366108849905938
-0.0416508807245874,-0.0266933112212443,0.0214581246693234,0.00502151531364766
-0.0530252813805604,-0.0709796784141158,0.018204166023377,0.0050187397929044
-0.0536532259758541,-0.126162657639627,0.0180630147848778,0.0046450784136672
-0.0457972896446919,-0.136127697316299,0.0179125982162504,0.00329507741999339
-0.0407795852243271,-0.0644991598268147,0.0147078817087559,0.000925456059130967
-0.0371195648579381,0.013990009071113,0.0116096675779914,-0.000701406555281437
-0.0202520302361422,0.0438934352305703,0.00779700481331384,-0.000203127746152986
0.00165096466015457,0.0578469334508693,0.00848068355738981,0.00169821275934892
0.00901367283476125,0.0699521032293077,0.0196539054602844,0.00309892463935272
-0.000216126138042906,0.0592846120501515,0.027592864442292,0.00265207800419544
-0.0216635842709027,0.0305351706542472,0.0195191262059013,0.00110106134810061
-0.0417493082184048,0.0144484254610951,0.0053947907724292,0.000584087329687859
-0.0492531918005642,0.0259032898502502,0.00163396540620339,0.00207043672184413
-0.0424098340405579,0.042271036417944,0.0105760709813603,0.00430196889641031
-0.0123998420111305,0.0419517115407548,0.0181632272013662,0.00546868728415578
0.0245187249776528,0.0297278851504144,0.0137996589694338,0.00548738315055504
0.0360551554880988,0.0130624269874914,0.00699324177337378,0.00541006702907522
0.0338069106656971,-0.00203436170971094,0.00664185846150732,0.00554619646042825
0.0330787217843758,-0.00953893632756722,0.00889741136389268,0.00547177629183802
0.0101695074971258,-0.0111669980935073,0.0109512180623452,0.00460397411967587
-0.0328429523898038,-0.0106246107346545,0.0110869388545943,0.00249230193171726
-0.0491356026119015,-0.00930902793745292,0.00740478439482082,-0.000217274154438457
-0.0156210956127648,-0.00596957602789873,0.0026487884835433,-0.00209503272591306
0.0308540784461351,-0.00306853665591827,-0.000728810040118523,-0.00237753736998275
0.0421498301004231,-0.00940182663297153,-0.00167903694775245,-0.00108063660076292
0.0258986873265864,-0.0327884014161483,-0.000757896095055628,0.00111424591235918
0.0179688697349054,-0.0619900767724467,0.00231136635157007,0.00276882278548104
0.0247852093383367,-0.0809903354167043,0.00833694746556424,0.0025591133047153
0.0317905191080949,-0.0804159464302182,0.00664756823115797,0.00085031902034895
0.0338975449052414,-0.0518195656069547,-0.00296628403269786,2.34568814912125e-05
0.0353698380583011,-0.0172120489427549,-0.00757090144229385,0.00091119485195945
0.0306050789352746,0.00446578140983558,-0.00943698380699793,0.00147288081574278
0.0092799722764358,0.0238879050903352,-0.014038363681814,0.00135286135627369
-0.0185434708287717,0.0377030581356896,-0.0181385417043518,0.00261254192808425
-0.0299672744442114,0.0319412398672197,-0.0183527232449374,0.00526779471063294
-0.0200279500963001,0.0139256332545378,-0.0129614531777476,0.00663597543692089
-0.00398309064348113,-0.000508223152129249,-0.00204462688859638,0.00518883449385575
0.00281655634715839,-0.0103768210965344,0.00592620984168907,0.00184271832947665
-0.00196950950073805,-0.0111794525699656,-0.00189007462406869,-0.00161141107847172
-0.00884231350870453,-0.000563624795582885,-0.0174293452001176,-0.00291575787949142
-0.0109410194358151,0.00260192093343332,-0.0176341409675039,-0.00135967237190056
-0.0142070917824852,-0.010786194036368,-0.00496266866938327,0.00022842150274352
-0.0178671819847238,-0.0208778650870475,0.000379740826721639,-0.000559380404775496
-0.0124904712544846,-0.0143965018539748,-0.00226703375988892,-0.00243771513655562
-0.000551788136392912,-0.00197520787384911,-0.0031801502746054,-0.00342420798255401
0.00807132507165313,0.0152056439158558,-0.00455841302970233,-0.00333663789873158
0.00908062934348569,0.0354104455420347,-0.00639356248796534,-0.00267670882994123
0.0112648118471349,0.0389636875389527,-0.0016696692495732,-0.00169563296749474
0.0280421472986531,0.0221184020990431,0.00382796316072133,-0.0006546322232042
0.0507292863569405,0.00395050007118655,-0.000603145036499296,0.000366375489914644
0.0525680617260791,-0.00459075916451548,-0.0110656062847348,0.00139584429265873
0.0317822306509514,-0.00167115085193312,-0.0176489244913389,0.00227477996537617
0.0112053663658418,0.0105349273894221,-0.0216117919889588,0.00335118265980993
0.0016841287534224,0.0218566767903875,-0.0247751420744689,0.00470572500245672
-0.00105532938438485,0.0274975835741731,-0.0243504394575587,0.0047705721592556
-0.00323838355259664,0.0298488161366291,-0.0238056942480155,0.00244276534312006
-0.00607903831888619,0.0289957889531593,-0.0183426050877102,-0.00127496921894555
-0.00678360528283617,0.0263918716456167,-0.00599974426077976,-0.00550292448015718
-0.00616841539653581,0.0284172588421387,-0.00259947678995961,-0.00943796203809386
-0.0118803800175744,0.0317044135375065,-0.00612273585693516,-0.010629190395766
-0.0232791027347178,0.0257433600746427,-0.00243150579907255,-0.00812550476228519
-0.0279002744887525,0.0127608088730052,-0.00397327897658257,-0.00374473158259097
-0.0227192994891741,0.00936039305911981,-0.0172773386388898,0.00143147635660128
-0.014657947951469,0.0268898027677359,-0.0219853121989026,0.00646973405767567
-0.00691010697906412,0.0556855319030696,-0.0125333716559836,0.00889730480330871
-0.00319783419753121,0.0711506612424088,-0.00455264365567159,0.00725302202741741
-0.00588428472123971,0.0450374907135051,-0.0069037571434864,0.00341364275334147
-0.00688996061977917,-0.0216829663133039,-0.010929687185656,0.000733082797327408
-0.00360372809022667,-0.0944406955852117,-0.010271187864457,0.000160295617028151
-0.000978354073547811,-0.137132048113844,-0.0120482608898608,-0.000126373849569152
0.00978495615220735,-0.11207946938069,-0.0190192640251805,-0.00158383188722333
0.0349672491017534,-0.0325265376967369,-0.0257793193464244,-0.00350869548478412
0.0494981050346788,0.0305068978148248,-0.0256709024054888,-0.00459272919289714
0.0309803846905087,0.0505207719204614,-0.0175950733560791,-0.00465515234570195
0.000828130327027457,0.051216810558372,-0.00937321747907229,-0.00441395622337865
-0.010225600221615,0.0371302148307333,-0.00642267195319289,-0.00431633181310224
-0.00433095362994049,0.0036477342056892,-0.00820728671026964,-0.00409608911455549
-0.000176466685232596,-0.0314950793794967,-0.0109995464039282,-0.00347551394847703
-0.00388220300799767,-0.052189345423896,-0.00861049434138599,-0.00208613197666791
-0.00734758581369287,-0.0555138589085939,-0.00283464527583768,-0.000120043747815089
-0.006446837758451,-0.0481104839417926,-0.00127056876368973,0.00101357841794706
-0.00380552838034997,-0.0371914463404772,-0.00372387985570041,0.000149509585811618
0.00135370351400798,-0.0155525893593621,-0.00676229008867604,-0.00280780542749042
0.00734537128709855,0.0152125500334294,-0.00725250075473037,-0.00679029423516647
0.0114323417105229,0.0320085620131845,-0.00299052722869722,-0.00958697317537464
0.0139529631021349,0.0207699182412517,0.00181809352694291,-0.00906960419951766
0.0128049803925992,-0.00663157873005401,0.00102546256378057,-0.00484844693941886
0.010956904378647,-0.0359761289775011,-0.0076538482170661,0.00129935731735982
0.0134266210372915,-0.0650674892610311,-0.0208418322519994,0.00682577876444173
0.0128465093441345,-0.0770063424775025,-0.0282014744183787,0.0102314868612854
-0.00220202314619519,-0.0606599039384911,-0.0244420403105863,0.0112102979336998
-0.0281122951195677,-0.0422893746452318,-0.0179661856440482,0.00982956178203257
-0.049763928141451,-0.0415915870615283,-0.0155640680273218,0.00681478606084649
-0.0564474377441148,-0.0516479142738435,-0.017256430586055,0.00345466141427765
-0.0455599798605644,-0.0591697908413252,-0.0225981092705322,0.000946754418237513
-0.0180873590440542,-0.0629931046758062,-0.0278405353132106,0.000240229804401804
0.017401955109811,-0.0635536942614296,-0.0301104059945076,0.00118844590040342
0.0393918573978964,-0.0480702943387238,-0.0273605438865184,0.00218981072497781
0.0338667091267937,-0.0272199733867008,-0.0147346427514035,0.00124291258360557
0.0141247138605968,-0.0202680322755478,0.000654482903965928,-0.00184151207412523
0.00378421710859894,-0.0165407790910535,0.00408815997817169,-0.00465300208146708
0.00441456587888951,-0.00539539673632107,-0.0011301749211429,-0.00487177199249828
0.00367889085559809,0.00182108303737684,-0.00298182860103836,-0.00265679313983415
-0.000854504190972976,-0.00463712799893914,-0.00548867835317774,7.50380288305989e-05
-0.00730913912452517,-0.01088850616971,-0.0119510054768046,0.00200097194936482
-0.0143198897491281,-0.00482587699321397,-0.0130377962219862,0.00339545727181159
-0.0181498516133893,0.0049183416277124,-0.0047523912159823,0.00461226845331282
-0.021570247444029,0.0084856947031314,0.00440644969290984,0.00506191004869312
-0.0257213306544862,0.00381232413568366,-0.000838673741965031,0.00497553763195644
-0.0236779230564027,-0.00414259687509317,-0.016334028397972,0.006096280825992
-0.0166883848606566,-0.0106844339000763,-0.022278044820134,0.00885558885698518
-0.0165034493196739,-0.00792422326340719,-0.0177012157848991,0.0108921443504587
-0.0341780373583607,0.00532545962132822,-0.0123379100342988,0.00992769224384212
-0.0594750599249741,0.0134354422790584,-0.0125538838088502,0.00642332960608588
-0.0681868788793522,0.0152764940422031,-0.0180720284649068,0.00254182794464739
-0.0556718403513111,0.0159701433311189,-0.0211684547051174,-0.000241488496473331
-0.0336898240098125,0.0126690011917204,-0.018006685086454,-0.00183289651030872
-0.0129238826157366,0.0112163696711963,-0.00947475266315068,-0.00268443589546917
0.00445576842110622,0.0211381207299731,-0.00136382137614289,-0.00306959991648008
0.0209598590433522,0.0455956826702686,-0.000167954349985802,-0.0023110926457632
0.0244030320274308,0.0688135391682861,-0.00443097621172429,0.000792581114696359
0.00533769812166475,0.0858023156413821,-0.0111637482575902,0.00561560953152112
-0.0197447340488828,0.117037972005052,-0.0165999602625973,0.00940497531462274
-0.0298593094288453,0.143033102735133,-0.014811263438288,0.00975049544142676
-0.0242227625840948,0.140035461145739,-0.00954392648756963,0.00594494053029926
-0.0125185729690595,0.136490508348355,-0.00884649172032782,-0.000930773536943612
-0.00113976586807926,0.13786191622803,-0.0122868903965169,-0.0082328028725763
0.0016876333589958,0.11385041519474,-0.0127565502896814,-0.0134844362006373
-0.00255342983311548,0.0708043097770482,-0.0085929048997695,-0.0152708192467631
-0.00727321828471037,0.0458195966535873,-0.00982432694451105,-0.0128915226267921
-0.0210347623987787,0.0493411232006339,-0.017199945243493,-0.00746793798503409
-0.0442982117250366,0.0646220485415456,-0.0198783244798738,-0.00190178257371498
-0.0581083303482547,0.0492185312919576,-0.0170232223028226,0.00136679820441431
-0.0524594683758614,-0.0330252612262541,-0.0119707393152674,0.00230326774685466
-0.0359168191040785,-0.13054154273713,-0.00158913656406818,0.00221684731952285
-0.0169456357763634,-0.150934867946866,0.0082588699197814,0.00121639084073828
0.00984038531288429,-0.0896554021913259,0.00530418609253723,-0.000582625480987109
0.0549771303605659,-0.0236499439297581,-0.00738999144732129,-0.00176507264401625
0.0978480266314508,-0.00380215825818447,-0.0189321817531029,-0.00197675054179913
0.0900401011352499,-0.0069910280226165,-0.0199103065926537,-0.00221838031255728
0.0399128404826827,0.00878835060974248,-0.0109869229175928,-0.00310423664634514
0.00955923363364475,0.0456084195400036,-0.00656409103386854,-0.0045169520284092
0.0171001344060119,0.0834985045037143,-0.00874201193864164,-0.00582636969665726
0.0378142959971404,0.0827959146053161,-0.00908413601535576,-0.00760463261381207
0.0546511628770637,0.0378088512448353,-0.00789522938068128,-0.0109199346806279
0.0557991599874073,0.0207838584372907,-0.00602291860024201,-0.0145168518996271
0.0350086231366844,0.045603742468902,-0.00134859180411614,-0.0166034694522703
0.0053556223856811,0.038485671210788,0.00194180196159344,-0.0173801088280006
-0.015461099735724,-0.00525541276441909,-0.000112003125567343,-0.0171550013032948
-0.0261729607406784,-0.023263599309232,-0.00354433568345071,-0.0144269785942399
-0.0316839501775815,-0.00618689545265206,-0.00651731163798113,-0.0084954401395278
-0.0344430578923094,0.0147113028395189,-0.0103904312040651,-0.00161267384641904
-0.0410298701639067,0.0227128848365264,-0.0145000623163811,0.00347063081126128
-0.0481565158572334,0.0110301811784266,-0.0163366279809667,0.00562803302527456
-0.0392143685817597,-0.0183845414374499,-0.0130676418624729,0.00491515933754264
-0.0122864003013343,-0.0546557170771282,-0.00669755508508709,0.00226209872318503
0.0116950528298583,-0.0805223324768919,-0.00238952360987186,0.000166463792016923
0.0155055962699354,-0.08054062952085,-0.000985490128358245,0.00219604503576882
0.00760774473338464,-0.0606949742606965,0.0033284281594249,0.00880990307420677
0.00617681967531092,-0.042093040856674,0.00793134076099691,0.0148868033766905
0.0132387178144356,-0.0341427805132238,0.00132901189023849,0.0152843036977491
0.0154049613212281,-0.0431490649952837,-0.00879190170264608,0.0105258707536048
0.0047016346615199,-0.0701190555837732,-0.00598792946026708,0.00390980742431547
-0.0128919756499935,-0.081929367750191,0.00570720216081936,-0.00281376314636914
-0.0287375301363025,-0.0647228381308999,0.0117586867401224,-0.00853917375406279
-0.0349429920481706,-0.0525445122216999,0.00727634386692558,-0.0118792306651241
-0.0259925967439112,-0.0588453643644962,-0.00185122278839694,-0.0122248353294256
-0.0058644888618801,-0.0571713770820531,-0.00662604129446827,-0.009586162722017
0.0105230291211706,-0.0324448241109312,-0.00332759594633275,-0.00455079343244442
0.0191502325816359,-0.000194241474443337,0.00352919489003286,0.000836684561293996
0.0327579085594872,0.0181994449525142,0.00835309016894203,0.00424125684483427
0.0478954757914172,0.0170361383164202,0.00910435743110777,0.00547456777229324
0.0417693316564095,0.00540715218521914,0.00867127147435224,0.00614479448212263
0.00890191743101176,-0.00546956786951378,0.0103333806934413,0.00689458149615686
-0.0261079429366015,-0.0109002536923917,0.00997389247559094,0.006981685926521
-0.0416928195966347,-0.00753197619031886,0.00400931048744602,0.00656899293445753
-0.0388546608340102,0.0103451944058092,-0.00421092235474344,0.00724636708621901
-0.0278359559194228,0.0389070368919325,-0.00884622547823843,0.00971759984009952
-0.0204728107084668,0.0653299966622145,-0.0070373523749789,0.0121115765110505
-0.0202933924151808,0.0734326458361897,-0.00128870465566099,0.0124091497358857
-0.0203324590379898,0.0550855249451305,0.00550242946347584,0.0108347732342686
-0.0183368370862403,0.0304283909192353,0.0110349046908305,0.00831860707315758
-0.0165240565970484,0.0338664001225806,0.0157695371615625,0.005556712126279
-0.0205801286760834,0.065397002638125,0.0232188946317166,0.00275176236088157
-0.0269391150707239,0.0886642381147535,0.0286407901253257,-0.000331855073589736
-0.0219082869005431,0.085829386752169,0.0281497799000098,-0.00285238710290792
-0.0165895832571633,0.067818221554553,0.0270668777761954,-0.00380330343170385
-0.0275105686565543,0.0383390197097804,0.0218035106408062,-0.00359899469091849
-0.0409011199295603,0.00714916682594119,0.0106879457640216,-0.00280764345898084
-0.0432211642609385,-0.00221132186245471,0.00541539302235112,-0.0011152148423553
-0.0406450078313784,0.00810505726533053,0.00622312350109415,0.00170001159843517
-0.0322224453116484,0.0156632236642633,0.00193123966654005,0.00487561709222952
-0.0130102601954945,0.0140344659750049,-0.00746655805004886,0.0070564605087948
0.0142014364159616,0.0104801522579378,-0.0148751447676724,0.00712522638940684
0.0334936691361032,0.00926312980282138,-0.0169862967262982,0.00494265586766227
0.0255033011505078,0.00847240263072725,-0.0121266991736905,0.00154605723837767
0.0101311218283644,-0.00623225403161602,-0.0054418582573088,-0.00176179522060638
0.0117224377806586,-0.0387574440547313,-0.00472661007391296,-0.00450994689332999
0.0169388232282966,-0.0753664292626701,-0.00361983613917967,-0.00680249856487797
0.0151241731760147,-0.111217403914731,0.00937966120398031,-0.00871500058509013
0.0275249336631589,-0.1313536037098,0.0249519213627957,-0.0106460596881573
0.061389790738922,-0.110542184304177,0.0268326014972564,-0.0122014302512914
0.0661447849523661,-0.0589317238277973,0.0185241346913541,-0.0113626174639088
0.0197518220481536,-0.00778331781611116,0.00969022774872555,-0.00723173895490272
-0.0198399188552495,0.0268766379463683,0.00448188680414415,-0.00164466462779886
-0.0172387081154098,0.0329103031263378,0.00436228036151966,0.00253695280482856
-0.00346581092786241,0.0103763150691725,0.00348972536257121,0.00330711331438646
-0.00260969661136444,-0.0128190690593354,-0.0021918233515466,0.000881553243423629
-0.00776431370127978,-0.0149711038941712,-0.00535520444046147,-0.00239759066188996
-0.0162719457127034,-0.00839325697475428,0.00315375438313772,-0.00481633138581593
-0.0267197271804534,-0.0164290917963401,0.0210841321571274,-0.00679845372726159
-0.03063414094243,-0.0386106072916391,0.0317779007060258,-0.00899441950154747
-0.0288129078876008,-0.0548071503436157,0.026762049430832,-0.0107368379638059
-0.0211681446290757,-0.0547732380283469,0.0166329691944068,-0.0106075171069882
-0.00465769185233079,-0.044700858322337,0.0099690996736451,-0.00813095471350828
0.00862448637347972,-0.0361156312234744,0.00439640358527519,-0.00412777543822115
0.0123817416634134,-0.0365063494573662,-9.03345608489516e-05,0.000760560641466805
0.0132723436404907,-0.0438789126686119,-0.00238832314551562,0.00580922813423157
0.0139474685702499,-0.0548870584781729,-0.00924428496496631,0.00878329751799066
0.014107711219374,-0.0687648634174785,-0.0195336221348801,0.00844343303565375
0.0161478005921489,-0.0773624739819299,-0.0204541301901609,0.00650972641015068
0.0224254069641458,-0.0751844042899851,-0.00587918453619565,0.00382302333400417
0.0280727132358898,-0.069361502252714,0.0142118840575598,-0.000377036661766257
0.0234968777602953,-0.0550391122153276,0.0231146917210213,-0.00483240830416786
0.0111577670725526,-0.0260449343885602,0.0192158922071312,-0.0070323332628375
0.00521504599216714,-0.00247107852625469,0.0155379817328358,-0.00670546031767829
0.00599380382597867,0.00398291017918596,0.0175800358389505,-0.00578183998948908
0.00469299316143151,-0.00371778430286955,0.0166473353257832,-0.00548918060240553
0.00101141526345319,-0.0242119341242502,0.00862341934352111,-0.0052575472434311
-0.00399557488155431,-0.0414651135718418,0.000307870156508634,-0.00402403449134818
-0.00746517236595103,-0.0417667504598085,-0.00481568230004558,-0.00158706665860947
-0.00790045673574979,-0.0249668829207422,-0.00725965942541788,0.00097393191246882
-0.0107987634731502,0.00407285123961984,-0.0079178845452305,0.00247143574301573
-0.010187460506654,0.0290218459149738,-0.00351992643720764,0.00295726540488804
-0.00189578861113808,0.0459999139711728,0.00849381902217181,0.00343421833513433
0.000253802900050552,0.0664036282264101,0.0133504577777423,0.00530390816561072
-0.00502700337896391,0.0830492021930287,0.00321468199067252,0.00941163079197041
-0.000572582544297073,0.0838866360358876,-0.00534786041348727,0.0139129824382577
0.0214337722676332,0.0739975875730345,-0.00879324682883078,0.0153697256513578
0.0430004943411844,0.0629475990453005,-0.0173308515103213,0.0137447757308639
0.0435623446453047,0.0509363321322848,-0.0250283900211296,0.0123788456106411
0.0298367591528567,0.0374986793631421,-0.0245362515548067,0.0119361454264722
0.0171987443424591,0.0268050419497771,-0.0183751864633725,0.0101745490398383
0.00666103170327318,0.00926836531658246,-0.0098891334877482,0.00631974365930667
0.00119700408984917,-0.0133692803521587,-0.0039762601739089,0.000689237076499984
0.0168161022311124,-0.0127910355247947,-0.00505233105208583,-0.00624429578541472
0.0455582067050672,0.0187961550797894,-0.0101743191127711,-0.0121414744148086
0.0522256257296283,0.0553937081960093,-0.0145143640450543,-0.0133915194442701
0.029443076606799,0.0681022575515347,-0.0219848936744758,-0.00873614283047763
0.00665806374826405,0.055915322173232,-0.0311025045034915,-0.000705319486149851
0.00610694227522679,0.0418306045817564,-0.0337932791952273,0.00676368561300289
0.0212902496404554,0.0368779515495832,-0.0290807716133305,0.0107775967856048
0.0280158587463208,0.0278235124003561,-0.0181615022852647,0.0100882889958631
0.00915459470875379,0.0125772568119216,-0.000303479591396615,0.00599344972777191
-0.0261916164926634,0.0116985079049534,0.0185115545788556,0.00209639071350122
-0.0545131026289564,0.0242410406438463,0.022067932878134,0.000838015225982121
-0.0624430316480236,0.036090165177057,0.0083674143541364,0.00201033209145537
-0.055701557498753,0.0508405566419641,-0.00220105724170007,0.00430065838453829
-0.0402022461647815,0.0691787927420638,-0.00215659115038393,0.00585227304702327
-0.0106194181863884,0.0827293234175051,-0.00334816311953441,0.00523739124271896
0.0238804890742306,0.0744149137128237,-0.00774871213695477,0.00320847323384758
0.0383397139209679,0.0354516394491963,-0.0071212478355344,0.00127928267976137
0.0290129502790939,-0.000471744692889131,-0.00278288387506288,-0.000770014002160087
0.0160450950634747,0.00701555873556679,-0.00263376574616902,-0.00369037248878543
0.01674067757451,0.0444967106093988,-0.00506744885689579,-0.00663179541244449
0.0276220638186615,0.0570281521061084,-0.00627665649644308,-0.00797779203500595
0.0335832501433239,0.0266305829730293,-0.00844581325477785,-0.00770992475057563
0.0338261207219565,-0.00463444719958406,-0.00966204564343048,-0.00737072020181727
0.0321251780309586,-0.0206881419863195,-0.00702256444675558,-0.0077761681646522
0.0223445485914006,-0.0402507541802932,-0.00376774904252293,-0.00810948495731386
0.00681818385622487,-0.0563823275333652,-0.00226213164333684,-0.00694915001146477
-0.00534921514114156,-0.0591306649527844,-0.00211440551421789,-0.00410285131704145
-0.0135371293089766,-0.0540079041936234,-0.00256306868871796,-0.00100878332405795
-0.0188364708615782,-0.0439363040655677,-0.00182102343542886,0.000903038885361717
-0.021500878993874,-0.0282686337235803,0.00382203791607216,0.00113670709685585
-0.0256039551570019,-0.00263747906103289,0.0137406904813984,-0.000178116621060587
-0.0299312683866234,0.0311225353501242,0.0215539230877357,-0.00214402718212537
-0.0300452194904192,0.0514860664212737,0.0263786000254616,-0.00369518009135587
-0.0265857123470462,0.0409064123462796,0.0305707061746888,-0.00465646583185094
-0.0214300423975974,0.00797274800645485,0.032005977165459,-0.00502510649943461
-0.0151581032233726,-0.01385116332958,0.0279159301777023,-0.00468259131417758
-0.0081800349850693,0.00523368178712036,0.020726288227008,-0.0039199079186723
-0.00632047415135786,0.032469961903336,0.0203380150876732,-0.00324788275071513
-0.0110708554559315,0.0234842455282398,0.0282810111929347,-0.00294390846153168
-0.014360749492745,0.00409473956532394,0.0294654658466236,-0.00270081863157607
-0.0138940700968023,0.00185021657568732,0.0200058726879388,-0.00171383291890288
-0.0148623050961622,0.00295571317206133,0.0125945567406224,0.000103711382231758
-0.018880175076756,-0.00243897953507853,0.0109845888485749,0.00117282056896443
-0.017886873844626,-0.0103372847886601,0.0100514743402017,0.000197032596926785
-0.00375057760493358,-0.0199025372718171,0.00953882995346269,-0.00189798729200374
0.0123792391427719,-0.0427079646890358,0.0114552364944916,-0.00344378150134559
0.0132764594578776,-0.0853799013926701,0.0134181579474659,-0.00381009105470281
0.00441748189372807,-0.117701524732591,0.0105168511136687,-0.00288015002392057
-0.00954947026746205,-0.0991845962964897,0.00386355618573175,-0.000514997699005918
-0.0330779265582173,-0.0536990618556656,-0.00134346616234437,0.00264913703737201
-0.0525585067646008,-0.0342134632899148,-0.00208543430770853,0.00525764794349175
-0.059378585055376,-0.0375357252609422,4.39453437859581e-05,0.00664523360800963
-0.0603924670338351,-0.0423221786761946,-8.53969482768595e-05,0.00714518341514915
-0.0486894200985213,-0.0545510161329825,-0.0036669620396347,0.00720853741486911
-0.0116869028761898,-0.0800831131736168,-0.00775696783746426,0.00698016959239289
0.0515139653415595,-0.099232389266409,-0.00911427925650159,0.00630505829671641
0.119284169022666,-0.089235554628696,-0.00718806036240316,0.00492704390997559
0.140255660978961,-0.0620134124866145,-0.00689819932064134,0.00283913253855237
0.0993564651438053,-0.0438474380717442,-0.0118861103887865,0.000706136276909878
0.0415593772406054,-0.0385806760778004,-0.0171186494250063,-0.000634329629541161
-0.00169434807704152,-0.03504191326166,-0.0171565640330049,-0.000937163317488816
-0.0255207857112949,-0.0330076513162229,-0.0119613418589975,-0.000629591369238878
-0.0261609928195163,-0.0363557134953003,-0.00736289429136222,-0.00122554766219456
-0.0139647789950052,-0.0323939174586278,-0.00972538495222465,-0.00347171128604494
-0.0101601745262866,-0.0115584903339229,-0.0143852081049891,-0.00500616396339068
-0.017796989109942,0.00893073458300164,-0.0116794960186724,-0.00296670013423497
-0.031527634633002,0.00892330447625399,0.000487293299047911,0.00271534718812609
-0.0504146952438797,-0.0119760989987938,0.0141140606107414,0.0091611218740831
-0.0688504802822936,-0.0345727940673604,0.018911816799471,0.0125801207068383
-0.0812945243430775,-0.0268000726781596,0.0183502896767022,0.0116513835411049
-0.0792730599628315,0.00585426092231452,0.0193465290741972,0.00733879805389565
-0.0524782353010451,0.0208029555912696,0.0136505847219913,0.000962609694020476
-0.0147871765965472,0.0140267630078592,-0.00147441664343985,-0.00484749950918196
0.00894759146632916,0.00920037284588633,-0.0118264717252408,-0.00709956830126961
0.027731801922155,0.00899256274573224,-0.011238333179177,-0.00538326516065868
0.0589742363650543,0.00715039884654439,-0.00811398618465495,-0.00172110353346745
0.0860049773179881,0.00164054782006656,-0.00902779350977406,0.00148990805864712
0.0844301133424942,-0.00268782148989416,-0.0104434008375226,0.00299361080192068
0.0545605145118212,-0.00109973505571484,-0.00713017752642674,0.00286255341362541
0.0170639616772424,0.00415805765013266,-0.00195321807005404,0.0016984730180905
-0.0116778629723832,0.00603596611504148,0.00491122796869565,6.41909501741004e-05
-0.0290626454047812,-0.00105495149445459,0.0136477347994778,-0.00199040602977645
-0.0361782339590121,-0.00205604391451147,0.0176386780036985,-0.00410953193628725
-0.036404891820615,0.00969818752117211,0.0142681750046354,-0.00502886430697164
-0.0305995893204667,0.0193954924759047,0.00670381855547166,-0.0044111050726921
-0.0217936451069637,0.0278390461475403,0.000522020668172113,-0.00345877922025386
-0.0163835415889189,0.0398952522880899,-0.00081878714160924,-0.0031360514253633
-0.0119972694955995,0.0511108305419476,0.000354064930152881,-0.00358143859781061
-0.0094162039692222,0.0655653228442131,0.0030145348796269,-0.00466959249466939
-0.0155191795413689,0.0819741229709582,0.00776314547857438,-0.00575466698645087
-0.026137123030496,0.0822795527570379,0.0124040382011927,-0.00544035576448093
-0.0280463968377907,0.0659284605936418,0.0192135959545161,-0.00364266361440189
-0.0180969866398115,0.0507785620118591,0.0301655888379847,-0.00281827859812365
-0.00757702561447396,0.042947632867524,0.0372961212695622,-0.00433730486517304
-0.00496051091587394,0.0379079960331319,0.0374332458641073,-0.00644661809067932
-0.00678950846691856,0.0259986342522381,0.0347876448677507,-0.00698155278009189
-0.00622212632227296,0.00654803079346991,0.0282054337370122,-0.00554058155667509
-0.00246812382387197,-8.21984194902831e-05,0.0197380776036353,-0.00297993353914406
0.000351125667048256,0.0213899534557118,0.0177937038345298,-1.86160430342584e-05
-0.00109472001342971,0.060759313257795,0.0225390291044561,0.00254424481716915
-0.00777503980391724,0.0944376580306371,0.0254912424791119,0.00356091270649513
-0.0183059139492766,0.109592512462735,0.0269849451599217,0.00244655919154187
-0.026122584496752,0.12104379711288,0.0331401898073277,-0.000541242481098065
-0.02935544727168,0.133949142133469,0.0373144096935612,-0.00426765984214706
-0.0306894050339122,0.121659651670326,0.0325746807827804,-0.00636412306330737
-0.0232457555993622,0.0769903870792877,0.0242735260894986,-0.00379633023859648
-0.00655242963688474,0.0187434873973136,0.0175279586376312,0.00415286139900976
0.00552726951566468,0.000632696280653433,0.012709782840521,0.0137170397836805
0.00778870262991033,0.0553696068072493,0.0105630356170245,0.0189652081717442
0.00733082934235202,0.10359528041433,0.0113665602467785,0.0162182117942633
0.00845300645121008,0.0707395303744422,0.00935685701657971,0.0072553177391236
0.01116060789588,-0.0179205234739363,0.00133260864434948,-0.0018969482245504
0.0137813685664619,-0.0996342267635719,-0.00460043887964815,-0.00616202544789193
0.0128412148117486,-0.133356142200386,0.000157188786569614,-0.00498968646896519
0.005659147339009,-0.131840758102434,0.0153336204973443,-0.00173323371656945
-0.0057064050547142,-0.131198364641953,0.0280878962481607,0.000277503069901304
-0.0172131696737701,-0.129601599757765,0.031476640083839,0.000966684518562062
-0.0193752335777624,-0.100030817777343,0.0314315341391742,0.00192468543163792
-0.0071008770690554,-0.04498690424548,0.0248327017343482,0.00393672206435699
-0.00107898018900065,-0.000574338051551659,0.0169192976730165,0.00631176619356004
-0.00980128329365953,0.0188327146682359,0.0177848577612769,0.00734198940896457
-0.0130989896898703,0.030300560694467,0.0178397709253356,0.00666133256075397
-0.00811353446234894,0.039780924926714,0.0103805039358193,0.0058872868878105
-0.00518601426117968,0.0395688415893106,0.00339029892475052,0.00627268719322044
-0.00161370277063357,0.0312029519803038,0.00287978511196586,0.00738518884394173
0.00819738739717504,0.0218626073598693,0.00519612043049065,0.00806190969603428
0.0237035242169991,0.0127194275974135,0.00566458629955665,0.00758997944119789
0.0351321441233358,0.00411080127048001,0.00301716497808812,0.0062548553821562
0.0265779010416747,-0.00594563719735088,-0.000980816833010049,0.00499106589738847
0.00403951167829238,-0.0179991870461365,-0.00211247282028128,0.00434469753059931
-0.00778055224074373,-0.0259745896819797,-0.00136822797950592,0.00423954873045312
-0.00704312217503882,-0.0314072137174223,-0.0025915809661606,0.00456829308833873
-0.0142698779449747,-0.0388591411084928,-0.00854109427136158,0.00566057715144205
-0.030615046951363,-0.04652522916467,-0.0185372897681905,0.00763713054107211
-0.0369767380709841,-0.0534408623249149,-0.0234051259207307,0.00938375405099899
-0.0323391423361099,-0.0607971248337855,-0.0184776933913565,0.00943108241823779
-0.0313910064127129,-0.0695518909879129,-0.00643544759731297,0.00726210450471176
-0.0337549138270345,-0.0781765373081316,0.00543359234413086,0.00287117690165678
-0.020211262440547,-0.0835063474150165,0.00852893934123218,-0.00305031802625724
0.0264794141155091,-0.0801800729672365,0.0106178764735865,-0.00836996349921042
0.0765091024696113,-0.0678100836743315,0.019153151147897,-0.0108729085465505
0.0701658212139974,-0.0534771763862478,0.0228200664435951,-0.0108027897552253
0.0208100665550572,-0.0451942260121467,0.0115546045923133,-0.010092827073399
-0.0135892757592013,-0.0422229673498055,-0.00934563400464945,-0.00811728140303686
-0.0204035623084445,-0.0344813025572819,-0.022489493232888,-0.00282515681162391
-0.0105385121469312,-0.0223809515364232,-0.0213410872707166,0.00392261621995236
0.00524051279262252,-0.00970136561022562,-0.0160965742738564,0.00778851020932817
0.017673380377566,0.00495606832731041,-0.0118788638488366,0.00726940083514409
0.0249257308361634,0.0137722148017013,-0.00798460968780379,0.00399222193660117
0.0227762662097535,0.00889249038191368,-0.00300361195294225,-0.000214731357358134
0.012469322696697,0.00483394645600911,0.00380982107213351,-0.00440219970254472
0.00510714675258702,0.0211382394958619,0.010245753351867,-0.00811469864577023
0.00345505723111252,0.0462788472313757,0.0138140892982984,-0.0113796939385846
0.00748121737021438,0.0644438050219,0.0118757273301213,-0.0144235541202026
0.0163578081612475,0.0781624525260811,0.0032525195800122,-0.0163955980727286
0.022159282994134,0.0873026639350945,-0.00720943786111033,-0.0155798939421826
0.0230912865192992,0.0882817043187887,-0.0130489238180412,-0.0117160060674184
0.0256339536857007,0.0728642483175347,-0.012792068789994,-0.00705607639204521
0.0298622251619589,0.0483794260902676,-0.00649047053469292,-0.00433435461129166
0.027827635259193,0.0366288296377485,0.00579928880267435,-0.00375131715970453
0.0149597136540816,0.0353152984108159,0.0212109866684877,-0.00350656532788968
-0.0036500076284267,0.0291581770144207,0.031719273649723,-0.00318141173473767
-0.0175886719132753,0.0167285734765491,0.0300861465699351,-0.00390585185836796
-0.0140257805597444,0.0149832752347167,0.0199684610924807,-0.00553191057256835
0.0126798458227319,0.0397667041796308,0.0115725743710293,-0.00702670853997199
0.0395209515124227,0.0686086505307636,0.0102509431083958,-0.00870370145410386
0.0400130828144816,0.0739805884913712,0.0126423950660302,-0.011151243702355
0.0206752352478825,0.0752015842254564,0.0121902225155817,-0.0136011888328174
0.0017806259606539,0.0928459634716193,0.00696536711105251,-0.0141373562242487
-0.00230072588922414,0.109164712302509,0.00140387304098667,-0.0114706229975055
0.0123299168174385,0.110040160470788,-0.00100687021143456,-0.00696587245598904
0.0397319837410882,0.10632011612433,-0.00218735451669615,-0.00334768739707183
0.0670083401037888,0.0947750620661211,-0.00298242126664183,-0.00205072893239103
0.0713629724467004,0.0616344242408268,-0.0014725062954791,-0.00242919558386661
0.0468871931593868,0.0246366876990519,0.00135468080018583,-0.00284952323367359
0.0153008415539619,0.00950962081819322,0.00366049911779363,-0.00259090350387895
-0.0024551603736391,0.00717496344524111,0.00683366748381939,-0.00206209312932251
-0.000861974769056955,-0.0125687463384561,0.0110017126802958,-0.00166115433760713
0.0144373387903869,-0.0577526553481677,0.0135847304173995,-0.00122149030773275
0.0286911395684909,-0.0876225866227533,0.0150174700174042,-0.00018671921377523
0.0272680121304804,-0.0630960484785379,0.0183696510559724,0.00173751399440485
0.0135870005666995,-0.00915277363304806,0.0248857847791421,0.0039860636694333
0.00298087492955484,0.019886715827231,0.0318900769411438,0.00513379779969991
0.00235167617182237,0.00792862388101069,0.0337222638588068,0.00429762894705316
0.00536401944520322,-0.0252944342188575,0.0313364090875017,0.00221761505915332
0.00493531837650669,-0.0496905910699206,0.0308181416665606,0.000110919260929366
0.00157720618400122,-0.0337001978572002,0.0311168042419146,-0.00118789644157607
0.000458843691319142,0.0179461851523817,0.027005414728997,-0.00134400323861272
0.00274400216141939,0.0598958404829513,0.0160724914058416,-0.000632738579266176
0.00834577618498955,0.0590559491661758,0.00203805766358461,0.000606000052856352
0.0183978169157383,0.0293103498940752,-0.0061353470941704,0.00209815571094687
0.0280655771381949,0.00516771855775766,-0.00651945600094618,0.00338834891153898
0.0307684426999857,-0.0052227046046108,-0.00684757558654845,0.00459002653741889
0.027298605420009,-0.0166887624977569,-0.00995229626502446,0.00657904661881151
0.022802844129004,-0.0414120644819396,-0.0108784508164714,0.00935079324524192
0.0175543839637228,-0.0779629189513917,-0.00883877128688875,0.0114626753238904
0.0122313179458728,-0.135032387711423,-0.0105157982769045,0.0122569112576385
0.00815106589863785,-0.210527261262471,-0.0173940883275975,0.0125894873250173
-0.003117603122118,-0.237844411246276,-0.0161802805572926,0.0127604176620852
-0.024666143334596,-0.184194036280261,0.00243241553223811,0.0120452917448715
-0.044361754201432,-0.112094015278655,0.0214105217649724,0.00966666852352799
-0.0552030248097522,-0.0641364437395779,0.0260638284631962,0.00546997109586285
-0.0598560867637188,-0.0355681215307864,0.022803201057477,0.000907411117449918
-0.0584353959098757,-0.0257118549943489,0.0160465135632595,-0.00102116780835963
-0.0525639763097826,-0.0179288321408583,0.00957578223338251,0.00157134490062512
-0.0434705567511147,0.00227056253300875,0.0087491577217312,0.00698856775758182
-0.0182031979673761,0.0139590957029802,0.00906604580418195,0.0117889522612596
0.0316129643266069,0.00128151777786519,0.00277360605010675,0.0143315895657175
0.0750817250565982,-0.0153131364588291,-0.00833881334137932,0.014516717481586
0.0683971748110909,-0.00444777844699563,-0.016610632767586,0.0123950966867751
0.0200680172478584,0.0290577305084057,-0.0197174033962794,0.0090302370205779
-0.0223949939207603,0.0544281363926675,-0.0198421859715744,0.00618780018417953
-0.0363196263447061,0.0576511172112737,-0.0173083303558926,0.0051572964648864
-0.0318345848448573,0.0548827246754017,-0.0105341213185352,0.00611472729446139
-0.024761943785093,0.0568768254434495,-0.00377378704693108,0.00693454527859368
-0.027876939133393,0.0262249199956629,-0.00529359347326071,0.00525765115981755
-0.0347534585611653,-0.0510785950204556,-0.0115699754736518,0.00180248435315882
-0.0196078942202532,-0.108232614113363,-0.0148119169834786,-0.00109323539339978
0.0180098826367405,-0.101575766196227,-0.0154667186281872,-0.00227606209761398
0.0358023573019011,-0.0573979309738692,-0.0135117646047288,-0.00224023491086015
0.0107828202653827,-0.0223906855436862,-0.0106839073726401,-0.00192475497056213
-0.0175831623269613,-0.0381205989569335,-0.0141447177020638,-0.00170130150279227
-0.0260276116116077,-0.0821470756226575,-0.0229098588740241,-0.00145962924452099
-0.0383224854116822,-0.0743673995000208,-0.0279550289679132,-0.00109228053207072
-0.0550224806806708,-0.00226406987347529,-0.025988145880928,-0.000904487614384671
-0.0600719668780366,0.0632849595325204,-0.0225711951666993,-0.001147641195411
-0.0539502647961051,0.0818631438029363,-0.0234231665306502,-0.00113779192200884
-0.0457651215903441,0.077566771849285,-0.0284360225216293,-0.000299365604566599
-0.0400105697451048,0.0787277651965005,-0.0341286720882708,0.000470248216984806
-0.0186761492397339,0.0837612337314452,-0.0381099648681303,0.000264440277202014
0.033747623360025,0.0834310537238533,-0.0404565463689116,-3.53925343867011e-05
0.0862819636202725,0.0734202986798087,-0.0398486029966843,0.000995173359378218
0.0882206160706559,0.0629958137502457,-0.0370546490538393,0.00303812844455397
0.0367935409625179,0.0642335624694384,-0.0380391977778373,0.00489547462195143
-0.0196141716127586,0.0589175690893952,-0.0443368268332061,0.00632610540196238
-0.0386221057316928,0.0256046140579315,-0.0458173377418637,0.00803565329888195
-0.0221123652505937,-0.0146494923426632,-0.0374973085962286,0.00958855789518747
0.00562433966188832,-0.0174502437262055,-0.0299743881796759,0.00809457763163403
0.0277897224814201,0.0231725250296417,-0.025581235848721,0.00222387216747754
0.0337344867756653,0.0548884422424528,-0.0178853365623143,-0.00509600055846811
0.0204480671560538,0.0426915804139442,-0.0137601684991468,-0.0108877194204078
-0.00355013689036075,0.0206052108602403,-0.0165808834261666,-0.01511068495428
-0.0237278612264377,0.0196793753260616,-0.0161393922354402,-0.0181826646205357
-0.0297593407690123,0.023296640476079,-0.0107157418249686,-0.0197331103568329
-0.0230026595001006,0.00496675606476972,-0.0103793587435424,-0.0196432003881461
-0.00869418388084316,-0.0420143577887455,-0.0208077264452771,-0.0171318836714934
0.00688291906429738,-0.0852902412514712,-0.0306682234594646,-0.0116848261200078
0.0130692667740737,-0.0825873597816757,-0.0278056994414836,-0.00610086601589718
0.0075837832446237,-0.0466191134912787,-0.0198849902425009,-0.0037411282091189
0.00179706681731527,-0.0193038685452004,-0.0207634107052301,-0.00429091409578081
0.00145497557084191,-0.0143777362286679,-0.0276396721200874,-0.00573281555354201
-0.00175181662433645,-0.0235466240716381,-0.0283765242477732,-0.00698842883892631
-0.00624728032811022,-0.0332728647267833,-0.0303370682984581,-0.00729021891044923
-0.00141906076563596,-0.035034331514587,-0.0462072427486197,-0.0054822744469485
0.0085657161221445,-0.0354720740121564,-0.055965607401078,-0.00114834773379447
0.0123358648827927,-0.0380013946616591,-0.0337114720041948,0.00360129094092053
0.0093959750650253,-0.03095761597443,-0.00330112387125649,0.00539467409508238
0.0011337942390367,-0.0171622330536071,0.00363492449009233,0.00415661704310721
-0.0102755844376146,-0.00781241616772536,-0.00214461169600288,0.0025771355730252
-0.01398513627514,0.000134230722726364,-0.0106446562491205,0.00186324881658896
-0.00966782441089699,0.00490023025487858,-0.0146281595526342,0.00246570350262808
-0.00804637401055022,0.000478381130079225,-0.00397759515421494,0.00362213922783889
-0.0110736629113346,-0.00989845123065413,0.00524673968402072,0.00208310559922788
-0.0142149425647922,-0.0227429290004775,0.00272845352141471,-0.00327559610993145
-0.011517815368424,-0.0374006813040182,0.000328861664192456,-0.0100810712573355
2.54964274609727e-05,-0.0491635060804175,-0.00273188771081632,-0.0163982475233966
0.0104276481642047,-0.0470586837654102,-0.0103693635895338,-0.020799555798954
0.00614731347023003,-0.0330424768167987,-0.0138610840023682,-0.0212989686662145
-0.00954944977060121,-0.0272955788530544,-0.0133411109818788,-0.0177938040938479
-0.0235185233965416,-0.0336021405075695,-0.0123105268641483,-0.012975392244383
-0.0292055654444371,-0.0349604953483186,-0.0102968214088378,-0.00923366227331007
-0.0258506796080021,-0.020591593871235,-0.0109981536104696,-0.00635319583760858
-0.0176811744074179,-0.00581335163885665,-0.0112740576316652,-0.00271982745747481
-0.0125974676778984,-0.0103677013831092,-0.00722599721278798,0.00183006365371932
-0.0144613919862647,-0.0194020126998795,-0.00478552670338842,0.00556365599505823
-0.0181025073941627,-0.0111387828517852,-0.00591723650858447,0.00758479958073676
-0.0161447989780661,0.00242003881124073,-0.00788765459465724,0.00855088143306219
-0.0105230667032537,-0.00734519349835377,-0.00982737523076536,0.00901244604957011
-0.00928532823567964,-0.0336397619948191,-0.0107002778606613,0.00977036585769553
-0.0120960227062668,-0.032211566685848,-0.0107197544456325,0.0121524844045015
-0.0123188455231314,0.00573065489053434,-0.0106168352016442,0.0154065333244186
-0.00932049895962335,0.0457567477197265,-0.0114771398147412,0.0164178923051127
-0.00531082003833934,0.0647433814103776,-0.0143602025758784,0.0133229816549306
-0.00178552431096543,0.0491985969071645,-0.0174486325572924,0.00696356445750381
-0.00222249213941842,0.0130718723735338,-0.0179779793113922,-0.000617791457009815
-0.00555847135311137,0.00464695546093306,-0.0165756770708653,-0.0070040011614362
-0.00789965522306674,0.0297129980024568,-0.0139046220087277,-0.0104422456913241
-0.00922959664496819,0.0424566539619745,-0.0078824075369697,-0.0111038198306908
-0.0113777215366081,0.0271280667578304,-0.00116608950609082,-0.0104269094034824
-0.0140186598357647,0.010134953117162,0.00121632877759475,-0.00926645253810834
-0.0147751154337344,-0.0033877737724306,-0.000543495451883964,-0.00680854647791499
-0.01560250877685,-0.0349289031895442,-0.00389742066008274,-0.00185866155670477
-0.0177663935431093,-0.0704785510500561,-0.00639981947069215,0.00493187804051091
-0.0173087035258141,-0.0682753727304309,-0.00626157587229144,0.0112265195417923
-0.0114059354299382,-0.035385496841106,-0.00443238935786905,0.0152208405294861
-0.00315423541198514,-0.0116878372990545,-0.00371753252952435,0.016895241135964
0.000778509803715702,-0.00819604321714856,-0.0058746496182126,0.0172195024027523
-0.000927821516417024,-0.0215051000505851,-0.00702285263270495,0.0169310628634369
-0.00134939195996472,-0.0501956946946912,-0.000995195860035391,0.0158313036317554
0.00711865492144461,-0.0731460742155389,0.0106090594072528,0.013115996443883
0.0164172123837204,-0.0629130254969277,0.0207123790305357,0.00890958803682452
0.012232895779195,-0.030961278608985,0.0218055941939584,0.0050589072496291
0.00234281329633501,-0.0110596898593218,0.0124955569561237,0.00352940820047873
-0.000120453994441333,-0.0106153508970226,0.000520014701109378,0.00417027862091982
0.0019070217568848,-0.0163445490137007,-0.00720620313374977,0.00513057122867775
0.00350372209450509,-0.0194724311627077,-0.00992773829680053,0.00492170412499805
0.00531655147646659,-0.0130062573183999,-0.00992846940800194,0.00366292649324293
0.00757129709604025,0.0114519723079012,-0.00878136710842547,0.00226352813232379
0.0108730290396461,0.0333817568814077,-0.00649945930491159,0.000917363422893682
0.0145544397810946,0.0244798385770341,-0.00397922033778808,-0.000768224928232265
0.0155330334234126,0.0125115165673404,-0.00178212933762625,-0.00303017504262307
0.0153791611058202,0.0284154741419095,0.000927908958077949,-0.00532189638429641
0.01682139306927,0.0526813138739868,0.00416817239501443,-0.00639069681833214
0.0181407616408237,0.0698150635988229,0.00683749824242869,-0.00573671830599446
0.016750699063152,0.0696870513799775,0.00855675537640971,-0.00374025004281197
0.0150241309043687,0.0420088776703645,0.0114284850019006,-0.000623845606009827
0.0149619299609441,0.0147422365549015,0.0149137517528895,0.0029977565495451
0.0140773783603152,0.0189563573297375,0.017259783468569,0.00587167285984118
0.012160735591267,0.0382195463221589,0.019708940433228,0.00679843623457025
0.00907800979723828,0.0436590333808301,0.0214049474152933,0.00516856104612713
0.00487123137342894,0.0368168692924189,0.0208546101205796,0.00166134614916323
0.00340077968195612,0.0351226742332202,0.0193607252787531,-0.00198885482069136
0.00652643360042318,0.049283271302228,0.0170820432425866,-0.0044609829834604
0.00987877016651255,0.067242792297511,0.0151043299351374,-0.00560060172526766
0.0120910581649278,0.0631347733918791,0.0144024667893136,-0.00551286119711764
0.0205881568239597,0.0422262433895239,0.0123362514696921,-0.00437495684181844
0.0331519987756853,0.0335430541818885,0.00905862422846815,-0.00327969031536236
0.0377974542568267,0.0344640359684826,0.00724647146126788,-0.00303828805115591
0.0338799854072668,0.0135542144300629,0.0071571182912424,-0.00334021304346566
0.0312454342988913,-0.0205435901571558,0.00822618870564275,-0.00418517234918832
0.0337294988964351,-0.0331280700366041,0.00973919203841245,-0.00549452203337618
0.0326666385212456,-0.0346134964832389,0.00967309888164623,-0.00576543096865867
0.0233024795825744,-0.0444616749530513,0.00835061008763947,-0.0034327689213801
0.0144470303362675,-0.0533100930629841,0.0080081939536564,0.000756640078262736
0.0151417340163122,-0.0457364323371789,0.00795095773506745,0.00424390119058727
0.0223486909584366,-0.0177275902722518,0.00643911927478628,0.00542050295444641
0.0267527238164012,0.0266267788941912,0.00459091691240814,0.00476480758166422
0.0279006170719432,0.0900382862588491,0.00460203322503067,0.00349533505127572
0.0296318907504784,0.163027206674739,0.00417103391878527,0.0016606755878064
0.0286642003095511,0.214349943416886,0.00107857424997252,-0.0014194033857443
0.0238424514537256,0.227072877995848,0.000578278091434614,-0.00566530823035726
0.0212227866195423,0.21070851388088,0.00570986394661336,-0.0104105057485066
0.0241035515175399,0.181147262582749,0.0124626248002717,-0.0144922557746308
0.0288568907457358,0.138765487271107,0.0149477880627651,-0.0163288777927807
0.0309528996370771,0.0858605744509082,0.00759841908260534,-0.0149734483363217
0.024930168977644,0.0313690332458643,-0.00491647297732527,-0.0104132758473406
0.00936974651644267,-0.0298311118933113,-0.0119477263625754,-0.0034808427193653
-0.00539996621337194,-0.0927983978570439,-0.0108238602353038,0.00363173459693077
-0.00978012627097671,-0.136361248926981,-0.00697935400855742,0.00819589119526877
-0.00779314604851945,-0.146784108274863,-0.0063513133364142,0.00904039396000615
-0.00652829728066124,-0.138754488775638,-0.00887964449172744,0.00709027518135044
-0.00369969466584825,-0.137473415671254,-0.0144233681977636,0.004255341015267
0.00767249669200544,-0.131928801811421,-0.0210130070223665,0.00254386086832922
0.0338244994632535,-0.0965534761181051,-0.0241559090580145,0.00261088054254767
0.0623220810595538,-0.0407571731739815,-0.0257623830169473,0.00295669522405833
0.0671414128463143,0.00897281722508922,-0.0284166985186541,0.00274684640275616
0.0530670409054131,0.0369642630621612,-0.0301910803311988,0.00302886948866162
0.0444755326552716,0.0396960137394154,-0.0302080535737998,0.00427680531068883
0.0450309525557756,0.0371594814617117,-0.0294166276986076,0.00568506805221744
0.0495893725735275,0.0523610957153772,-0.0253595902015112,0.00599615608168606
0.0537435066453825,0.075507791852732,-0.0176521269092171,0.00445223351789747
0.0480814495916518,0.0808131165841719,-0.0101974321203886,0.00142484026650639
0.0322270914592755,0.0608879484654005,-0.00314511838894404,-0.00168188190659258
0.0170766471169218,0.0297526133371081,0.00414458773271047,-0.00363254063171988
0.00948051615507775,0.00811341250245538,0.00925209769876696,-0.00466325853279573
0.0102031455096619,0.00614023813268516,0.00842396396925629,-0.00532227090511674
0.016345419838096,0.00612204046849089,0.00209606825002397,-0.00503858970897221
0.0236729965490963,-0.0161782595441654,-0.0047987954528101,-0.00295285382841801
0.0294114919675938,-0.0412255351369367,-0.0111506310013461,0.000408600373831696
0.0310729408814394,-0.0467622924245416,-0.0156212789322103,0.00307017899438727
0.0294981240985589,-0.0550155997239762,-0.0147342016391571,0.00360801896426053
0.0253445611739818,-0.0708902034053139,-0.0100449705933136,0.00266863062457244
0.020789929818671,-0.0744922157653371,-0.00689305750141608,0.00182824603469622
0.0242057838673307,-0.0666267425303321,-0.00914758168230824,0.00184496277071169
0.0360524623663164,-0.0620351236603655,-0.0116469484196095,0.00251785993559453
0.0461626127874714,-0.0717393565194501,-0.00864608200915755,0.00295571437382674
0.0521211753180169,-0.0764935357342935,-0.00575331469208471,0.00190471598832294
0.0579503933662658,-0.0446865467037147,-0.00693085223157374,-0.00122591312602163
0.0600240581450474,0.0024191292500883,-0.00739953385002454,-0.00569352988827224
0.0550561742566479,0.0237844705339078,-0.0065069996992557,-0.0094870343140378
0.0443992648939348,0.023297873926982,-0.00691650208630667,-0.010333083258438
0.0302981300037403,0.0196287717922841,-0.0060282252077454,-0.00814543481684249
0.0214466570892544,0.00481052755391508,-0.00301929932890164,-0.0052580104458178
0.0232294478250852,-0.0373420052660064,-0.00172648134267596,-0.00297723616316231
0.0317991398237383,-0.0905269868678464,-0.00479079912816275,-0.000576233666461753
0.0403191023632895,-0.110541004676368,-0.008716498496083,0.00204471685818173
0.0427316030154049,-0.088040202699811,-0.00904493790830425,0.00368682836899814
0.0372638677974645,-0.0579607688381616,-0.00820530153764466,0.00369629651687689
0.0230193710867975,-0.0390564774384706,-0.00734240617015089,0.00233271234754845
-0.00237217241071635,-0.0328156273292823,-0.00011773572689389,5.18339222487993e-06
-0.0333907612331707,-0.0358305252065356,0.0128828853295391,-0.00250971895303173
-0.0478385847068833,-0.0420255720014526,0.0203588462079983,-0.00443949291387079
-0.0372665295005256,-0.0578301728628838,0.0199262001734328,-0.00530628182015936
-0.0230515354872918,-0.0639974772390047,0.0204412490121905,-0.00449739971881786
-0.0151601303093667,-0.0371244611428322,0.0272187512999302,-0.00221914028571384
-0.00484760245610731,-0.00458253457440257,0.0323618891061701,-0.000323363555979358
0.00414236860019128,0.00937997063882941,0.0271239687634133,-0.000147839755138497
0.00886256136738184,0.00248225228416441,0.0155333194165066,-0.00112226255330013
0.0137369252267675,-0.0292641842433784,0.00403378395222586,-0.00239465925496616
0.00830362349255464,-0.0621996643020507,0.00169193330827986,-0.00338260424418833
-0.00983757098776093,-0.061418123264291,0.0108303537542189,-0.00416298723987191
-0.0217910238838077,-0.0359628072860554,0.014523577598431,-0.00503125756277593
-0.0218300114205726,-0.0238227246491406,0.00307382292078914,-0.00516048492079082
-0.0181414281385065,-0.033795635303974,-0.014182116671833,-0.00399121151116802
-0.00453495553748595,-0.0415350142697752,-0.0282654968968063,-0.00263876214226338
0.0209778621799618,-0.0348079042113552,-0.0344835710421941,-0.00250350278291765
0.0282663076145924,-0.033354118992538,-0.0347649563441225,-0.00275802045227841
-0.00710896301553827,-0.0437931287975292,-0.036437972260038,-0.00139940339399808
-0.0610890083341709,-0.0484400554158754,-0.0407867160834517,0.0017540846514813
-0.0914691520093045,-0.0469149563718446,-0.0461902887165453,0.00564812281043356
-0.0901639326758575,-0.0451551938188131,-0.0516419908572426,0.00884737104744126
-0.0775084785475504,-0.0341251782644154,-0.0516091391733301,0.00996467445086284
-0.0622977558757908,-0.0156378738132934,-0.0383912882761548,0.00950976127389007
-0.0419033082487493,-0.000227127245736473,-0.01906930346847,0.00868780866137244
-0.0222162938280331,0.0197376934835741,-0.00995753687257556,0.0071551877913807
-0.00602134007216894,0.0450368586007336,-0.0132549184224729,0.00465271573382138
0.0114019075224921,0.0621239706764757,-0.0191774830135074,0.00233676535506723
0.0196861369803425,0.0704459474454537,-0.0199989691741729,0.00107498574595603
0.00699580339728375,0.0742229891474223,-0.0142006372095855,0.000359732002320408
-0.0141183351431985,0.0657111023876375,-0.00296969568833328,-0.000390654405009964
-0.026905625445927,0.0397553162371463,0.00529441204249916,-0.000884455579315011
-0.0278576632724545,0.0185182141712923,-0.00291980146861852,-0.00102141855043633
-0.0165107493287085,0.0180972701757697,-0.0259280974679849,-0.00126589224276884
-0.00138931036167746,0.0233792919246956,-0.0448859432826175,-0.00173777829242833
-0.0027995433878468,0.0372959073842849,-0.042733096741436,-0.00244482317143829
-0.0274418704717365,0.0645725369292108,-0.0242864674342369,-0.00401451378125382
-0.0563385812739074,0.0810304584822684,-0.0140032969280648,-0.00649562280555056
-0.0677629287344434,0.077171063830023,-0.0233491583256561,-0.00777530619577004
-0.0606952667305137,0.069241121012356,-0.0367075385123761,-0.00543882950725744
-0.0436661811835612,0.0619461285622022,-0.0379948359159729,-0.000303117878411229
-0.0217096725275643,0.0477522083508345,-0.0329104102541746,0.00430314235989538
-0.00796302681222472,0.0315235359672713,-0.0327575753572015,0.0066802019317127
-0.0126909406011047,0.021350829931874,-0.0316535246155103,0.00752724228564788
-0.0199778270501238,0.0142817948992103,-0.0218557908413957,0.00709970292915805
-0.0122008278131907,0.0100312471276891,-0.0112646848238321,0.00444206940252883
0.00721010282943648,0.0184831237593053,-0.00678799255390133,-0.000277453598732338
0.0239249303815546,0.0302416998334134,-0.00695063324689466,-0.004915545517609
0.0260379279237345,0.0295618880074998,-0.00709218980355474,-0.00703993586017071
0.0204935491123835,0.0274932811594374,-0.0029280626280144,-0.0052259957729633
0.0161590895677258,0.0228914410261049,0.00245023090824693,0.000526525678926222
0.00344714873915691,-0.00444416621640006,0.00351809339750683,0.0081066058249415
-0.0183113039784566,-0.0490360377707333,6.19662829966228e-06,0.0133462185416526
-0.0379432424605386,-0.0793876538301087,-0.0032189018580367,0.0132357951362723
-0.0478632130610641,-0.0675217845663687,-0.00187548068176841,0.00816039083888891
-0.0436744224894545,-0.0218953854901585,-9.40747191787231e-05,0.000584909985972402
-0.0358234796062479,0.0187986277661326,-0.00318153168797341,-0.00621871540058733
-0.035999482240997,0.0344826495836721,-0.00638507396080155,-0.0100783979851822
-0.0351269987430849,0.030987484236725,-0.00264725972701063,-0.011472839127315
-0.0257646148722369,0.0166579594427475,0.00609675095238371,-0.011718446336219
-0.0129549423067591,0.00476216743324486,0.00999058876926641,-0.0108023045953332
0.00357290794775272,0.00728295441515247,0.00610307561298714,-0.00823936354121948
0.0176624425247428,0.0223210311877608,0.0035055803809453,-0.00431123238466277
0.0151117958648002,0.0421749057906642,0.00583028140168013,0.000587348943462066
-0.00099390992824184,0.0562947295159634,0.00830712491328569,0.0055997022760804
-0.0159993140772589,0.0584989327499232,0.0100124427444214,0.00874346673590647
-0.0231289743036886,0.0537778515941532,0.0153789327959465,0.00880282913007027
-0.0268874430704627,0.0451685725705341,0.0230054266144129,0.00655572282411705
-0.0321947075930029,0.0341374529264504,0.0254427953374945,0.0037324537532788
