0.0129720655941629,0.0589186441104396,-0.0191004380551835,0.00649450495990322
0.0580322068569016,0.0415146542486218,-0.0400630343572279,0.00664146206244256
0.0850712092480726,0.0223957417776915,-0.0439490926608748,0.00773069449233537
0.0743529907585424,0.0138019006816075,-0.048145246358328,0.00827047219517199
0.0307097864783026,0.00331113550292224,-0.0584746494585443,0.00554657816718325
-0.0234533828866778,-0.00509376230381851,-0.0508368424963567,0.000110233438374344
-0.0547408981627116,-0.0111955894405317,-0.0205863481750876,-0.00396863257651659
-0.041329355362888,-0.0152439279231764,0.000522134995975948,-0.00452869729100582
-0.000995105208770934,-0.0155325652496968,-0.00620268790637889,-0.00351819436325531
0.0228830311077792,-0.0150789792752917,-0.0117802200016117,-0.00367300690117717
0.0039512925324499,-0.0141848319523986,0.00455157554139221,-0.0055684122582195
-0.0240367684592339,-0.0145435485962317,0.0203472779820127,-0.0076075972661303
-0.00613554560519833,-0.00506626438224657,0.0323441850333504,-0.00768749413569144
0.0281360650087252,0.0264613902820134,0.0607783843888509,-0.00449614629359558
0.019869994325087,0.0479406622648456,0.0719941402807981,0.00120588243816231
-0.0102657154846619,0.0321540971173152,0.0298832297415141,0.0055885891954891
-0.0186843706019206,0.00332871053549522,-0.0247955201511158,0.00505529329265505
-0.00538063193970059,-0.0175824913351384,-0.0439147621893255,0.000945864921745084
0.0139365403185929,-0.036641243756623,-0.0312010648972862,-0.00250775476952093
0.026423714909817,-0.0544709029265553,-0.00807100475928772,-0.00399770695469389
0.027482108122569,-0.0561069330194359,0.0111501498749519,-0.00527287640934261
0.026582551482783,-0.0495235361965322,0.0151435808783572,-0.00701051351007721
0.023657961144926,-0.0589391144172743,0.00245009534063342,-0.00847538068133294
0.0102432480856638,-0.0736143715034415,-0.0132093488637868,-0.00935833598264993
-0.00861346285240655,-0.0841459002275709,-0.0198797029799675,-0.00930237990999382
-0.0138371096949117,-0.103623145196546,-0.0166738009431125,-0.00681391375549851
-0.00639872405711726,-0.116533149266089,-0.00339599770835469,-0.000254878317976838
-0.0127373299497633,-0.0941008854900846,0.0137868360094372,0.00875480864478877
-0.0320188667841888,-0.0381308992870894,0.0241036857264943,0.0152069276693215
-0.0373503290569635,0.0184175840469394,0.0223264658723238,0.0160381979905386
-0.0149333318292136,0.0525529768391412,0.0106003945810351,0.0130385516000672
0.0131949585873495,0.0710558813856438,0.000255618937287278,0.00924724064777311
0.0135984161047845,0.0835401920142306,0.000264734161502869,0.00505814535532843
-0.00807254117121031,0.09463500350383,0.00996020136258487,-0.000546511638627758
-0.00929506825354955,0.108202759620638,0.01654346344633,-0.00708706933776149
0.015291858741822,0.12614903400835,0.00754196106987378,-0.0128125447984926
0.0191349483718425,0.141424391493507,-0.00926473588502071,-0.0168503352547384
0.00605451448079497,0.133333193173079,-0.0263475805209574,-0.0191466725633128
0.00999928817055114,0.0743134652243211,-0.0428848076188184,-0.0194195882363528
0.0184363481437821,-0.0230068975822407,-0.0476937015139115,-0.0179117887113101
0.0142246925658054,-0.082809824632443,-0.0324591338611256,-0.0145485113639906
0.00778521372875431,-0.059197738449905,-0.0047915083150473,-0.0077913472897819
0.00895114661057707,-0.00217313532670624,0.019069968793553,0.00229485328736902
0.00526219192632947,0.0271242818941455,0.0309424379533104,0.0118193011705082
-0.0187349506818887,0.0337618330002917,0.0350688443049171,0.0170669135212222
-0.0538899454250883,0.0273508595333965,0.0353916609938945,0.0183458524385837
-0.0604544752645443,-0.0182613346919751,0.0236871840107089,0.0174249763990231
-0.0147374263524061,-0.0744365496978274,-0.00407659584517236,0.0147267044465094
0.0411957723334702,-0.0747263291368638,-0.0228195049209449,0.00945124467052259
0.0552290729685869,-0.0334485507697009,-0.0113445876281062,0.00119114799501423
0.0336681561185972,0.00634312521725137,0.0111856612081854,-0.00807876795875799
0.00318862112647515,0.0465671877800955,0.0203527421189502,-0.0152243801995322
-0.0241163668677196,0.0700481042900194,0.0136259529320447,-0.0186370086832394
-0.0293610291766224,0.0581248449531388,0.00121331589030304,-0.0193137436053982
-0.0095785981541299,0.0481432398972077,-0.00830116521805791,-0.0186766966719131
0.0113685795849361,0.0580831384720853,-0.0192424397476611,-0.0161294325357955
0.0154476251988448,0.0720174203462278,-0.0263395462217796,-0.0110741946424186
0.00555858099287744,0.0841387887731103,-0.0205678290576837,-0.00453933119871143
0.00311896050598418,0.0863857148896123,-0.00899859229998475,0.00245486156843916
0.0191608669578938,0.0787120805209425,0.00207163302260337,0.00934681263606942
0.0366732642181126,0.0792485723802274,0.00925951858218952,0.0153187861041414
0.0338134422760049,0.0884851034722815,0.00427263944182322,0.0186892197966174
0.0121628015345993,0.072172467349234,-0.0200945540034793,0.0174085978769831
-0.00544622146042333,0.0242789164772673,-0.0424311522470684,0.0123386450912906
-0.000601863422134873,-0.0151077389471383,-0.0342978347335184,0.00710383680451961
0.0156816015117129,-0.0211069882139589,-0.0115910017099124,0.00411226857975535
0.0215080846617325,-0.000531791163638551,0.00303839894905573,0.0037048167342854
0.0160287593344898,0.0235246888235542,0.0158937771875229,0.00493685614825121
0.00419267887170997,0.0345475351760701,0.0339119200682944,0.005813625422365
-0.00990162410914487,0.0172078993862968,0.0412435301120052,0.0040515780556634
-0.00669750516897843,-0.0512122857084955,0.021741302550988,-0.00131730201975824
0.0204895993540091,-0.120310585895319,-0.00413617880446143,-0.00928509077179785
0.0406702857134404,-0.104431211147198,-0.0113725093353021,-0.017145021956856
0.0321434288211984,-0.0425414217036489,-0.00909197607904697,-0.0215905328261346
0.0137272827668689,-0.0124602137962958,-0.00896170992330419,-0.0216151380453869
0.0146991546603525,-0.00301928300798507,-0.0134696194117277,-0.0189682483541834
0.026472977863602,0.0213928840302043,-0.0219590811100925,-0.0157268631357039
0.0216506495074917,0.0600907428305422,-0.0188262545174435,-0.0123595327882496
0.00681147685812086,0.085968407751888,-0.00138276671490271,-0.00700792702251638
-0.00744954185923136,0.0902904711546305,0.0103464280498968,0.00192611768160247
-0.018695095704305,0.0802929714973698,0.0121145440084009,0.0129569391766839
-0.0277946938989016,0.0551188065138789,0.0200697373351443,0.0233989823029133
-0.0413218591822823,0.0232884217511236,0.0353333979446088,0.0306423711362551
-0.0420983242605284,0.0019612962491901,0.0371286017712783,0.0314167292140279
-0.0208203066199396,-0.0269946204085411,0.020856810504236,0.0245781510251213
-0.00741168984941759,-0.0767112025056083,0.00504230719064707,0.0129110221920904
-0.024708555763576,-0.0953322077891827,-0.00665954674313794,0.00182510003938077
-0.0454723210937664,-0.0677388116760222,-0.0209140108167506,-0.00270593585730478
-0.0393720738301184,-0.0427396939689274,-0.0267288614549931,0.000449960257368623
-0.015633161125737,-0.0336244749028252,-0.0106242754286031,0.00555668503616661
0.0104316776654217,-0.0259575454177125,0.0136259883908077,0.00683624704656546
0.0276953783099699,-0.0133137192156586,0.0231419036772338,0.00479959266559354
0.0334593442553074,0.00248031718621908,0.0210594826204775,0.00463979832713361
0.0372731833122163,0.00764834831795939,0.0155361644162223,0.00960753741875346
0.0373681185027693,0.00495710639687769,0.00729674993101053,0.0158521003384612
0.0263603116994989,0.0114244863036928,0.000583145631866755,0.0160040460242664
0.00601623187481349,0.0193298712833302,-0.00766858868773596,0.0079218670212492
-0.00995653831432248,0.0149893495471239,-0.0221434766362263,-0.00380672470965187
-0.0123544042284599,0.00505445405795911,-0.0363033661079602,-0.0132724623594595
-0.00755536137641616,0.00191591293324845,-0.0369926912162593,-0.0182362781292259
0.00117247799866198,0.00387140746675625,-0.0216340855876882,-0.01993842915823
0.00668985079546815,0.00315205498755538,-0.00122555818596006,-0.0192340043875369
0.00990461859762538,0.000588659662129968,0.0142323006954731,-0.0157493542104611
0.0193888465370675,0.00165510569887138,0.0188067267063005,-0.00969989463304006
0.0214420086275442,0.00490552837562821,0.013347687469217,-0.00242517219036308
0.00337701922779673,0.0047031611472077,0.0156741928628145,0.003760376449213
-0.0233758543235608,0.014429656974068,0.0441928717590151,0.00691358736328999
-0.0365760975443941,0.0320723736262073,0.0715834261862323,0.00737810332814999
-0.0313848509424649,0.0315447108060123,0.0607352259718551,0.00678704998240721
-0.0198179001491753,0.00895066168857255,0.0196642713432207,0.00602473717500842
-0.00558259887710476,-0.0286952894809432,-0.0331079187456042,0.00495648546168959
0.00245369264831399,-0.0659553296958576,-0.0702086363953393,0.00356129110267197
-0.00588471032394761,-0.0762598818605096,-0.0601004194731784,0.00287917959099508
-0.01355378771718,-0.0617893199188173,-0.0235416646880697,0.00483136781880848
0.00258803573165372,-0.0480624607799019,-0.002957617068381,0.00977647090588018
0.0321986778144067,-0.0337779789709214,-0.00398425068258995,0.0137410798551898
0.0495610300236926,-0.00908205838903264,-0.00545273549550883,0.0117527234061103
0.0560081461072598,0.0159976971995704,0.00843920306891746,0.00385518958875368
0.0489516611714486,0.0360206321218608,0.016858841223797,-0.00561019048369339
0.0110702785044344,0.0451750270876574,-0.00214836618915361,-0.0131852386631009
-0.0393868235810191,0.0400973233173825,-0.0206154480332438,-0.0180703606137298
-0.0728605127198805,0.0340139413938438,-0.00558615686909867,-0.0191182503364506
-0.080615052338246,0.0398641525123953,0.0257149377230874,-0.0147200211144984
-0.0624008274380099,0.0553577175035699,0.0347960307507922,-0.00683432555524808
-0.0235598700155918,0.0562055411014896,0.0109701366284003,-0.000571074706343465
0.0202146204784511,0.0344149325338663,-0.0180951464068712,0.000305918008296304
0.0472268367239304,0.0147981000035738,-0.024726232941403,-0.0040204234246328
0.0617336411158871,0.00926674027437395,-0.0217857220409504,-0.0105195488659136
0.0791870579286334,0.0114536819876019,-0.02766765901957,-0.0152708656736768
0.0836914045602288,0.00994186637519706,-0.0360029667992135,-0.0160906888905397
0.0532418073963291,-0.0123663715100007,-0.0345227825381844,-0.0139602019544268
0.00317305359515981,-0.044042174662981,-0.0121459174785028,-0.0105094371011487
-0.0274947749729541,-0.0456205615143145,0.0231910681757673,-0.00645445695389479
-0.0316307383062353,-0.0230354658109723,0.0347672192486681,-0.00216162870031778
-0.0362214806199781,-0.0121836818149113,0.0128722607087565,0.00164164313708303
-0.0450910655015982,-0.00345856014693094,-0.00869076802703592,0.0038370997074236
-0.0360752912269253,0.0193872823466848,-0.0133330268831837,0.00432235128906644
-0.00671742849778583,0.0367831260443138,-0.0127363022317169,0.00451017673771952
0.0183783419837745,0.0362342584274335,-0.013223838273844,0.00511949648313842
0.0178848478888698,0.0284204802278148,-0.0111193480006791,0.00453133170547963
0.000638155207224194,0.0240291494028973,-0.00681505905746453,0.00114953454957343
-0.00457276615490093,0.0246013773509815,0.000783666451886673,-0.00368120617433005
-0.000205348162670812,0.0286583298822093,0.0130351654926591,-0.0067547993449808
-0.0094041214328086,0.0256607826011817,0.0192952665902065,-0.00652667849478275
-0.0281033817216733,-0.0263062797461834,0.0142519253686479,-0.00421352248609508
-0.0381720430446972,-0.111755363428333,0.00544696761174659,-0.00146539582811172
-0.0292892326220259,-0.136428149258794,-0.00807519648113199,0.00118112127940158
-0.00854759893258099,-0.0948328467066157,-0.0264863228590261,0.0035577965730636
0.00836904089683751,-0.0504686119544876,-0.0343891293986128,0.00514298816067818
0.0191427961428685,-0.0221142866306377,-0.0264917547289817,0.00587194643883364
0.0222684390961019,-0.00721584780839823,-0.00807339387936789,0.00748385844515429
0.0221610032293256,-0.00605669560587453,0.00610004151554091,0.0111231863851455
0.0316479099253343,-0.00111544655698634,0.00343654647925155,0.0135862964768983
0.0252219228771107,0.0120746515239885,-0.00883752448584548,0.0107827374505315
-0.0121634967814674,-0.00230655663012171,-0.0252787368123973,0.00280577823662279
-0.0405368924928264,-0.0307769926075919,-0.0181747834007111,-0.00642246476322455
-0.0364696377744402,-0.0297877738019964,0.0238434336930472,-0.0115500557090332
-0.0292184955506678,-0.0198429187033572,0.0507691848877734,-0.00979197311155647
-0.046962569157637,-0.0116581680576275,0.0461706045556752,-0.00347839943042016
-0.0605765371311678,0.0183759152268193,0.0423983897135014,0.00260393046754269
-0.0435757887661697,0.0549491200536111,0.0491228444483759,0.00559414496938979
-0.0197369951592917,0.0841149761072181,0.0606913659334159,0.00639922143204829
-0.00662991685139047,0.112236464805439,0.0592090976127812,0.00715722157865454
0.00879357872002426,0.109511554679696,0.0193220532062406,0.00713064725423028
0.0235960798902895,0.0534775730373488,-0.0304867214279753,0.00367022381180316
0.0154148587216556,-0.0181641240175887,-0.0421322138554595,-0.00262118179649382
-0.00014384954445589,-0.0541959662668764,-0.0205836634765927,-0.00671509931286502
0.0107760332485694,-0.0618638954145832,-0.000286380707465341,-0.00483110388187082
0.0337246284699425,-0.0879450988075646,-0.00178218407506724,0.00137620386329852
0.0334875969471033,-0.124154282050577,-0.0197562676811956,0.00805400417860489
0.00782237052592666,-0.130114463707735,-0.0356575798757047,0.0129110275301265
-0.0131766689457406,-0.0974820075093114,-0.0347662551954664,0.0148155126824311
0.00549928412184596,-0.0388477563352059,-0.0199760818034278,0.0139231312440319
0.0382289287796215,0.00988037909907273,-0.00875682621650167,0.0123824372943735
0.0335501960015643,0.0292898228615172,-0.00115921228598117,0.0115610264074728
-0.00249980622955984,0.0473420173021674,0.016325491790406,0.0105329886622601
-0.0376466731254271,0.0672002776818588,0.0337724926876196,0.00851441809566645
-0.0491802366444423,0.055200658870123,0.0332829492435191,0.00536588826131827
-0.0343612181794814,0.00322457796364263,0.0181662549554103,0.000801893276532836
-0.010548194975501,-0.0580718517953597,0.00601648894572661,-0.00477808524259883
0.00920584765463005,-0.0838175196914352,0.00618199030236494,-0.00996341277064862
0.0233981944936879,-0.0623381616428521,0.0131620148594864,-0.0128891846561042
0.0283777525690645,-0.0258621275187253,0.0181128891767458,-0.0125359498487369
0.00421434598509189,0.013884958224479,0.0227637721320121,-0.0099935574585236
-0.0409325327734815,0.0589575775278464,0.0282535613305465,-0.00731712112122997
-0.046982796178282,0.0752148849873031,0.0185880678902418,-0.00531111588198677
-0.00868230491616582,0.0594163750870611,0.00296163136083382,-0.00345588258219432
0.0177157036785898,0.0490450948531107,-0.00231547780898438,-0.00121553329869924
0.0178441333062739,0.0430784566685586,-0.0129601075690289,0.000927587446351335
0.00775786503405786,0.0282000835858012,-0.0232038580790343,0.00150103413731035
8.28848957396657e-05,0.0116987830301362,-0.0196463390212921,-0.000550811327507368
0.0144902691281904,-0.00275198653237867,-0.0232585157640725,-0.00386539503806204
0.0529206381923587,-0.028995701950406,-0.0402550931390613,-0.00503736721387872
0.0818375283955187,-0.0762758702203465,-0.0463109029447513,-0.00243466443156922
0.0763323355524892,-0.10966547201393,-0.0361515285794276,0.00187764219713132
0.034649770180408,-0.0927088830323484,-0.024589149699107,0.00507657942916052
-0.0276818404522754,-0.0492016716292439,-0.0172330425390932,0.00630983582441801
-0.0625059808980584,-0.0181906029320484,-0.0110978088623052,0.00613623674038224
-0.0424090140938053,-0.0192822915399909,-0.00424434835885425,0.005266870546263
-0.000991516326176098,-0.0600208878703954,0.00202086471909932,0.0033431028658162
0.0178122598908744,-0.0918944569608815,0.00443634605780671,-0.000634559666721116
0.00572431998184487,-0.0616537051393702,-0.00222261809599408,-0.00619712839055857
-0.017880161636023,-0.00267932068507704,-0.0102824316903106,-0.011618795937222
-0.0356774194802921,0.0310313520177108,-0.00160107105497614,-0.0159518231281066
-0.0430819234231982,0.0324955589630943,0.0185924752992795,-0.0189886231067668
-0.036769189665537,0.0206153751637438,0.0305612721177505,-0.0195946180318555
-0.0159178917217163,0.0146357091090352,0.0289189365273724,-0.0164970200929687
0.00426399158790029,0.0171103711899408,0.0236679143211202,-0.0108593588522681
0.0110753123456662,0.011587363727887,0.0199650454529469,-0.00559178390932784
0.00690444981065564,-0.00443652760949968,0.010600503303261,-0.00174133105054295
-0.00355283446718344,-0.0174351140404514,-0.00401434118905106,0.00205903237612985
-0.00946960275829704,-0.0277835800903406,-0.0170899837753343,0.0065712286783093
-0.00547353941444935,-0.0461736288149513,-0.0265805841822719,0.0105096085947327
-0.000577567986268106,-0.0670558147450653,-0.0287523982361699,0.0125592243668761
0.00447725348193592,-0.0619665476963209,-0.0179587422000739,0.0128737996613348
0.0137005184807967,-0.0321905249550357,0.000291966545161334,0.0113913597955247
0.0210981311502534,-0.00580216049340443,0.0169586463210784,0.00834369232300055
0.026476626621074,0.013036101676841,0.0271184160204949,0.00633164028398424
0.0349099152857927,0.0185311569999582,0.0253611675713206,0.00672785566291273
0.0296561724255986,0.00288995967465646,0.0159634584666827,0.00705338731115008
0.00290957338342386,-0.0208226365690496,0.00872876204253952,0.00487435689460492
-0.0194053958332502,-0.0345525860801179,0.00753217670516061,3.75039973221636e-06
-0.0327823488714979,-0.019838241802427,0.0131186746009318,-0.00635183972753419
-0.0449626145153044,0.0228514729061161,0.0186335158321592,-0.0113908491080219
-0.0412111879377005,0.0588577299594685,0.0183779246250245,-0.0125456269635027
-0.0212871070124877,0.0582389442297798,0.0197998026972151,-0.0109615556571911
-0.000890094553131678,0.0368832527196764,0.0215790799475078,-0.00904663762108905
0.010681595906032,0.0164284354601237,0.00822985109316001,-0.00620246283315072
0.0168092800758843,-0.00758432739086714,-0.0163782450212854,-0.00143125624500584
0.0252041310097248,-0.0282434993148645,-0.0248487058890862,0.00435050163087433
0.0252557526356432,-0.0369120180881074,-0.0165342898016999,0.010392212951772
0.0132815044843522,-0.0278112272053944,-0.0133000396639721,0.015572258546229
0.00889880530555946,-0.0029931419629472,-0.00893145455033627,0.0175869782408523
0.0100216295786662,0.0122866244394088,0.00504114308746694,0.0157747876520485
0.00401752772204566,0.00605305400692483,0.0129029943017295,0.0116422120162214
-0.00109098620773423,-0.00511765719799545,0.00586075613969777,0.006564899455336
-3.64566446868807e-05,0.000332208884440827,-0.00544700331730632,0.00182323242225242
0.00197954231241228,0.0135149876658599,-0.0119659215607039,-0.00105797045199843
0.00110377725862461,0.0188754607402947,-0.013092886681959,-0.00133948364175303
-0.000615808286829674,0.0156087632777658,-0.00640878027290557,0.000517807512500772
-0.00555875757390709,-0.00184834727321092,0.00300905514103427,0.00265537071867068
-0.0209476296801639,-0.0123523696193956,0.00602018810125134,0.00288890352299842
-0.0334939397332544,0.00630872404101662,0.00125183994266726,0.00129525674178197
-0.00843874745423771,0.0280209523249706,-0.00804284114668695,-6.16486702925028e-05
0.0472552152867556,0.0316873562268689,-0.0153761946705554,-0.000277428330241496
0.0718725211747052,0.0275821108991552,-0.0143007810390842,-0.000337371838585413
0.0391852534720479,0.0265736893884088,0.00308875279733125,-0.000105524612037438
-0.00464894207006793,0.0292611215110378,0.0218871557198186,0.00255146954683447
-0.017469451970517,0.0224564068120528,0.0108109840902284,0.00744730007596907
-0.0100465458986626,0.00881133450301066,-0.0142092648233256,0.0106437740848777
-0.000115223742271124,0.0123725596893713,-0.0197454510235342,0.00920685003849734
0.00169582902683733,0.0282688154352829,-0.0139449495176481,0.00381212345861262
-0.00589348780284545,0.0365264014186608,-0.0130182326707317,-0.00306466269150476
-0.000703887211988017,0.0415770126649031,-0.0186709064096605,-0.00900262294802646
0.0134007437598096,0.0408570899178148,-0.0283391532819685,-0.0132342826210485
0.00814293839472438,0.0143628326038737,-0.0337286928169722,-0.0169280148015501
-0.0225146909431419,-0.0230254395303034,-0.0306833569922261,-0.0199648730546434
-0.0477430885071777,-0.0279299933295901,-0.020512318337842,-0.0196578401033439
-0.0221872857974144,0.00497859088025601,-0.00122151492460875,-0.0139656304722546
0.0324583443772929,0.0350759132797323,0.0141972013724966,-0.00392749544395698
0.0411788781256559,0.0356773410631447,0.00655644916706296,0.00619518358496671
-0.00508889893059813,0.0189120252821909,-0.0179827671028496,0.0117934957331486
-0.0524029688126949,0.00898218518234026,-0.0330710199585399,0.0116979839980204
-0.0686817092150368,0.0196110280571199,-0.020818849883701,0.00867752924006071
-0.0472106300194621,0.0352170045283519,0.000483643372420968,0.00632603116226039
-0.00260277585854064,0.023344218987469,0.000524219729103353,0.00503541985949402
0.0292277242067766,-0.0114287577511183,-0.0184394062483128,0.00220138347228389
0.0263831108749808,-0.0302808288574967,-0.0383797334673141,-0.00407336652376476
0.00495983362948836,-0.0209816852654404,-0.04400243082128,-0.012174617032702
0.00182803915035736,-0.00284849444647927,-0.0266868943533692,-0.0177078496732075
0.0192895739954721,0.00636719012316243,-0.00802194567987897,-0.017994661032161
0.032580281169262,-0.00327317362252042,-0.00841090319063729,-0.0140581469839717
0.028225657431581,-0.0251204639326659,-0.00594065656753106,-0.00799310945586074
0.0129598658661967,-0.0315588763614984,0.0193564486883333,-0.00180760745821096
0.0133128018287644,-0.0139350229247718,0.0465820261668422,0.00255908802394528
0.0308406533051534,0.0103415273642384,0.0556951160767676,0.00503156254686205
0.0344472727944209,0.0257243103504605,0.0487267858265056,0.00684316094919655
0.00902480982613361,0.0245395857214219,0.035348747445438,0.00787173952793142
-0.0396709073896787,0.0281983604332861,0.0274764478574338,0.00714652746811221
-0.0780040294424031,0.0560072582205901,0.0208565712106136,0.00528914916705023
-0.0672599079891042,0.084493607792455,0.0123720527744909,0.00337533878412848
-0.0348436113142763,0.0947088175929202,0.0122940290527829,-8.26485152386185e-05
-0.0278972973934487,0.0861681487545687,0.0120896095556477,-0.00651587432975825
-0.0362730269116863,0.0557119964565703,-0.00048565403442024,-0.0133647962412623
-0.0281634683572917,0.0177387506747354,-0.0178302346056333,-0.0167645850643748
-0.00122158367660534,0.00488353909256911,-0.0306457031158225,-0.0158862627356899
0.026891118458585,-0.000113326186739204,-0.0358666036421259,-0.01183535051307
0.0413364567297123,-0.0665827839832464,-0.0293080819093441,-0.00480606214617393
0.0392130116791454,-0.158863027220376,-0.00714016235915833,0.00428763212837235
0.0346295383188046,-0.15239384889983,0.0209961240195003,0.0122834458922795
0.0324697919289828,-0.0505232126301952,0.0426154087948073,0.0168685651978935
0.0197331295485992,0.0424871427163235,0.0509879135087155,0.0190207863639322
-0.00922249870732042,0.0796499689850844,0.0331650081914719,0.0202677926759419
-0.0393087697265511,0.0793994769752608,-0.00327864929230125,0.0200928728500746
-0.0448827604882125,0.0535541331990493,-0.0171497092161588,0.016231407308953
-0.0278068443360344,0.00951430782734159,0.00457633375022673,0.00620160656861723
-0.0133441068632108,0.00259396810117721,0.0295715404152838,-0.00807361886358079
-0.0156312212586209,0.0422914393497685,0.0391260684751958,-0.0191791070027117
-0.0183345293979356,0.0362020734718207,0.0316780952361211,-0.0204323541458475
0.0121576400621295,-0.0378316925281873,0.00507813606509753,-0.0118978457893233
0.0504537329854811,-0.074551868295665,-0.0191035279974168,-0.000139698364806731
0.0382971442826276,-0.0229719124791668,-0.0175125371338332,0.00828828553070169
-0.0116727909068848,0.0501045940093138,-0.00204080067010182,0.0114454413391661
-0.0446408076478609,0.0810228080370577,0.011601019888336,0.0112988797759899
-0.0381063015633786,0.0669552503805537,0.021866645852529,0.011128116312451
-0.0134261795846294,0.0306446520641248,0.0170443795268305,0.0131510685715899
0.00375744984204611,0.00614599870413511,-0.00717915084428099,0.0164838720042216
0.00796056503378536,0.0189282403714907,-0.0237275197071807,0.0169592448086702
0.00148922498890753,0.0553578214412008,-0.0141733148733547,0.0126450227847517
0.00307914880598895,0.086429594147206,-0.000102989806475308,0.0062950001635248
0.0167642752037247,0.0921210152097539,-0.00234874862141991,0.000508901181047622
0.0121863510681689,0.0475572628195202,-0.0103552750439659,-0.0040509530532953
-0.0111140650706528,-0.0385732098428509,-0.0106244789826044,-0.00723728522946958
-0.0282277972933945,-0.0875919921116051,-0.00677280482726954,-0.00910312231634569
-0.0440096568275997,-0.0585652731692673,-0.000988980641059779,-0.00906899483970266
-0.056681427536669,-0.00723876052088493,0.00860638316847397,-0.00655244909707109
-0.0377282624227462,0.0202565567266404,0.0144373048749579,-0.00363905674929787
0.00844641815462301,0.0195491545576222,0.0087535539571708,-0.0029830471453712
0.0506707957439484,-0.022047478557928,-0.00577692633387437,-0.00372288386707111
0.0718260512893343,-0.0823770461801883,-0.0250479311196971,-0.00325042476416599
0.0602220558171073,-0.0958806526054112,-0.0478993219933517,-0.00138620273700057
0.0289900195937187,-0.059224011517103,-0.0617909418429152,-0.000101678288892121
0.0159115388006412,-0.0123462338951336,-0.0451439136626628,4.86620816378958e-05
0.0240261182987943,0.0403463149226718,-0.00407453845703423,0.000535333373500002
0.0261962491844091,0.0805973255189747,0.0241442631303559,0.002735841151683
0.0121861760769756,0.0831730457190402,0.0302611972374981,0.00657462114586377
-0.0229276120655137,0.0632560356420336,0.0307202973731021,0.0109081500074953
-0.0569608065769033,0.0501859044163529,0.0243375828601136,0.0139425683802073
-0.0371053483300762,0.0476400087041298,0.00412083107487309,0.0131557081471946
0.0159794280735215,0.0297935236006444,-0.0199387859264893,0.00750554463874148
0.0365943969613011,-0.00580150783643839,-0.0289419280521263,-0.00123611282146495
0.0170421788704257,-0.0243250226959164,-0.0162386036977265,-0.0106369948801716
-0.00942284652039206,-0.0165964884996407,0.00289394706108058,-0.0181656684934757
-0.010889537029118,-0.0108305455978794,0.00881283118669196,-0.0211745443310405
0.0179027303898365,-0.0184460045608528,0.00669135121326614,-0.019137050836045
0.0541925112677962,-0.042175544877178,0.00542878609251995,-0.0142746953409592
0.0765465735242932,-0.0809114859101236,0.00581290502971583,-0.0100471376207169
0.0766861782581812,-0.107335529707154,0.00763109186060014,-0.00838482059418193
0.057497700340457,-0.0918121009829893,0.00536500950516299,-0.00781981152367392
0.0284025513457844,-0.0415607333289288,0.00693898317909139,-0.00604784096156182
-0.00510335174548771,0.00684940678247828,0.015206532489579,-0.00273108092459909
-0.028422201225984,0.0257985292999796,0.0112991273006124,0.00100627782758344
-0.0242700546850518,0.0184188352120279,-0.00715821242594596,0.00360898553249043
-0.00639357048226123,0.012655835212624,-0.0220996119437766,0.0040365515352505
0.00180502190398966,0.0173356640459458,-0.0155320171735296,0.00227950911617912
-0.00198645939385285,0.0180442012046932,0.0127539449238839,-0.00121333847389607
-0.012459980106095,0.0117439215216768,0.0365139606231355,-0.00572287495140413
-0.0173958317998697,0.00474551338670807,0.0390729186411958,-0.0098344438095029
-0.00351789346878732,-0.000121481564859384,0.0285252807471471,-0.0117045598713074
0.0192137093904736,0.00240511386789798,0.0163677572425387,-0.010854528270923
0.0350069483976142,0.00162644355428717,0.00645796395225805,-0.00857023355374804
0.0428850366755556,-0.0159028756259251,-0.00235293274429658,-0.00591192029016623
0.0409353719505197,-0.0271716843767227,-0.00581723336180154,-0.00379964862601971
0.0292196951132689,-0.016340601233112,0.00146674652146205,-0.00315876734252256
0.0116137556347695,-0.00300825155605164,0.00947760750721298,-0.00286029203292925
-0.0142729621314606,-0.00534272743269069,0.00404461116372206,-0.00160073388933635
-0.0453983818203338,-0.0129320504131452,-0.0109426188554966,7.30525670525881e-05
-0.0657116927627018,-0.0184107331115046,-0.0286136423980036,0.00238404680372593
-0.059179008424994,-0.0230767750227916,-0.0385021136890205,0.00604957353679469
-0.0240929041949987,-0.00708178340653901,-0.0232882802346776,0.0097548094606722
0.0279553597279759,0.0181099006812575,0.00348339261895449,0.0123214425422597
0.072575712998012,0.0244236021527943,0.0137988090849454,0.0151555476352476
0.0771549622948886,0.0205094607659301,0.00875196804951595,0.0185517106834666
0.0354139044444488,0.0200785810045621,0.00703596936782945,0.0192375183775582
-0.0224500791575325,0.0283292047591342,0.0146723507393142,0.0148031694651023
-0.0588683050155573,0.032315790379926,0.0224128666332492,0.00646458714958126
-0.060363707515623,-0.00106582874738533,0.0162496661748016,-0.00303048417256647
-0.0511013264680474,-0.0670510658492176,-0.00565149780554156,-0.0108280236506356
-0.0506455770756907,-0.120291009635401,-0.0257850411352578,-0.0146423959784944
-0.049660773330907,-0.137306296773242,-0.0266909835164214,-0.0147574368026462
-0.0351138123159045,-0.113461077539259,-0.00296200545663102,-0.012986000724089
-0.0126434095514802,-0.0531564156444664,0.0260140121355515,-0.00908996376364978
0.00497950802368375,0.021257314431553,0.0372141894131283,-0.00235844323850144
0.0212444432133605,0.0639293523099414,0.0262684322128538,0.00554251928743116
0.0317650498153853,0.054917571957837,0.00536870530112664,0.0117630754579959
0.0177485332163304,0.043752891565565,-0.00473287849434018,0.0138530107769324
-0.0190216799376146,0.0453948434592898,-0.00637905023042698,0.0103800456896364
-0.0429009235328665,0.0270714097776605,-0.0123408929501621,0.00215429037934283
-0.0366605384582885,0.0083624180948405,-0.0152722476230413,-0.00639219158797106
-0.0164956168800585,0.000316988231723384,-0.0159950898281615,-0.00871960038555105
0.0173982458775662,-0.0520184428440748,-0.0244609314886946,-0.00143146216053853
0.0490468319338379,-0.11608267185479,-0.0291079802330504,0.0116566802956543
0.0418429214921281,-0.0848693474211809,-0.0224960371799929,0.0221536372447198
0.00838775150974395,-0.00226477810785024,-0.0210331116292925,0.02448686106211
-0.0136630290014576,0.0354554595045542,-0.0236016153015145,0.020772223618432
-0.0229988553602878,0.0467295546658941,-0.00750431063492719,0.0169928604023356
-0.0267485287804977,0.053784978651012,0.0131698508352182,0.0153509350573168
-0.0277663231329899,0.0389336297803269,0.0149372703656015,0.0135108775122099
-0.034474671172423,0.00246533509239618,0.00821025856503528,0.00859898207840017
-0.035215081166606,-0.0331009423175159,0.00112122306898737,0.000479972137393595
-0.017544807983486,-0.0547699518204101,-0.0079548812148405,-0.00737532288254404
0.00617022819045986,-0.0743579343817025,-0.00995593686465753,-0.0116689322307078
0.0177019882006678,-0.100458624009188,-0.000242263396559118,-0.0129234026800181
0.0139215680378533,-0.112863040640376,0.0108790879586345,-0.0135605375806097
0.0104437149339085,-0.083809993234053,0.0197544729798003,-0.0142396133391814
0.0191532309067155,-0.0305805493273198,0.0293338362858719,-0.013951527966684
0.0340537612797814,0.00399127960433376,0.0369295098478867,-0.0122581399435966
0.0386327859644666,0.00820837961668422,0.0406238947554273,-0.00996488733403434
0.0179524127046891,-0.000270462178951037,0.0382596249562794,-0.00849008669347619
-0.0153183432386973,-0.00171737407762861,0.0261964673420035,-0.00823286151668733
-0.0267336942083509,0.00245208367283486,0.00894798501100032,-0.00807528171161241
-0.0062895653581519,0.000524529725031186,-0.000999671562068406,-0.00712753651018458
0.0193722028899081,-0.00362900292383547,0.00204406539869175,-0.00488782100919603
0.0261679205415439,-0.00267862214765699,0.00281248315263428,-0.00116637841695995
0.0184506260034658,-0.00507795874670406,-0.0174706988125592,0.00277422466263347
0.00992106641107793,-0.01031665427074,-0.043111422644258,0.00536454704130678
0.00612635318597862,-0.00868022907196099,-0.0425775609975528,0.0067082189204965
0.0125077328357142,-0.0100271491626163,-0.022579843214758,0.00798365048009771
0.0228863977935452,-0.0192767815236083,-0.00423877084124429,0.00970019116748317
0.0188660804006853,-0.0238599700952294,0.0110764539343341,0.0108760085547913
0.001565929428982,-0.0143808706262155,0.0197789106108744,0.00963345523921645
-0.0124253926095735,0.000496668799617565,0.0174675866571665,0.00481619612573412
-0.00736079594034308,0.00872545161209755,0.0116050895871882,-0.00231202531519736
0.0176588050154339,0.0143439644180517,0.00926121038180433,-0.00815896392288125
0.0409076018650641,0.0265821651197806,0.00926135310034018,-0.0103013341401525
0.0437002477339768,0.0436982582214852,0.00891964630989745,-0.00980798170816744
0.0142196674358101,0.0467038980018873,0.00663744164637864,-0.00938328791387411
-0.0312617655251757,0.0360933487198703,0.000478967148533479,-0.0105222451057398
-0.0509179026185049,0.0340856010649834,-0.000536415319260171,-0.0122019200742943
-0.0431583811672738,0.038853952946808,0.0109713855514419,-0.0121498935054799
-0.0267993010986707,0.0164074912250724,0.0108900392546229,-0.00911515679592423
-0.0181098824995275,-0.0362544460978687,-0.00813943144437546,-0.00418940065502185
-0.0181756787004158,-0.0560371880337192,-0.00932660722423424,0.000189999493259945
0.00395815606562152,-0.0125032358011497,0.00360261867478069,0.00228618467742401
0.0357673588576,0.0382582265441883,-0.0100103035707811,0.0019127009525166
0.0375311367986568,0.0472021812239619,-0.0314338849405199,0.00076280575489746
0.0166389670017725,0.0212142147642376,-0.0221183709496961,0.00102317091522139
0.00737542131525781,-0.0323994696429768,-0.0034884820034146,0.00256213354795917
0.022438957113836,-0.0812318934056366,-0.00154114925035077,0.00357987857957452
0.0228765140200622,-0.0671507480058329,-0.00683877253252747,0.00365207979703761
-0.017565115725891,0.000705782410988218,-0.00613563131873381,0.00345791747883604
-0.0630201307857392,0.0630826528398045,0.00342517195006579,0.0036289822743221
-0.0658614998664978,0.0871247410677932,0.00921297518376829,0.0047626852642221
-0.0133823400586582,0.0742794444832673,0.00228147388176376,0.00693773255323449
0.0496653705082058,0.0381998813013074,-0.0111639281835005,0.00889905981123942
0.0632608368371618,0.00885737879487093,-0.0267923439163912,0.00869381971908181
0.0318497253503682,0.0142497069618979,-0.0395987523257734,0.00574613522591135
0.00203870730339477,0.0423216399173031,-0.0387608267658551,0.00120928535604657
-0.0157339700712926,0.0671292514265799,-0.0207955360144207,-0.00291171455850366
-0.0298764760438886,0.0731485076566355,0.000535534024119492,-0.00540306825672094
-0.0254026269959298,0.03950160466115,0.00857369002632762,-0.00667909334395074
0.00116501603840947,-0.00721581862811257,0.00611105744086237,-0.00743262645351127
0.022938807218835,-0.00447539891641648,0.00182722183519031,-0.00776179251555274
0.022114688057617,0.0345724596917136,-0.0115250819350603,-0.008104969766699
-0.00326144249987875,0.0526707962827282,-0.0333892521994127,-0.00940473485706877
-0.042612137392273,0.0377914833510921,-0.0475771775509639,-0.010665219775376
-0.0573817513597076,0.00880679327850989,-0.0506439421886236,-0.00907164763409727
-0.0214485343737742,-0.0228691248395883,-0.0484752414661295,-0.00381142905363578
0.0262114757750808,-0.0361142662588118,-0.0394680075266822,0.00316328642669621
0.0366031792416748,-0.0172000763862656,-0.0248967799349004,0.00935698484639226
0.0208933364595833,-0.00915621491671667,-0.0154521903950845,0.0129208658315088
-0.00250610008622153,-0.0500299386040033,-0.0182491454510363,0.0130662888083987
-0.021312216658338,-0.0989164623150773,-0.0243227209045704,0.0104328411113317
-0.00654873923311854,-0.0908849175759703,-0.0105714078714962,0.00724243944922969
0.0243678162348129,-0.0333844853843346,0.032841541543558,0.00545476219943811
0.0290068227395389,0.0143943109984267,0.0703209249512857,0.00419299411666906
0.0110590386762003,0.0369478301381385,0.0605324324054329,0.000892857572088445
-0.000809222966901831,0.0511264356844461,0.0147687676162586,-0.0049349834684322
0.00265275363673195,0.0572440078605116,-0.0242551875809859,-0.0107750818551097
0.00349734403030979,0.0541945343476011,-0.0341597198327935,-0.0138498173888724
-0.00961341668349261,0.0487494391344632,-0.0286112603224585,-0.0131896096147813
-0.0237961993703765,0.0481494702559628,-0.0194766179124651,-0.0101740268101655
-0.0291241772977784,0.0458986784908064,-0.0075487759516708,-0.00778348869343141
-0.0286638431554025,0.0290947581407436,0.00175449288598002,-0.00747215063463808
-0.022093023635032,-0.0010417669537574,0.00360714342341297,-0.0074268371228486
-0.00804034754000362,-0.0252766984879759,-0.00205333075065539,-0.00483051956549278
0.00430897637367028,-0.0202791970905989,-0.00422390739899007,0.000675784070409212
0.0149219722782648,0.00477110611953647,0.00214529778808133,0.00638796191769412
0.0291970955697218,-0.000244099330258681,0.00386071083723858,0.00958813696899476
0.0364399419597714,-0.0429400457126818,-0.0051977087126502,0.0101039756641835
0.0325850839894831,-0.0567923598458152,-0.00935719802282353,0.00912030251498792
0.0163135284786387,-0.0160202481280392,0.00622685450034327,0.00760499182948887
-0.0136468511713716,0.0333629907237304,0.0297762107894949,0.00695918110410551
-0.0394061300376236,0.0567788311693888,0.0397808713224675,0.0076951839291629
-0.0515922768281909,0.0507003815444228,0.0321727815362684,0.00849300751253437
-0.055668995540928,0.0234638348638028,0.0173420073899407,0.00803229825604419
-0.0535261377018629,0.00600983768382767,0.00953927277154515,0.00542710379581347
-0.0490997628998702,0.00970885247034222,0.0108766886927284,0.000791243698683374
-0.0478631690122875,0.0133666025445881,0.00989793352532114,-0.00361442943821358
-0.0460908851911163,0.0213991990547323,0.00164592859758754,-0.00500251418417299
-0.0313364727703067,0.0186336222751549,-0.0117458868106858,-0.00299852152006326
0.00252528367340127,-0.0248270061925399,-0.0242295239954409,0.000161150595138384
0.0511125739948988,-0.0648749094763647,-0.0229414879456364,0.00252995474834439
0.0866161822425183,-0.0589771384296184,-0.00743971109972542,0.00390927822518219
0.0813293416600535,-0.0368467450349055,0.0134110843008878,0.00423740092592884
0.0524508706525336,-0.0199912144983994,0.0412223714578723,0.00396337970080196
0.0171636228727728,-6.18296022557169e-05,0.0629261555415847,0.00492411290931662
-0.0144344873949494,0.017937577215798,0.0594539411572981,0.00717451776332403
-0.0235265857028682,0.0260692653139947,0.0430512796949675,0.0079711081540808
-0.021121400529788,0.0351105684021707,0.0332584066101278,0.0055311116624472
-0.00714197088180028,0.0552716219156276,0.0302203335591892,0.00122968103226476
0.028092537528561,0.0775610762229642,0.02422003118148,-0.00264338229641954
0.034344254233543,0.0764776234831213,0.0106260379265305,-0.00615322314401783
-0.0236905285053604,0.0486799475436718,-0.00293222840464172,-0.00956279068225961
-0.0761408630400988,0.0354284606441666,-0.00728837453944001,-0.0096495727273678
-0.0552038523694285,0.0159831624411701,-0.0109235566326577,-0.00460117374338348
0.00385832859003864,-0.0785261292596033,-0.0257836220987353,-0.00038450839712539
0.0351488331629451,-0.168051711576876,-0.0295853221085772,-0.00419211825554782
0.0155957163596466,-0.128654231148603,-0.00318565010071924,-0.0124408107432462
-0.026261883461896,-0.0188874566219463,0.0211159479707102,-0.0137178273421294
-0.0423763263718157,0.0499330657366573,0.0221372046499181,-0.00351547290167858
-0.0163555459933585,0.0617886353816463,0.0223827194158444,0.0111302260495126
0.0232626015475295,0.0520555136318582,0.0305215475764802,0.0212136291883903
0.0382017682268136,0.0507220204040647,0.025938761899887,0.0237456101041963
0.0281285079495146,0.0484574586492056,-0.00057115096668316,0.0205942812156545
0.0156757105230115,0.0284763873202449,-0.0327176380541268,0.0155278939852536
0.00786126046492864,-0.0042214185240602,-0.0433247453271305,0.0120980803909859
0.00306433075324733,-0.0441315449188541,-0.0227777745484559,0.0111554891381792
0.00685307352242364,-0.0844500724780608,0.000766205369185369,0.0104509968117968
0.0212756216060659,-0.0960200874728928,0.00557287211517724,0.00714103882599247
0.0356183749599641,-0.0575187246235734,0.00471083386542675,0.00106651634811952
0.0391240166020723,-0.0078448990920631,0.00729155839649932,-0.0053005699940882
0.0304107779140819,0.00608414023651924,0.00748417862980995,-0.0100616273101228
0.0146597224261765,-0.00533438608154872,0.00386977719295288,-0.0130998097982177
-0.00535602419913236,-0.010405944460459,-0.000776136699211632,-0.0156369438855411
-0.0293511577696223,-0.00278373826128054,-0.00849752188916139,-0.0195363405202527
-0.0483641926848431,0.00223669303084559,-0.0207856410996626,-0.0248385524626159
-0.0490821166421922,-0.00710801239483091,-0.0296312769644465,-0.0285853273385449
-0.0346014202681881,-0.0142907863324348,-0.0228497220570283,-0.0276891043315949
-0.0191218547823757,-0.00471362623019276,-0.00337674460538291,-0.0220732085069371
-0.00760429383016748,-0.00106913341939972,0.0101396714086595,-0.0140799010319394
0.00254128835811614,-0.0125085686455315,0.0113147584039519,-0.00554686024093586
0.0140072071579813,-0.0141106166690702,0.00487065482508615,0.00350478732360298
0.0227095168667422,-0.00612217623930726,-0.00392542695696924,0.012999993754608
0.019644147417988,-0.0123091531748638,-0.00994709354514141,0.0213554189989062
-0.000815781737646736,-0.017492878202511,-0.00966606522904855,0.0266571641167777
-0.0287640840584833,0.0040423674041085,-0.00193980429368302,0.0280302441226796
-0.0420985532230885,0.0378043523866901,0.00412392793926426,0.0260358457724626
-0.0381516709900902,0.0585836468963699,0.00361097037820936,0.0222743355513484
-0.0268124164949355,0.0597128259573327,0.00227300807839449,0.017786127741847
-0.012990564606511,0.0499357151968536,0.00149709054037125,0.0125009383467853
-0.00441743821455918,0.0405161975521215,0.0103301528713045,0.00729574422603848
-0.00831073467070903,0.0455918417460564,0.0338580131082284,0.0043507046145228
-0.0172283657900394,0.0563040137820375,0.0474278727023112,0.00373819382259187
-0.012920501715113,0.0407158224417247,0.035853021768404,0.00212808757648178
0.00932199951977491,-0.0022403105202394,0.00810957791443459,-0.00248743440704326
0.0343899565329843,-0.057408928887743,-0.020635173216337,-0.00802372293919405
0.039881439393635,-0.119786180132352,-0.0309424691127348,-0.0123243874175062
0.0203640561075217,-0.166847148938265,-0.0253252568148038,-0.0152495030055517
-0.0073744344636861,-0.153080752748384,-0.017797448535476,-0.0165382265638141
-0.0262205716729122,-0.096276582881983,-0.0123676452020696,-0.0151395810524543
-0.0202394853543952,-0.0770181138723118,-0.0172180345636357,-0.0101365838853014
0.000347813324288047,-0.068425698145416,-0.0298167264856456,-0.00230656108957262
0.0074005521656311,0.0028021095449822,-0.0240132316346479,0.00483477306393498
0.00721732402689561,0.0871344686039953,0.0060446084405124,0.00749477049750748
-0.00492859960801377,0.110570544937731,0.0274297099733644,0.00450747810150134
-0.0255540745351671,0.081200178102611,0.0301591226186584,-0.00230422520538021
-0.00810940548247083,0.0439546391724007,0.0329110982026154,-0.00790055427805791
0.0369364381868665,0.0158322099033881,0.0333456710789732,-0.00684305551553121
0.0468535420517301,-0.00155550674844562,0.0295987578126726,0.000606624938930812
0.00849783763913434,-0.00310298814589521,0.0346167968291394,0.00901527267032273
-0.028280183157473,-0.00378192751569618,0.0472316168713657,0.0140370626976001
-0.0221808775212973,-0.00987808545720211,0.0483411146564779,0.0146975563974051
0.00872478646031704,-0.0159670477241678,0.0196717148476299,0.0120718683825024
0.0287631573092942,-0.0368002584811339,-0.0276068451901949,0.00703440793731532
0.0298417138080772,-0.0557181063844021,-0.053735172359411,-0.000494545432333299
0.0154613680024834,-0.044259076687554,-0.0424182965186852,-0.00837200607715002
-0.00110407816802058,-0.0295532697427271,-0.0187862203883657,-0.0114940789963199
-0.0033257185699616,-0.0361142445362442,-0.00916055074249991,-0.00740213167420084
0.00593589269271729,-0.0426984658034982,-0.0151325711654606,0.000364812247632657
0.0142351920480009,-0.0235593973949736,-0.019677160748708,0.00621040774459409
0.0147185748439537,0.00412133512692589,-0.0148494274951756,0.0078367526895828
0.0063873954674618,0.0025847283807186,-0.00233587389189783,0.00618235576426938
-0.00896250239788336,-0.0265923162080063,0.0104057108751173,0.00229585671283587
-0.0150538087312141,-0.0324746464407439,0.00795533644002986,-0.00277933266594042
0.00229407064308958,0.0152207909726937,0.00345515572013215,-0.00749087375871698
0.0306405250961458,0.0692309974599166,0.0157057096356829,-0.0105922355625421
0.0522467214131712,0.0746287880572155,0.0227310078343856,-0.0120034894151029
0.0542795899827015,0.0484945542887061,0.00863878513059028,-0.0126543667120428
0.0286372443037606,0.0391337240891645,-0.00440578168780787,-0.0131710538936262
-0.00621071172261656,0.045604173197582,-0.00219656282668516,-0.0131768092056757
-0.0167068361113897,0.031352864900106,9.07254837546386e-05,-0.0114870521513096
0.00785995950287716,0.00052298048066704,-0.0136003563205723,-0.00792617807176864
0.0401969894971409,-0.015396877233482,-0.0404844571330349,-0.00462567473832783
0.0248459012856533,-0.0270236575538281,-0.058344276516198,-0.00346043510342187
-0.0237372876650279,-0.0479856183441529,-0.0514157027044225,-0.00354040233456025
-0.0301468855745117,-0.0498954868417186,-0.0425086122462276,-0.00237317109507898
-0.011501506371324,-0.0143289247992379,-0.0446388125071873,0.00170659641559412
-0.0186265222122264,0.0020372750881177,-0.0400205051819846,0.00708929192294552
-0.0297972691977396,-0.0395940217987782,-0.0298309698956524,0.00899026830948822
-0.018988158891964,-0.0532304908022476,-0.0124016788097913,0.00419658703099276
0.0014443639301921,0.00591450783347942,0.0133363539268272,-0.00461247339524421
0.0251598929384246,0.0496062676771709,0.0167379479740164,-0.0112388073041271
0.0429996815385988,0.046755271571199,-0.00146130021228562,-0.0126825942667039
0.0348255110598047,0.0554775694880871,-0.00696239193789758,-0.0106747260631061
0.0144928471158126,0.0719389284044143,0.00196440619678206,-0.00778185449128102
-0.00771947580905182,0.0691912492350076,0.0135058564566554,-0.00542358923274781
-0.0314147075361245,0.0576020495601786,0.0254618408190802,-0.00409381779337943
-0.0319467908071687,0.0321745800305525,0.0325677290961834,-0.00325282814807748
-0.0144227883889163,-0.0110563515047653,0.0276051402179055,-0.00174018630503749
-0.00267015311574204,-0.0402189652699986,0.00968449042133554,0.00068165841372275
0.00833513852002125,-0.0340212391840532,-0.00931782127578476,0.00245578888448727
0.0212621560408517,-0.0137206017495292,-0.0146014199732824,0.0022527167372174
0.0341928753474397,-0.00192394250755749,-0.00893392871177551,0.00115780856516664
0.0388717301468972,0.000390573640414713,-0.00192732127306665,0.00106906287411857
0.0217143327683054,0.00257124294541671,0.0054678506709381,0.00196199071562542
-0.000710771584038927,0.00579010927613802,0.00722780755248248,0.00192114871139655
-0.00762640276050431,-0.002741934500501,-0.000669610681866002,0.000196633613853963
-0.0141740693913266,-0.0230323700745134,-0.00543858364216527,-0.00212049258007283
-0.033252817199861,-0.0351929399528146,-0.000874595776092085,-0.00443562228211763
-0.0479571711231084,-0.0323004038820405,0.00309392670603785,-0.00631169485798857
-0.0454159141243043,-0.0276324874925054,0.00950191710381687,-0.00709634870863247
-0.0263291686352287,-0.0291690557712384,0.0249420516972354,-0.00706689555853718
-0.00108462114072765,-0.0340788966578691,0.0360905045751601,-0.0063490084156336
0.0173483694953565,-0.0355409610748174,0.0332114197358647,-0.00417348414800159
0.0229609771808198,-0.0172988991924929,0.0230063029261845,-0.000327133867167053
0.0165861311217389,0.0204721109924942,0.0146923588656907,0.00432093977050616
0.00801021913232317,0.044269257917768,0.00503042665044798,0.00831064432643356
0.00688908319413466,0.044645804514097,-0.00713017312456524,0.0102100430114393
0.0166874286300437,0.0537216889972713,-0.00353862070787865,0.00970593517787056
0.0327440995732504,0.062371747816845,0.0122753349907735,0.00814437640711747
0.0433739873067079,0.0178474470351154,0.0142963863445652,0.00707579476987029
0.036238584505497,-0.0450668684249219,-0.000603174333682756,0.00653149276546881
0.00144748539946579,-0.0471603713728937,-0.0134968397241735,0.00522866459444126
-0.0419930676104736,-0.0232993315254475,-0.0112102851152132,0.00214361052157141
-0.0451701599132887,-0.0320827902618747,-0.00139188606589937,-0.00221266918250179
-0.00914914969189887,-0.0410917793350832,0.00338290643159826,-0.00562972855342832
0.0062843108730768,-0.0202007941783487,0.00946268621783456,-0.00610411787282723
-0.00859620236588326,0.00173631994193096,0.0207962990205091,-0.00400904313350985
-0.0161651703659758,0.00529906058854508,0.0166909473364576,-0.00100531392647408
-0.0113468857367339,0.00410516910926897,-0.00392188995359428,0.00195415069377565
-0.000165060796166103,0.00262317938938436,-0.0153982668704613,0.00472402643796503
0.0163591321737229,-0.000752481329445494,-0.00839556466308514,0.00728526010827057
0.019468368298027,0.00793754701673049,0.0068570469053621,0.00960616116704201
-0.00156490322514753,0.0282316070011181,0.018243980460024,0.0114102754170102
-0.02291940287145,0.0423134716892276,0.019536518223942,0.0116623219494386
-0.0229768488657337,0.0553388400570893,0.0153151189705428,0.00955185803518049
-0.0164525914572894,0.0687832344564287,0.0105829993311665,0.0059402412705709
-0.0175339175815824,0.066997377064087,0.00121000089773004,0.00292871730255931
-0.0177758148448315,0.0646188683156699,-0.00818089268713258,0.00207889998616269
-0.0116903056146589,0.0755694272958868,-0.0155319179584757,0.0026401802404588
-0.00645643817243919,0.0753277482483338,-0.0332576265696346,0.00228817057862543
-0.00097719572730361,0.0445542358373268,-0.0522683989048093,5.97349119573756e-06
0.0168053395869323,-0.023237296589348,-0.0449924321324098,-0.0029619474218748
0.0287967814295217,-0.101010092578791,-0.0220892793787307,-0.00492116151862325
0.0089440218202336,-0.115502288204356,-0.0216593409535917,-0.00556408277324378
-0.0217244395421492,-0.0587309406962144,-0.0374698921780392,-0.00491964290731883
-0.0305021125425509,0.00198247389383277,-0.0341980022109239,-0.00225336985057108
-0.0201299714521196,0.0332227988926405,-0.0078530710640813,0.00203155784015295
-0.00309768778903565,0.0413818018534246,0.015197920968029,0.00583720871769579
0.0112253404441448,0.0355379850645947,0.0144990737762388,0.00752120890884142
0.0064101523389285,0.0248853947436046,0.000450563645996511,0.00709992441184012
-0.00963902635476786,0.0246953696372187,-0.00775490629197303,0.0055673645087759
-0.0163527479828188,0.0378348609591974,-0.00653982618424524,0.0040144891315151
-0.0161943007916856,0.0494793285759027,-0.00107711830741326,0.00318389273732427
-0.0175773618063579,0.0529930346778844,0.00388107002239564,0.00307301725532515
-0.0240009383106143,0.0454233892202217,0.00822179260846932,0.00304885760412088
-0.024834128507807,0.0299082733674377,0.0147175111482001,0.00252379291300989
-0.00337400418792302,0.0194350350708247,0.0231421227652275,0.00136051835459468
0.0236243457626789,0.0176821470849501,0.0283987062740148,-0.000219366562414489
0.0298949726968194,0.0094821362926389,0.0254562736378039,-0.00160376812036086
0.0197781227864805,-0.0274613941758843,0.0103155602779489,-0.00210007368614737
0.0112825487688846,-0.102113765068913,-0.0151524510749724,-0.00227657374657329
0.00181944697370723,-0.162695820933508,-0.0315951104834113,-0.00362800926093782
-0.0226975060601807,-0.125243839281516,-0.0197461924505918,-0.0055689818539194
-0.0453063526568748,-0.00446807757035161,0.00225761105568475,-0.00514510644286867
-0.0507923217256407,0.109153143421871,0.00420991246248169,-0.00111396567721851
-0.0578864393321042,0.173456040635911,-0.00391795167295146,0.00328215181004631
-0.07591665120657,0.193914962391946,-0.00159032866347,0.00375141315260904
-0.0969968427807137,0.171818092571913,0.00893463441589075,-0.000325158640522522
-0.0928988321164177,0.120848105527127,0.019008304868233,-0.00631257351399611
-0.0215149315302795,0.0550811967536005,0.01845746729783,-0.0106384403554667
0.0810829775880991,-0.0489783159056815,0.0073763561397273,-0.0109603981931017
0.122566966743124,-0.169086707606931,0.00318755610014751,-0.00795529344178034
0.0904031242735212,-0.199846209090285,0.0153472580346992,-0.00413728630172516
0.0431312844633043,-0.118913307111005,0.0299059849555455,-0.00106670403655002
0.0199972047029769,-0.03993550662215,0.0293161742636271,0.000794599304768306
0.0147575092204127,-0.0263038404485319,0.0154433425407926,0.000493774258903654
0.00780921937318874,-0.0141126148394335,-0.00172711274866915,-0.00273004141144834
-0.00077538080264062,0.0291955513092049,-0.0154734166311009,-0.00678308061410019
-0.00583007084064929,0.0375130709941758,-0.0248726185914722,-0.00705682879204806
-0.00535056888965877,-0.00592020123207506,-0.0327832211723827,-0.00190496649590705
0.00812766406589458,-0.041247143455869,-0.0337792225624906,0.00536888903227265
0.0242214234597307,-0.0320053902534987,-0.0237250309571265,0.0108370613880788
0.0239252766596779,0.0105408955443136,-0.0134726649026113,0.0124572226989767
0.0102435504255432,0.0423150477206602,-0.0129688467665021,0.00981683161524856
-0.0065492132881407,0.0428108536423678,-0.0141580331570909,0.00409706178742011
-0.0234467014569907,0.0310238503429705,-0.0116043136588722,-0.00188896623240551
-0.0317976950842463,0.0162582477658822,-0.0120821850129786,-0.00541640558810697
-0.0243257700936299,0.00609018224926836,-0.0119860579099333,-0.00619068509841457
-0.0177157606349043,0.00621536709624059,-0.000366555969036227,-0.00569528608364741
-0.0230423010963002,0.00276514566486179,0.0136952906763492,-0.00525543692920833
-0.0313562718713458,-0.012312094672421,0.011618455555099,-0.00519748126415716
-0.0345986292406422,-0.0278098517849139,-0.000562678260450497,-0.00406207119318933
-0.0226063043431764,-0.0346236525960611,-0.0135225139308992,-0.000441044250361563
-0.00281529527366398,-0.032322638602794,-0.0290142666601751,0.00383699213934699
0.00507239465685788,-0.0195880612449695,-0.033134337317487,0.0062353473333142
0.0131780263811676,-0.00437730388662098,-0.017792086581792,0.00680369953700834
0.0391866834781009,0.00256782480842561,0.00123830780690564,0.00609548681427571
0.0697549171473719,-0.00556386915078807,0.0127102874342791,0.00363225952600307
0.0809188064767178,-0.0247977741619342,0.0122940919243997,-9.01087872031692e-05
0.0661669118471459,-0.0335970209047098,-0.00161237372251431,-0.00311032463632429
0.0456577181644873,-0.0196488146448063,-0.0120983243458281,-0.00445056925084693
0.0433533432387097,-0.000633024235080424,-0.00780984089319374,-0.00406679703871223
0.0556339685407589,-0.010270437242268,0.00212712270091427,-0.00181966366641157
0.0444368288555355,-0.05752627113025,0.00840492037708343,0.0011424266567994
-0.0138543785427379,-0.104736966352704,0.00628146307837417,0.00294661044144663
-0.0609052823874556,-0.105996451726574,0.0012788500762534,0.00356986250903986
-0.033682817033917,-0.0617339219182361,-0.000308394771973371,0.00455556895075151
0.0157341328502117,-0.0110373017027229,-0.000946346129850114,0.00685478693077208
0.019458446251964,0.0133826908227326,-0.00210790863049716,0.0102633483507807
-0.00620302549269058,0.0163013185848333,0.00464174327390097,0.0134493517773074
-0.0264256872505865,0.0146003391616808,0.0221235905867238,0.0147488519201975
-0.0270836158382246,0.0132845747251001,0.0303753162772479,0.0134799232752042
-0.0129070641100218,0.0220791901207668,0.0166129753844874,0.0102453559274739
-0.00125004293633794,0.0225693176740722,-0.00555126331062707,0.00633116931991669
0.00639827510856706,-0.00586892223700916,-0.0156772203318638,0.0020282255814647
0.0166955001200649,-0.028149291723567,-0.0111801116357134,-0.00289740184032353
0.0214392739872411,-0.0159299975624239,-0.00971856099579251,-0.00663963115123563
0.0226296595602643,0.0148176981098207,-0.0183980126907031,-0.0071389457132413
0.0342433031328719,0.0385340588826418,-0.0230996899023437,-0.0054174155350832
0.0414374927218304,0.0473948662934095,-0.0108945628873117,-0.00382790678812712
0.0251533540885275,0.0390318762816511,0.0166272735595545,-0.00230706676266278
0.00849894633839186,0.00790654107193327,0.0445312912318652,0.0014276703052252
0.00237861675717431,-0.0207348834183986,0.0578155400500422,0.0067271973349315
-0.0234775704739307,-0.0188199199630545,0.0529793440409432,0.00817113721743314
-0.0505485867433553,0.0064110751929248,0.0370716034142263,0.00259548280964194
-0.0340642935345648,0.0339408199057158,0.018821623316981,-0.00613148481759282
-0.00214074194755438,0.0360825734532368,0.00313613864388115,-0.0125590382918745
0.00549379852145952,-0.0250219624622488,-0.00790397273247983,-0.0148346307587341
-0.00405173361177766,-0.111401199565617,-0.0113141421308432,-0.0135412299843448
-0.0186850672297973,-0.118712094251955,-0.00201777085726405,-0.00994927102817046
-0.0314932061727412,-0.0598179178812158,0.00782401502840331,-0.00524762418485337
-0.0298962340750073,-0.0178762857854803,0.00368935163016637,-0.000446333746332083
-0.0172163406186166,0.00187318319956287,-0.000497753735457967,0.00275279990657812
-0.00894630958428921,0.0168901635059025,0.00829760791105709,0.00254783542721388
0.000803010541293378,0.0135739602776989,0.0180302948405704,-0.000837010070223076
0.0157513127208892,-0.0104428202024083,0.0153806661570927,-0.00484015731455647
0.0246946884793786,-0.0247923474556318,0.00483149167118638,-0.00696404030863744
0.0268474158009767,-0.013160539217887,-0.00816231044428235,-0.00693382987625426
0.0219463312792074,0.00623808773512707,-0.0232268383005738,-0.00655815354442827
0.0086736151820605,0.0178741490666132,-0.0254741666778442,-0.00687528911798092
-0.00879955784131956,0.0216901493860106,-0.00732097079376774,-0.00635183681530198
-0.0238007963991447,0.00637462701026247,0.00894675430783365,-0.00362422525199044
-0.0369759613812984,-0.0276989536361361,0.00910253895687841,0.000559634900924096
-0.0567835306215683,-0.0354895408812783,0.0070557600507528,0.00433775761614903
-0.0696995800778172,-0.00485498248180916,0.00713433490115839,0.00599979074734834
-0.0489863105297594,0.0289785372823612,-0.00048601312815532,0.00532793385746747
-0.00406478715894613,0.0545513254784547,-0.0140673840872477,0.00348740321096758
0.0312618409336596,0.0727386436967453,-0.0225773993224605,0.00132436587901405
0.0487501291434191,0.0804990418102252,-0.0160138931846019,0.000124566641771198
0.0520829675558753,0.0777870860464043,-0.000668157514151484,0.00203393947115132
0.0250168530731057,0.0636314434546285,0.00495014266116672,0.00569552502628601
-0.0261370743935016,0.042211977450702,-0.000252165464634073,0.00576731539931052
-0.0531822117237167,0.0231138112036673,0.0011962234182967,-0.000849319022395777
-0.0417748494305818,0.0166633475457851,0.011998881057342,-0.0114308192140082
-0.0255246871811401,0.0198223060429415,0.0153629542112125,-0.0201053587775263
-0.0209875117663946,-0.00971014398351829,0.00147361653520326,-0.0232512102711312
-0.0167822747944257,-0.0941476326118551,-0.0169367928598197,-0.0217051217677335
-0.00791273423882406,-0.174399216954037,-0.0216943136447061,-0.0172076801205402
0.000395382098325302,-0.183893468839376,-0.0124187366848326,-0.00998701937207611
0.00326142732897003,-0.117778077146139,0.00962931774887393,-0.00111282343461036
-0.00347000704933533,-0.0334531833755339,0.0392179002016278,0.00710648586119268
-0.00569398405371249,0.00223282645025824,0.0467321456177594,0.0136694637347005
0.0162434039658615,-0.0133967250579933,0.00942452234425957,0.0187621491164082
0.0465386503526016,-0.0261040623140198,-0.0402246124280833,0.02110833738467
0.0522525383546065,0.00308940161371291,-0.0390923671790811,0.0190092093764611
0.0352972151094503,0.056727540317417,-0.00192897087015658,0.0139397283885042
0.0202454345850908,0.101656140566001,0.00103943940345729,0.00839535669964145
0.00575820252351149,0.115450170307149,-0.0247161828332397,0.00247892893710028
-0.00817790633918209,0.0819930029478256,-0.0320176697530321,-0.00338433444271263
-0.0126303745384002,0.0389949512048949,-0.0142408106417218,-0.00606322760195865
-0.0207180582929199,0.0362682640638081,0.00760629139110889,-0.0033556095309542
-0.0336409733905976,0.0425569770991192,0.0146560803944038,0.0020641637658105
-0.029545711952713,0.0132215611841219,0.00520624503517607,0.00606414583294256
-0.00657138851727469,-0.0284015200712968,-0.00441736196523061,0.00917953107034127
0.00922307167011022,-0.0501383973600684,-0.00438600559511112,0.0141671018143832
0.0089658590588824,-0.0527310735673948,-0.00251975947178965,0.019052038543487
0.00196349934079182,-0.0367423040928231,0.00102652483473295,0.0192654505018833
6.06510676596853e-05,-0.0109501925496159,0.00821109571658441,0.0138770521848907
0.0166062966438903,0.00655563788467604,0.00761084537079341,0.00483247139109667
0.0377001888426994,0.0138757040092966,-0.00261413508485966,-0.00519330308898655
0.0398771488396745,0.0113326008001597,-0.00674995636182664,-0.0124162705832221
0.0248967153490563,0.00475759286393233,0.00353126978486391,-0.01455735239602
0.00754404184389339,0.00861011617277627,0.015140008952292,-0.0134649987102871
-0.00384328206653289,0.0210206068601942,0.0147795222894999,-0.0118694196768026
-0.014321155672248,0.0232674607947771,0.00260677188984614,-0.0106774648016685
-0.0192070812311292,0.0109789360935262,-0.0181214635809512,-0.0101947406066683
-0.00603652118703501,-0.000641219309794425,-0.0315583724618689,-0.00983940497386214
0.0133568902215461,-0.0158708658561715,-0.0195881578113499,-0.00772012672169473
0.0197557251489491,-0.0381257159321668,0.00517060258516727,-0.00329581539473297
0.00933668869398356,-0.0375731022454656,0.0217434201881516,0.00136117783088871
-0.00634189736405929,-0.00836741348929633,0.0264568688377649,0.00463846443773776
-0.0148287500610711,0.0148581012296985,0.0162239690335222,0.00687977645911468
-0.0166024013311167,0.00397488489025128,-0.0141008155519844,0.0078859966447949
-0.01129559868765,-0.0145808093000673,-0.0506080833165606,0.00664948386893602
-0.0024386354715346,0.0138679906672367,-0.0525448851891201,0.00382307944589007
-0.00345465623666812,0.0572585739897184,-0.0141505131096434,0.00207176247484206
-0.0162701387479803,0.0505765726683397,0.0140573691234946,0.0031167799420269
-0.0313470380866171,0.0172220263655721,0.0149911264396463,0.0055678064774995
-0.0333284339378641,-0.00278025408189357,0.0117882240497655,0.00712193179130802
-0.016937117999536,-0.0175021054722367,0.0150217561187498,0.00667657531415717
0.0042055993595357,-0.0243924508678446,0.0286048639469546,0.00408815210214511
0.0156238233863876,-0.00582590475697227,0.043712753275253,0.00081879418601017
0.0154516937771341,0.0244674840499713,0.0459107990296497,-0.000986964119191414
0.00987219813144525,0.0319078125001567,0.034629903754673,-0.00187576129423721
0.00807641027709803,0.0175364258852919,0.0127754578813705,-0.00420010776909905
0.021175191838192,0.0160302477555969,-0.0124041856147876,-0.00830654382975632
0.0378334127090418,0.033750587481243,-0.0265673215940156,-0.0126165731966467
0.0471344725938981,0.0483950063991526,-0.02350784113613,-0.0156185884455603
0.0509448048467151,0.0316497448630421,-0.011692399449934,-0.0168867138784233
0.0355549418383404,-0.00368017328160034,-0.00240523462176892,-0.0169398991328654
0.00481336048603859,-0.0208223754719193,-9.92237755166386e-06,-0.0156728576654721
-0.0180028531155939,-0.0550322902997303,-0.0030514903463965,-0.0119534833902297
-0.0283894988965337,-0.106287620482938,-0.00501410701845533,-0.00542125624523921
-0.0281005326536437,-0.0900944285817762,0.0063724541106413,0.00159593116306122
-0.012839464736989,-0.0160195096804813,0.0302649090791269,0.00498188008338062
0.0103283233089835,0.035187763879933,0.041194304391604,0.00342163948129405
0.0201083969144775,0.049370983023812,0.0224927792501126,-0.000340623076436206
0.0107891873735449,0.0503689446299347,-0.00846902232238891,-0.00346563322377538
-0.00542797675421047,0.0418804185011498,-0.0203668840225939,-0.00416347534251533
-0.0157463900577418,0.0234863343477427,-0.00185610148110487,-0.0009606313968208
-0.00374519485594776,0.00212676371414163,0.0244597173956234,0.00509003451756686
0.0191065132499991,-0.0162666701734145,0.0388090660499244,0.010742471835535
0.016017202552348,-0.027668540309846,0.0358338273664814,0.014272270642591
-0.0086826469093901,-0.0192437668932609,0.0135042297645071,0.0154085587566557
-0.0222486517217023,0.00979820972995396,-0.00732497115924539,0.0142687498807939
-0.0137357253001455,0.0255921663046243,-0.00839699518550168,0.0115815919716582
0.00707721935060813,0.0131891428513988,-0.00416325443340326,0.00756865993326854
0.0187561398164306,-0.00446508365886717,-0.00794369238477047,0.00221491683594204
0.00227514012547873,-0.0123853168401715,-0.0138840708759611,-0.00329618643126859
-0.029183346587991,-0.013700524612033,-0.0131177840550538,-0.00723013674336092
-0.0359777981824022,-0.00913043361157084,0.00317549678780062,-0.00886569604391516
-0.00992633499930369,0.000340834412898975,0.0213401851900405,-0.00857613311129297
0.026966662943248,0.00970945805832368,0.0244463347445509,-0.0068143581516891
0.0519474976013903,0.0111978890765904,0.0257325792524862,-0.00421193180733253
0.0369814015902943,-2.98877708876282e-05,0.0240489150725009,-0.00217576446652725
0.00471786622536759,-0.0117091205003289,0.0083594140297856,-0.00150408300897693
0.0099928379409178,-0.0197195045011954,-0.0101591632012589,-0.00139331170936231
0.0349369185219461,-0.0249273690081091,-0.0205591778135709,-0.000903906032357247
0.0340003517039383,-0.0268748771180903,-0.0259474572182676,8.95646132181957e-05
0.00709090228824272,-0.0259388902280202,-0.0256386519103099,0.001977086819184
-0.0206700558838622,-0.00829665019520565,-0.015107683479115,0.00495656286553004
-0.0316795743325402,0.0215765683854023,-0.00869312570744191,0.00726740355062749
-0.0327247683514297,0.0535554479846448,-0.00679765465462266,0.00657359897949841
-0.0312763763971005,0.0881895865554176,0.00994866933487213,0.00323780308073929
-0.0219795216355912,0.110362239538293,0.0372293272764955,0.000260623851538411
-0.0101547616198063,0.110981282052389,0.0577031605550701,-0.000334632837527035
-0.00467314317710036,0.0930428604135073,0.060257676990285,0.0011129213350452
-0.00310154651247275,0.0672684077871753,0.0471717533274088,0.00325113311319315
-0.012037588376841,0.0523984269965633,0.0310547915062885,0.00505671515452216
-0.0285634085291037,0.0301806931605818,0.00649854860092437,0.00603182605243784
-0.017857637502995,-0.0173917267253682,-0.0349550477506426,0.0051794709148533
0.022329102619101,-0.051451589408803,-0.0657559505824899,0.00194298664011194
0.0465967426965757,-0.0481260888645158,-0.0629612568112741,-0.00231786705050751
0.0379085897663629,-0.0438257541206308,-0.044673132595275,-0.00586545744071651
0.00831717730513251,-0.0651972557879305,-0.024678503012736,-0.0078215706588201
-0.0281021254467937,-0.0979655732323796,0.000766348038501848,-0.00740775819919006
-0.0440680049679645,-0.110998248450625,0.0166617686907238,-0.00429798983906068
-0.0274510553232673,-0.0718897975469584,0.00501267589944264,0.000619894107993391
-0.00384864287572213,0.00310517021022533,-0.00763652229466341,0.00592842810757381
-0.00502269850958476,0.0614235295523959,0.0118277370711268,0.0101668775115651
-0.0198917721350839,0.0862866654877944,0.0394511264594185,0.0120065785742489
-0.0144269570763109,0.0910005709321715,0.0375634580538029,0.011471709024236
0.0050273202970254,0.0721658952039586,0.0135805746478347,0.00959779726901591
0.0107244501924422,0.0174768209275693,-0.00380042875287964,0.0073853187111157
0.000925402119460142,-0.0481065098660947,-0.00831441599968615,0.00581669271860915
-0.00315423007053914,-0.0689459451272135,-0.0133348560017573,0.00403695003061794
0.00972846051792169,-0.0410849984203924,-0.0224462831410279,-0.000345511037289274
0.0215212571107998,-0.0120186566303497,-0.0307259916886293,-0.00692153386951542
0.020164907050686,0.000829994937162765,-0.0336756910342128,-0.0117199958596725
0.0104987724843033,-0.000311850860511574,-0.0277005620470692,-0.0121948137913355
-0.00238704257442382,-0.0149146775175388,-0.0161984250727322,-0.0102326546277299
-0.00420282872173244,-0.0268235875461783,-0.00450886686351912,-0.00885039118810113
0.00510068286144965,-0.0279821796418419,0.00363983755757061,-0.00865090965870895
0.0101058437755269,-0.0285707066403626,0.0050483769698536,-0.00824654906449186
0.00423580108094167,-0.0300186405818872,0.00435529536143984,-0.00590143507728788
-0.0116553250184571,-0.0236518800814836,0.00769745118678681,-0.000977957320242325
-0.0259832699621151,-0.00795221272506227,0.00846924690507418,0.0055734863476583
-0.0248118073292019,0.00363443183141514,0.00349411815710461,0.0122985306939429
-0.0109066795827083,-0.0035992791264432,-0.000309704625541508,0.0176922385426188
0.00100989786840471,-0.0213214846920646,-0.00150590076881154,0.0199892145426022
-0.000753689526985023,-0.0394363895444256,-0.00120371373423069,0.0181253926120784
-0.00493244986855319,-0.0533502939811231,0.0014716106065072,0.013208054473096
0.00467829390130776,-0.0473070277070126,0.00600082194655882,0.00798361149914078
0.00913783868434988,-0.0255392563978239,0.00565798383145936,0.00398280210314128
-0.00604876746459198,-0.0148176442009478,-0.0069977288049005,0.000512190090113631
-0.0204099644919294,-0.0202974676273184,-0.0212746529372188,-0.00256887848771344
-0.0234929912463423,-0.0204548774379914,-0.0234608646506567,-0.00366540994258608
-0.0210520516991451,-0.00872410012422243,-0.0148262089420596,-0.00252303170743061
-0.0128369763931893,0.00854588838929748,0.00303267211007518,-0.00136742625213683
-0.00615072245889163,0.0283412983569127,0.0229235631479427,-0.00195796636041199
0.00355706625292149,0.0265129958059754,0.0248701632555652,-0.00395091889564042
0.0278959521008195,-0.00669599865108698,0.00466250443750748,-0.00601192375434717
0.0417464311188561,-0.0385669868647528,-0.0154178122826273,-0.00693415220657458
0.0242894354402452,-0.056858666889454,-0.0264100145087352,-0.00688212546472738
-0.0107020398989127,-0.076452889480304,-0.0305852832470119,-0.00798292152003438
-0.0392826915470036,-0.0836965283934666,-0.0216188656114086,-0.0107469221692451
-0.0459835339710684,-0.0563554051791666,-0.00711918106312398,-0.0124727354384337
-0.043091626650426,-0.0141908535336259,0.00236250775916768,-0.0116194261962671
-0.0400736027137358,0.0188214414589056,0.00977645333912654,-0.00981910176680025
-0.0264246795600419,0.0525737550904698,0.0185135714844294,-0.00896451314371011
-0.00571901006852209,0.0868418003382629,0.0230327710121791,-0.00840333785117243
0.0121737668856862,0.0990089081431399,0.0164588802036325,-0.00683271227254056
0.0261267308162169,0.0809172217699593,0.00337559760251913,-0.00476661186510259
0.0321178909808431,0.0457864051265581,-0.00610071020042782,-0.00242309951994359
0.0304801639533184,0.0151186188044556,-0.00360613545907027,0.00178138391709072
0.0277221729594085,0.00735348309044009,0.00958946279598013,0.00865683299914127
0.0193066562783625,0.019067594510594,0.0187352298938017,0.0157273887464024
-0.00152215584354553,0.0217295541185665,0.01812755146015,0.0189925880212294
-0.0202040048879729,-0.00641501100967039,0.0153979200375162,0.0165872803360278
-0.0211256825748435,-0.045013813312659,0.0086724995520813,0.00985083285673317
-0.0126949191098596,-0.0531488037654197,-0.0085213040705026,0.0012092110410659
-0.00997058288730229,-0.0195555130845605,-0.0254280870231376,-0.00774643305906314
-0.0217865572424301,0.0403076564564182,-0.0241584601011856,-0.015865752813168
-0.0390646191224842,0.0943755721051822,-0.00237218257166339,-0.0221581930807488
-0.0472857337187588,0.112279323379001,0.0300778261255651,-0.0251561976620691
-0.0447683186644298,0.100133965563318,0.0496234731129944,-0.0226974627609786
-0.0275935813641868,0.0854588448704312,0.0316719960749983,-0.0150851581526535
-0.0022081164768718,0.0696285376919599,-0.00803392178191834,-0.00758144538483856
0.0151901369993851,0.0332653931034931,-0.0371318595012697,-0.00568075606375606
0.0206148326431503,0.00449140564249444,-0.0411560416314943,-0.00898624388695484
0.018747802038965,0.0171352161031594,-0.0207191123381464,-0.01236906572579
0.0190533944424688,0.0159324559342884,0.00336346941563259,-0.0110910246480247
0.0217704027166435,-0.0459271824466827,0.0191893687703097,-0.00514478066865595
0.0231246018296753,-0.117296663790021,0.0197270096223253,0.00252590620513163
0.0236723613641296,-0.126495305995979,0.000465076619010702,0.0094996813355938
0.0230982351265541,-0.0628681031947698,-0.0105135654634634,0.0139613586977279
0.0278926428229897,0.00881730568363601,-0.00740729236804411,0.0163075712181545
0.0262326585549644,0.0409801765691851,-0.0094923665793176,0.0183369316925194
-0.00846899534093315,0.0569707484566746,-0.00836945633903848,0.0200929164289645
-0.046821733252857,0.0658958477850985,-0.00388539020294587,0.0202236463412049
-0.0305920213832663,0.0357724970276993,-0.00740993474023676,0.0181856668737766
0.0190953035072248,-0.0125285842712849,-0.00978182632444778,0.014829678611717
0.0416542971638394,-0.0151133671927254,-0.00490758360084305,0.0115763871338793
0.0332668341662739,0.024632340433634,-0.000581362362079047,0.00978025663158298
0.0189820529483598,0.056339800473256,-0.000329088625926215,0.00911603875351633
0.00763689773662216,0.0564704048375338,-0.00109759598064693,0.00614710643573889
0.00051784608071986,0.0260539676602902,0.00137293051986023,-0.00176204016043223
-0.00287949307022372,-0.0121309116713311,0.00895506020573072,-0.0116963756982771
-0.00467690018145764,-0.0287881687906776,0.0187410120613414,-0.0180972557096563
-0.00812290609051722,-0.0301434783223701,0.0192639770068988,-0.0183932491448287
-0.0136848198384627,-0.0315387941756048,0.00437391458416307,-0.0138828960560442
-0.00946161388179287,-0.0307308705848537,-0.0160508152607952,-0.00703728438200924
0.0114520513474904,-0.0310172944643359,-0.0387270659504175,0.000265280665497775
0.0359032973130113,-0.0383132537715971,-0.0571637575004508,0.00663522630702911
0.0399545844471632,-0.0387189181862567,-0.0558374214238255,0.0113242627636239
0.0194996729888384,-0.0209312077318181,-0.0449884279678421,0.0146974530998113
0.00560843612698971,-0.0106551231309874,-0.0427258196293245,0.0173505186518006
0.0154806517881702,-0.0350024743016428,-0.0491018957352629,0.0184100075976657
0.0279829709064105,-0.0701960917963415,-0.0504426676965371,0.0163836142949689
0.0170401284700129,-0.07823716618012,-0.0290570861482012,0.0115092155309775
-0.0160306801206973,-0.0634334812815388,0.00279835082688464,0.00560004751163166
-0.0354923046431998,-0.0456926952604416,0.0206789543095131,0.000648291540971987
-0.0247467725580874,-0.0334047816927085,0.0299240745693979,-0.00189229167548971
-0.010826129718737,-0.0299864337924469,0.0381181665722376,-0.00148091828779944
0.000375707763727879,-0.0307017960117697,0.0393083702370079,0.00104593687605906
0.0159781067938352,-0.0270864656553946,0.0428896454997095,0.00370935614414974
0.0173006736469347,-0.0145045372218176,0.0558895191491593,0.00524991443096264
0.00478437322740064,0.0108125965223225,0.0569667181880695,0.00542229883542595
-0.00472562425464717,0.0404127538774157,0.0346263820375215,0.00322783987242339
-0.00320965033353429,0.0652852742250105,0.0128900075047281,-0.00156087263068942
0.012431611186927,0.0966458997704851,0.00975911614729379,-0.00604803256751234
0.0248222748991279,0.129864385903396,0.00577513197535864,-0.0071956707918468
0.016503653366463,0.137144886903074,-0.022412006519499,-0.00580310144959764
-0.0183691006369877,0.112061944051613,-0.0613858241296272,-0.00528022528840682
-0.0579984567588993,0.0768509847695753,-0.0782606738963611,-0.00733014496238314
-0.050752192147007,0.0403996464286545,-0.0611522177634564,-0.00995194098335656
-0.0109571365250308,-0.020266359501091,-0.0222007358035898,-0.0106100281329508
-0.00628532370111394,-0.0840931209150373,0.0178113056747567,-0.00975152692137832
-0.0284395269801528,-0.120046034759201,0.030475822550425,-0.00864240073614812
-0.0210166707921949,-0.153057040402834,0.00634521289523542,-0.00773636500200695
-0.00216475250441842,-0.140516173317231,-0.0135685510356734,-0.007993514844583
-0.0123924270279161,-0.0400778334872301,-0.000765749811382907,-0.00949383882806865
-0.0291695964842774,0.0625354175381349,0.0149217349306381,-0.0104796865303822
-0.0249741964041833,0.0929276938566895,0.0107233360681779,-0.00960884563698294
0.0102787140550271,0.0799137681804031,0.00212993135531682,-0.00673199034805638
0.0598977785357152,0.0727494588337876,0.00943991124343171,-0.00178315334867393
0.0761733316099856,0.0623079149717827,0.0321181763517781,0.0049762766978402
0.0524514927401189,0.0361106075822915,0.0522418828630971,0.0117976346537577
0.0181238886598166,0.0268756566236462,0.0566089251852912,0.0155790557321636
-0.0100976354258414,0.0363003909761651,0.0417194083573242,0.0145144657933968
-0.0109969988384118,0.0309066128118404,0.015730698586468,0.00961376270699313
0.024170144174629,0.01643895520778,-0.00296586646005652,0.00331316603728082
0.0481574958602099,0.0196899856800509,-0.00475400437007946,-0.00222454437229995
0.0174367487724929,0.039531851688962,0.00181598589863661,-0.00614941797586172
-0.0348071180804478,0.0581512366998149,0.00587513804198909,-0.00870675672359308
-0.045871569900767,0.0646994012368227,0.013164012893778,-0.0104577363758259
-0.0195450063363014,0.0463090415403377,0.0208492365451096,-0.0117301002438371
-0.0084242406423525,0.00171482135281883,0.0134760520906418,-0.0126722063971067
-0.0122077122065055,-0.0385703738510805,-0.00657678424178616,-0.0127898675857722
-0.00689775118246798,-0.0428490568020591,-0.022861885001435,-0.0109645782606828
-0.00808920671809048,-0.0103938949466129,-0.0200578193503335,-0.00752270863670069
-0.0199169175514193,0.0228341482934997,-0.00136965924876399,-0.00351249000018563
-0.0249690363558225,0.030622282663039,0.0193203745721891,0.0015645526987969
-0.0281393970969861,0.0118293452556728,0.0347579563421827,0.00778119094620774
-0.0347402640747615,-0.0198119053182447,0.0412898266283615,0.013097937005951
-0.0350641920509256,-0.0267191702496882,0.0345405131076013,0.0156517929611163
-0.0292528221766878,-0.00226205756869779,0.0168082542906608,0.0152587340809712
-0.0173834128281532,0.0243727367568528,0.00163783385178241,0.0128785538231165
0.00545313338170994,0.0444817648157769,-0.00696482530292826,0.00990571538790867
0.0484106230160041,0.0391236764342127,-0.0162453815508225,0.0070647263407136
0.113376512730594,-0.0257704640930241,-0.029337385638245,0.00419290349819813
0.154330671907299,-0.101100199947754,-0.0466820823744242,0.00138089411612174
0.122948890965184,-0.0969062879432509,-0.0560042740713338,-0.000850314069788145
0.0473101707185704,-0.0271843473824152,-0.0394642705379774,-0.00236529737272986
-0.00468513032270362,0.0222472649766888,-0.00636696703115495,-0.00412450309034535
-0.0189294195900569,0.00940067697609981,0.0172631689173433,-0.00795447720499138
-0.031432043710492,-0.0366256709682903,0.0187065148937459,-0.0147126338349572
-0.0496937113765057,-0.0494139243878761,0.00945255069417494,-0.0216717750670904
-0.0550756779788575,-0.010765201865496,0.00598076614527623,-0.0229193640732255
-0.0434415404323111,0.0266071479159442,0.0104809525574766,-0.015283837942873
-0.0242780474672367,0.0322665956025473,0.0191703729290698,-0.00208396936676287
-0.00895825544145404,0.014387100548283,0.0210499243814893,0.0102927781935872
-0.00216690193412406,-0.0163830067161121,0.0102287656766656,0.0171731101009604
-0.00273014524773358,-0.0352732745140407,-0.00429527639886839,0.0179579145219194
-0.00544149148364573,-0.0248871328117971,-0.0109135412277193,0.0158546539728961
-0.00655773008600765,-0.00229826578104485,0.00206127187572987,0.015133514795025
-0.011381496322575,0.00820549254288067,0.0261777162405336,0.01774682782822
-0.0130859016520933,-0.00621103692243043,0.027565694066667,0.0214438111561848
0.00653090242891756,-0.0341475722434847,-0.00279064106051435,0.0211013088762687
0.0285035446795328,-0.0409649878740007,-0.0284261534512575,0.0133639709883919
0.0244059382487823,-0.0203047476365249,-0.0235759770617747,0.000170585009911944
0.00940707060586184,0.00254036664220696,-0.00430761736860825,-0.0127765585046963
0.00492160598430152,0.014778851893342,0.00753673029011854,-0.0203484458606519
0.00802713448830508,0.0139288781099109,0.00404504288927403,-0.0218942682501002
0.0121289044092751,-0.00572800567298165,-0.0123556201887709,-0.0215777174303219
0.0185567069826854,-0.043280004966808,-0.035739214296416,-0.0230206927353711
0.025281081445327,-0.0776077130815647,-0.0484797672788094,-0.0245996921500856
0.0219055398424606,-0.0730587887615872,-0.0258741573266388,-0.0216638151672067
0.00662106703045705,-0.0213750850609476,0.0141276426490248,-0.0126105276206491
-0.00690277418565066,0.0346199552206295,0.0298388447999954,-0.00125342129753018
-0.015695034911148,0.048461800041044,0.0101620886000358,0.00742910272194322
-0.0257649463213526,0.0311707489097183,-0.0188180626437695,0.0116044282559109
-0.0295082049496511,0.0232795732289754,-0.0217594864771631,0.0128045205988228
-0.0238504853166709,0.0247698243838135,-0.0130094727780984,0.0137506329433626
-0.0129383158730583,0.0244897844199172,-0.0185615586920045,0.0153101950162763
0.00179912539868769,0.0321997645895278,-0.019221457036925,0.015924461248627
0.00813135874524075,0.0415413299744496,-0.0085350420397791,0.0142984541441285
-0.00223231716480579,0.0327029975439743,-0.00321293923188264,0.0108979579108699
-0.0126273765857289,-0.00785959545635374,-0.0036438291746759,0.00692981151106171
-0.000861949319111556,-0.0572614274546948,-0.00198179343248784,0.00337179351345914
0.0291534277148744,-0.0619482106923006,0.0124110097053944,0.000882554508513919
0.0505325036369832,-0.0309976442614461,0.0374353322039297,-0.000413019998298625
0.0433739311802292,-0.0145100356092497,0.0476412202915513,-0.00171432031960602
0.00956994093551652,-0.0156413198796985,0.0351459726319413,-0.00388291741540574
-0.022885269073318,-0.0277964553862536,0.0111938393603482,-0.00619784739508193
-0.0265637875149505,-0.0439625636348644,-0.0131857087105165,-0.0085874022751107
-0.013633600733152,-0.0386551542207613,-0.0258434905668247,-0.0113357315825527
-0.0165784236627652,-0.0140324914829565,-0.0257950452025023,-0.0139481282151283
-0.0405877520154473,0.00652216144736084,-0.0137156172924819,-0.0162134814061125
-0.0568858061004765,0.0261804133430903,0.00200635365052835,-0.0165371315800341
-0.0414880619451111,0.0549084647507625,0.00380625297701476,-0.0118431630468547
-0.00930053642279666,0.0585384571048965,-0.00470789989721629,-0.00268189933506219
0.0095420579532602,0.0167682013498947,-0.0154104226495862,0.00634561698369053
0.0157292977382763,-0.0174247306686892,-0.0313069247620664,0.0121283373459977
0.0130603716332396,-0.00858093089504566,-0.0385226103306949,0.0148703319204844
-0.00522565542889747,0.013810418562709,-0.0218897246902785,0.0149000502864944
-0.0234011501105162,0.0192205795866752,-0.000548244554185319,0.0117920261483138
-0.0246106401537888,0.0106307549466201,0.011959695627925,0.00657182523334207
-0.00900342586665073,0.00634944366165029,0.0221490002471503,0.00160904793867183
0.0113090763291119,0.0137507357575946,0.0292880508132395,-0.00169594082326118
0.0212182565264244,0.0240510307652203,0.0341967001572899,-0.00433809876620497
0.0171190339783379,0.0240709241355107,0.0301380286332503,-0.00788581003791082
0.00814797338327681,0.012945218517182,0.0154581631251019,-0.011323574355027
0.00261309825281923,-0.00681483996820054,0.00653472806171517,-0.0121341312996276
-0.00613735643244358,-0.0402823026903052,0.00943583061347903,-0.00969587633595205
-0.0218418554310346,-0.0688591374957214,0.0131008619550176,-0.00534306855482676
-0.0304172297964295,-0.0654105692724548,0.00622249850963029,-0.000589235404306547
-0.0268842037505773,-0.0415021204831478,-0.00221209193913625,0.00297724638012864
-0.0192856653394401,-0.0239200162207146,0.00170531754081849,0.00411834927133352
-0.00369558062644162,-0.0205881555594283,0.0117981205409255,0.00367905226474024
0.00754339007735406,-0.0160865588531452,0.0196685935444615,0.00350959969668461
-0.00332299708357768,0.0130687485849503,0.0251461297486792,0.00385255123311471
-0.0116677780575965,0.0482236509877065,0.0179316876867186,0.00455028847626755
0.000642046832275082,0.0443655066765472,-0.00663565285282406,0.0054481927603262
0.0138998572558395,0.0143171059770532,-0.0218513143454461,0.00442944688000376
0.009615353203969,-0.00175310676047903,-0.00993643008456754,-0.000104215300244286
-0.008354764826966,-0.00228870666567666,0.0162432808432601,-0.00652593743187495
-0.0287274257682733,-0.00341454996520061,0.0368721576447907,-0.0114715550998299
-0.0352692817681475,-0.0150338134381721,0.0341567477973356,-0.0122559468673399
-0.0144119609308689,-0.0260507004228059,0.0151384008101721,-0.00873028122840234
0.018694107132852,-0.0364605074418269,-0.000768476591377215,-0.00355333855870098
0.0438806900955288,-0.0569256944718304,-0.00761950497452204,0.000512652287424329
0.0560045464059085,-0.0509490202184362,-0.00504658180791357,0.00321021201491927
0.0583289677037872,-0.00877686114338419,-0.00980281787717037,0.00517225717493695
0.0599417900087156,0.0276932723735819,-0.0291117110305591,0.00552464052433968
0.051109838395404,0.0514773490682353,-0.0449326238270482,0.00282981973879554
0.00632407781417774,0.0656297098139944,-0.0489837650896111,-0.00288155597609395
-0.0461006837899918,0.0507250255044364,-0.0333704680283595,-0.0093343195068119
-0.0465414410514496,0.00895554001338289,0.00249711991777195,-0.0122324626447052
-0.0154197564266032,-0.0407961352901527,0.0393808270177988,-0.00823540118291808
-0.0095087231423247,-0.0816092696665047,0.0608087495296911,0.000998307641036344
-0.0262483730100364,-0.0783688434410379,0.0692012207280487,0.0100284543083163
-0.0370449996523427,-0.0257756209999709,0.0710521210749562,0.01518394110356
-0.0281644828577389,0.0277859325135815,0.0628674633578878,0.0163464931870984
-0.0086140051895916,0.0486714665579104,0.0428931406118868,0.0147757939999331
0.00788504811683496,0.0455860738351827,0.0170925794330662,0.0123476738911315
0.0264076152740001,0.0347903901903186,0.00395819897178763,0.0109718375177168
0.0387289660772328,0.0163943185707496,0.00229982721265118,0.0102902615205233
0.0295059675891021,-0.00245055075662343,-0.012441330443552,0.00747617248979258
0.0104546896381649,-0.00630617140559469,-0.0423128689090634,0.00180820674431794
0.00578850167810604,-0.00128464243926591,-0.0702923984582502,-0.00386147623444124
0.0229517464673902,-0.0108059826370218,-0.0811023563826212,-0.00712743514575518
0.0257251842181516,-0.0560882499420989,-0.0623005658107176,-0.00774951673756036
-0.0207925049965519,-0.101544622874105,-0.0270641757085159,-0.00662092993487743
-0.072018411256695,-0.0746644288767976,-0.00486858527694559,-0.00526401641205453
-0.0642055627123265,0.00960606937195593,0.00341286851181716,-0.00574979538648766
-0.00312564398237746,0.0729716801285816,0.0127126631601526,-0.0086056154517946
0.0607767690508782,0.0823349439779047,0.0253576984914992,-0.0106895315872143
0.0811089302885233,0.0620599710638026,0.0338637349164479,-0.00885169384842925
0.047442780700432,0.0450817058102563,0.0348531151028414,-0.00485427746225128
-0.0190837933208657,0.0363968246269019,0.0282463155262277,-0.00214011706702462
-0.0586277903950219,0.0277290435076321,0.0136015032380726,-0.000518393689361797
-0.0345752804045931,0.0242606357581257,0.00229874222449964,0.00224913215960017
-0.00383023456497085,0.0180573460569124,0.00271996046050171,0.00604670803032406
-0.00846364517798848,-0.00395793633112792,-0.00307280939847622,0.00871800743694207
-0.0274603561269615,-0.022184736266501,-0.0311934088645681,0.0103007070344804
-0.0348396479368659,-0.0157057567440274,-0.0602537442699228,0.0128392922026728
-0.0216979892848565,0.0196587585398449,-0.0593242811135292,0.0161829665828661
-0.00161007240367263,0.0580437598601808,-0.0371192146960842,0.0179892705115406
0.0105503576051041,0.0567481038727902,-0.016078382069412,0.0172103772177017
0.017830089671372,0.0011914229725811,-0.00462775441316797,0.0150843321104118
0.0165535600797843,-0.0684989058957402,-0.00842895900909749,0.0125720056744467
-0.00304997213555589,-0.0939397226657928,-0.0127450962803878,0.0078091965342792
-0.0293551015793353,-0.0857817028561137,-0.00604882517605464,-0.00133612090959047
-0.0377705146307339,-0.0792651042790066,-0.00402064082957599,-0.0130116498818039
-0.0210016341744045,-0.0675320914754749,-0.0129539064435549,-0.0219206343269341
-0.000171049371819408,-0.0422200966050908,-0.0217698513018607,-0.0243159610571781
0.0144563944719821,-0.00662152061155388,-0.0207529898153043,-0.0210435556156582
0.0256882752088677,0.0181288280972659,-0.0116692425648919,-0.014694993984819
0.0243518762800208,0.00737114862918868,-0.00854364770705312,-0.00741658682331846
0.00664827572543933,-0.0146810372679325,-0.0116138727869432,-0.000992102240618943
-0.0225160229130499,-0.0128478994544605,-0.00668997585489845,0.00401388281695854
-0.0366938571749081,0.00232493026636552,-0.00160186525850403,0.00724050721509337
-0.0156064762695672,0.00890092392075339,-0.00755873763929444,0.00694447080241772
0.00612762462659314,0.00826204176005691,-0.0134761053165557,0.00257675814429599
-0.00424704601274554,0.0119107229012416,-0.0138203673151818,-0.00302753340451722
-0.0267082197915908,0.0249621207857075,-0.0137367396655574,-0.00577434993376454
-0.0270543042996242,0.0374809681984976,-0.0127225665800926,-0.00339868592436379
-0.000156196478124569,0.0408427769989627,-0.0101759671490294,0.00314030413635405
0.0273632002818916,0.0329608028235471,-0.0138081217404594,0.0111919711759763
0.0304618220168799,0.00373497001785043,-0.0289445946869393,0.0180683045515793
0.0214278789968818,-0.0327093388378489,-0.0371585906137894,0.0216286664255311
0.0250805448951966,-0.0493019192910869,-0.0244583462336628,0.0214313292979303
0.0343898831755973,-0.0525558039124208,-0.00970467048978829,0.0182628567281139
0.0257380653405622,-0.0568945034560804,-0.00701061969431223,0.0127232338797205
0.00213839201691052,-0.0780586256049213,-0.0106667038506395,0.00510955758311214
-0.00996293744161286,-0.11680023419421,-0.0135381299702058,-0.00393003946816954
-0.00410839959359691,-0.126301381893532,-0.0114385174984685,-0.0124572170616724
0.00213054663433647,-0.0854084569796977,-0.00407752571913923,-0.017815271737295
0.000171374192334116,-0.0347991150783005,0.00687411791030878,-0.0187254280870585
-0.00321809180535219,-0.00637137803937383,0.018619386979613,-0.0157284078393785
-0.000249841466920933,0.00432051089823304,0.0216438850834442,-0.0102010481520508
0.00799792378289403,0.00399345848370873,0.010342416830647,-0.00400292346970148
0.0164729417331561,-0.00696432199712834,-0.00140256614943744,0.000912329087142207
0.0216903898029063,-0.0216385901926136,-0.00274544156570644,0.00346940073393536
0.0190135681557022,-0.0223756768403492,0.00148495449830201,0.00343895891455798
0.0152870113146827,0.00554285510911255,0.00858789750639454,0.000882764917169848
0.0216021035512352,0.0314358663170768,0.0082748848480901,-0.00318475947194603
0.0253601320258816,0.0232807978963879,-0.00915488882349482,-0.00738504844104879
0.0150444491420466,0.0115839011453261,-0.022044033258629,-0.010821711480976
0.00808667456251162,0.0158113653034709,-0.00486471505287715,-0.0116192659540441
0.0131244225762012,0.00876131259030918,0.0241811944108078,-0.00809759898596621
0.0181902038411502,-0.0153466920546688,0.0279731322614871,-0.00200327231526351
0.0279169751346706,-0.0376760813874137,0.00952056599566819,0.00306457723812481
0.0414426223288106,-0.0401540529176274,0.00319142681316328,0.00605925292136274
0.0359802854221632,-0.0148069784981277,0.0170662296767687,0.00920740270386671
0.0173974940331582,0.0048708284317595,0.025829640149606,0.0137268786122339
0.00907323216750511,-0.00119560742181215,0.0202605188119986,0.0170883179596795
0.00703619626069766,0.00530807646820202,0.0163094096293475,0.0164903962715962
-0.00703971424060886,0.0305905941730299,0.0209855643255509,0.0125156131979626
-0.0293535333696426,0.0407981814532801,0.0293459812473107,0.00741322101353552
-0.0333647870863655,0.0322328953149231,0.0372778848914678,0.00164714345833416
-0.0150954097834901,0.0226503322878302,0.0410004055578888,-0.00578581383433235
0.00349972898033167,0.0167472645863177,0.0389348801902979,-0.0145261685381139
0.0171713605403111,-0.000257054259419076,0.0236073424820187,-0.0219402295250865
0.0208714075388595,-0.0227778457708323,-0.00919926072041604,-0.0251758778878117
0.00716528761056604,-0.0292443661530224,-0.0311674178358505,-0.0233608213482677
0.00175347905558659,-0.0280247960184012,-0.0205907506159863,-0.017631749006317
0.0189403966446402,-0.0171884588359746,-0.00206662198628893,-0.0101660735896551
0.028291967672577,0.0133834431805651,-0.000750162095746094,-0.00343638151578824
0.0151007146485739,0.0371680483404402,-0.0123225063222089,0.00105615068361391
-0.008370652547005,0.0372069949798437,-0.0198122143294506,0.00400440196992911
-0.0336369278879288,0.0319289947122574,-0.015453427673499,0.00690100151459731
-0.0357447431851565,0.0301453812425979,-0.00868583244602081,0.00903961911874688
-0.00825012187682384,0.0237153624522176,-0.00316917528677889,0.00846216411937278
0.0205244727384075,0.0209095343518115,0.00916599508540596,0.00617962126606073
0.0387902013201285,0.0297188101236544,0.0285510844551366,0.00557304188843102
0.0426625664730158,0.0343777405250804,0.0390659875849707,0.00761503578818755
0.0300706808189703,0.0282001117271642,0.0292811657949183,0.00931778902298133
0.00650958301501024,0.0254669770572502,0.013980802414557,0.00727793035973043
-0.025621181312725,0.0275626013973052,0.0039004809921852,0.00185380033794903
-0.0433385204617763,0.0181295780064897,-0.0118503411503067,-0.00355007476278887
-0.0323791606159471,-0.00458897000432047,-0.0263765441141859,-0.00591803387351681
-0.0182535955670404,-0.0128357466891459,-0.0233494999828825,-0.00427191537589624
-0.0149775790222467,-0.00423369792509156,-0.0146441094229758,-0.000139217725775694
-0.0198669096386708,-0.00653762636433023,-0.0120002265134979,0.00333143531060941
-0.0246196354472992,-0.0105698417425961,-0.00942428958990947,0.00383908103658263
-0.0133871949339825,0.000864783906523579,-0.00903540496118041,0.00127254300663556
0.00517270709814054,0.0121393848264166,-0.0168462158088851,-0.00303402792775083
0.00804866609547012,0.0127883767300961,-0.0192581420952,-0.00737871311894444
0.00484327888168028,0.00656742114612313,-0.00830165930741941,-0.010024552899022
0.0124641481135218,0.00505883524891688,0.00700747005480818,-0.00963983927877883
0.013692566788754,0.026452304337197,0.0212995251238789,-0.00591974501925735
0.000850205588667236,0.0535739633635215,0.0206102087782731,1.14524424462414e-05
-0.00970033626921881,0.0507563013376799,0.00272562426298049,0.00523026107255645
-0.0153068833506995,0.0267495547535211,-0.0172212236177532,0.00624182619441133
-0.0198272067641204,0.0201907285315994,-0.0246506709084233,0.00311825620179612
-0.0234722038356521,0.0321672379523299,-0.00817279433279166,0.000462723488015414
-0.0259676706213821,0.0338943263355198,0.0147521681661307,0.0018522186948347
-0.0271997101498012,0.0358713213586842,0.0259890393418107,0.00661759095937055
-0.0352671520124336,0.0490823309577755,0.031142583033058,0.0108024333083833
-0.0494416862390365,0.0458580548923308,0.0257903859627633,0.00977575160416037
-0.0554962025925072,0.0297098457681424,0.00688682250389502,0.00322362340807076
-0.0522080796229975,0.0417670618380209,-0.00828181945479493,-0.00445416296815968
-0.0445953483915344,0.0789391250865424,-0.0117778074286048,-0.00922383254453515
-0.0346741137121527,0.0904199195265732,-0.0107924530560174,-0.0102668964676864
-0.0133732440955236,0.06126850444255,-0.00814588971643627,-0.00879245647183594
0.0350115412667426,0.0179148324902499,-0.00607070797391744,-0.00604458037514245
0.0832217315443833,-0.00743189648202576,-0.00986071006817914,-0.00397051209553593
0.0878490280603111,0.00118189835008556,-0.014450040164681,-0.00488717135782986
0.0519328233251684,0.0196685644771256,-0.016509848986582,-0.00744798295899192
0.00848302147238626,0.0229176745861266,-0.0143323543124691,-0.00720965072686577
-0.0158169024761544,0.0277920019328357,0.00357001265139383,-0.00283409388790761
-0.0313649739901791,0.0452213413563833,0.019426578656791,0.00228920394120989
-0.0554490058856259,0.0542446520615249,0.0118924819440512,0.00509213825549307
-0.0578302728683522,0.0449219623927162,0.00112385470799953,0.00610134012823433
-0.0165944059833948,-0.0173111063278218,-0.0103180965274836,0.00663466320286712
0.0346111563735807,-0.116017519498232,-0.031647976740425,0.0062078013159465
0.0538811167312341,-0.132419172343895,-0.0341875659788922,0.00320606919654903
0.0288897559899726,-0.0553630872525344,-0.0118578664135001,-0.00303542572897967
-0.0162848213488374,0.0192768139127286,0.00956186683486356,-0.0100837925470223
-0.0440591079809738,0.0561316646294683,0.0248760291501712,-0.0139132228107385
-0.0431265136570396,0.0735378539406845,0.0339112830752725,-0.0126874987260879
-0.0269765827594829,0.0909045008672317,0.0316118415550807,-0.0082736137940309
-0.0069698499881667,0.102006382965881,0.0199315032424872,-0.00386309771805733
0.0114091492027334,0.0747921819479601,0.0058131416040655,-0.000709508597076124
0.0212594651166165,0.0197699493060102,-0.00592900056022379,0.00142061488613401
0.0273438023739236,-0.00719488488180619,-0.0155839627980056,0.00282446182422305
0.0453970126627917,0.0014777806813879,-0.0185152520571347,0.00419965077032127
0.0675936041417096,0.00841912801883029,-0.0127831606745326,0.00735001307452905
0.0801049990779344,-0.00720375044997209,-0.0110813416954676,0.0130550547822826
0.0681716057844406,-0.0316548825718731,-0.0147405073968033,0.0180760389875663
0.00300232830612557,-0.0417356081733828,-0.00995308767642452,0.0181292206160983
-0.0637798385598007,-0.0370980505274194,0.00508731362202729,0.0122106265633636
-0.045996176460763,-0.0296948658281464,0.0177656238864736,0.00304010745185282
0.0187290310293367,-0.0292985416184582,0.0120304975755483,-0.00527160916772056
0.0428942209592827,-0.0306472679431429,-0.00338087568562115,-0.0109208042539179
0.0174773628302966,-0.025611847021457,-0.00900025025238178,-0.0145620498915432
-0.0179715180772833,-0.0262795027104882,-0.0118570921689242,-0.0162531221921869
-0.0335159836274838,-0.0392836028915821,-0.0193066264141576,-0.0148797559006457
-0.019604959233099,-0.0551276773286593,-0.0256691155377173,-0.0102694500361871
0.00464990792707749,-0.0678331750422822,-0.0270624010686381,-0.00428619006046096
0.0120234017125471,-0.0721063621316373,-0.0226487018860022,0.00132624869573013
0.00379558834662128,-0.0599886058378369,-0.0129272639320917,0.00703600366487374
-0.0018550297634423,-0.0312554679976648,0.000445853300702227,0.0137843140253404
0.00207331140163171,0.000553273311216601,0.0133567258349027,0.0200056279856392
0.00539509420955434,0.0212033107268876,0.0235230084811397,0.0217887151472034
0.0014550730882734,0.0326717008893612,0.0348848412778529,0.0171238036492408
0.000935399305617139,0.0404087886636927,0.0460699167643845,0.00873643141739646
0.00623169247131256,0.0468178276993109,0.0417770761246611,0.00130910612466128
0.00707032397932663,0.0459945188267993,0.0214769632837301,-0.00325652818767919
0.00373281705975839,0.0344636179350871,0.00922114814556604,-0.00586596052301935
0.00276544315498062,0.0273982815682839,0.00309825237545448,-0.00712116922329493
0.00402078582179571,0.022737048847876,-0.0147993844105375,-0.00727955335034648
0.00088187201422854,-0.0188330054682781,-0.0257685063655834,-0.00667516082522932
-0.00711354279082137,-0.0829727255284312,-0.019003549547026,-0.00481325056441976
-0.0107243713337432,-0.0800744869643278,-0.0111531246815189,-0.000767690379222249
-0.0106002706620088,-0.0181923278964961,-0.000703482661858299,0.00553414811392966
-0.0203682254900997,0.00830631703064857,0.0129533708948644,0.0121931820249857
-0.0348310163807514,-0.00520209272358618,0.0103473143460132,0.0158000324991519
-0.03917471395664,0.000214222290856689,-0.0090999032005748,0.0145296544139136
-0.0381328402790893,0.0314652176246442,-0.0168273313849411,0.00973681041474278
-0.0342356967861913,0.0528256410618487,0.00190072854071635,0.00443517783883776
-0.0304727444316419,0.0523878592399855,0.0276496219850754,0.00104747469301059
-0.0310781257944573,0.0399750000973772,0.0370254022630665,-0.000796048013371846
-0.0209160222173407,0.00363756457728821,0.0192370396412931,-0.00353921979467543
0.0037491104123077,-0.0644087793663634,-0.0169294858739076,-0.00817051861685271
0.0259505187968431,-0.114403037526395,-0.0365270109840723,-0.0125390969195232
0.0367963167486797,-0.0998863174308622,-0.0227837264064827,-0.013654171077239
0.0405838378840232,-0.0433454521109735,-0.0031749053787095,-0.0106152200615315
0.039889223128572,0.00537769925416803,0.00328673782758648,-0.00542945243825622
0.0278295202486409,0.0211480788961788,0.0141338329216238,-0.00121778570650919
0.00662261729086416,0.0200200824787538,0.0313271493613335,0.00129767941776147
-0.00815278593083195,0.0304548260073733,0.0345914999297855,0.00350440614329641
-0.00936540551196759,0.0399483988990686,0.0214567511741761,0.00543574185988152
-0.00243803123428347,0.0288383274099945,0.000462092025358816,0.005645673503603
0.0076660847032608,0.0123396664600569,-0.0185979241273531,0.00419913995374423
0.0104661983828252,0.00295298241267563,-0.0252546215830711,0.0028049190946327
-0.00809912717920714,0.00336637017385873,-0.0194353340948512,0.00177039104811907
-0.032094061714225,0.0128706718998288,-0.00949655709487671,-8.21765341293479e-05
-0.0258546423799804,0.0249690331101021,-0.00488965855816097,-0.00297364688849545
0.00556324624723908,0.0383620295013497,-0.0064784191020549,-0.00570043518977365
0.026209489328929,0.0365273368365802,-0.00692436612053139,-0.0069883880472512
0.0270484263929924,0.00246114536064615,-0.00524781072993771,-0.0067613248280931
0.0183849234376423,-0.0340603516140609,-0.00432127522043169,-0.00624041915515259
0.00889926961302968,-0.0352692505252743,-0.00550466236036352,-0.00652493990994945
0.00664986058390114,-0.0149773092014529,-0.00791329462393075,-0.00732781639771281
0.0120299756253242,-0.00851839429990276,-0.00820921961765742,-0.00765744237733747
0.0185038755616044,-0.0295945127283935,-0.00536033888227083,-0.00672993002713476
0.0209865536806034,-0.0584244822569151,0.00120249683173544,-0.00418487703620354
0.0204654088475073,-0.0524106461663203,0.0134031504593361,-0.00053154815884477
0.0213416480271667,-0.0124616761032833,0.0311909258502131,0.00279744474324605
0.02173909151281,0.01078720762807,0.0452109721283464,0.00434872126463209
0.0181813317049313,0.00204298215773669,0.0461138172980103,0.00399896752066268
0.013811741728691,-0.0222356561313691,0.0421038136088586,0.00276647749726362
0.0101850082944951,-0.0567642501722444,0.0377020252166444,0.00107227308303637
0.00590825397437219,-0.0658753129123268,0.026312184287334,-0.00150081853716195
-9.84439248931379e-05,-0.0173929251211879,0.0109277084368309,-0.00482421889847234
-0.00542883176958811,0.0403299885778013,-0.00109821564046041,-0.00793171764858488
-0.00934866963272411,0.0485680807662885,-0.0116233208792061,-0.0104411188819043
-0.0144689393324848,0.016745496103341,-0.0267001683835373,-0.012278538319819
-0.0150749692204399,-0.017987228060037,-0.0399809777453163,-0.0124223179813394
-0.0132544457919098,-0.0277546081603094,-0.0375034317478859,-0.0101535814525188
-0.00966725076769016,-0.00743002503147243,-0.0213510379490007,-0.0056172011176298
0.0013024279658272,0.0100286756683,-0.0102619604605036,0.000189609512717211
0.00759538116291868,0.00279607060611359,-0.0105112553429826,0.00542721338611065
0.00188205154135084,-0.000870739967272348,-0.00656876431829928,0.00938713571232894
-0.0120062486350038,0.0174969677797374,0.00853753230505667,0.0120019996732534
-0.0164225008109108,0.032565152564287,0.024150516856659,0.0117005902274781
0.00383117055962879,0.0363362296736714,0.0274667737493291,0.00816268410666641
0.0268701861939123,0.0384604575337939,0.0121844081461711,0.0038457192626519
0.0286359827138772,0.0281438519805392,-0.00367882297656293,0.000622821725840423
0.0139066763401658,0.0120505383432235,0.0012176850962444,-0.000755036350364904
-0.00556812919241042,0.00338883211531673,0.0119653860888498,-0.000223358124544436
-0.0222102603905406,-0.0077596949914811,0.0050343626722787,0.000592459003585497
-0.0281325814548539,-0.0233361287606949,-0.011680421403019,-0.00055941833381255
-0.0266888934798189,-0.0333135999502875,-0.00869188855805561,-0.00338791537150837
-0.0304226186674395,-0.0248294129362487,0.0140953742403335,-0.00487833180261491
-0.046636041705601,0.00963459586426295,0.0265003021275248,-0.00330743568250735
-0.0572936247381011,0.0573546584827225,0.0232399005620365,6.3518459882915e-05
-0.0320109866924943,0.0960221256179868,0.0159707400968383,0.00292168941097427
0.00989931952614567,0.110408981991584,0.0111036220830062,0.00413468856970548
0.0191580687532058,0.098565925811841,0.0121136645621293,0.00372252320463264
-0.0029643949427485,0.0751807048485017,0.00923530614821628,0.00124625975818324
-0.011565380514488,0.0586094592507959,0.00338268977956749,-0.00316603996613408
-0.000447141630196157,0.0455411346427559,0.0109865484107816,-0.00670902240116946
-0.0108317696880947,0.0158163091538947,0.0283395781157899,-0.00566148796398902
-0.0473864970235161,-0.0271742195088112,0.0250451102224118,0.00088479609985488
-0.0666120359776276,-0.0575105346957794,-0.01527501023199,0.00951317488919698
-0.0382813402488237,-0.0892711345375003,-0.0532428716902646,0.014977795341435
0.0204321779904712,-0.147364181031215,-0.0620688090227084,0.0145498329167637
0.0569099309642814,-0.163075422556522,-0.0564461421351128,0.0100012550026735
0.0505726001906216,-0.0922509638030259,-0.0396749995936599,0.00656123124918194
0.0259161191499601,-0.0114936165537997,-0.0206558568515272,0.00805998901042996
0.00363946967248783,0.0389628152373799,-0.010049646830897,0.0125300521682414
0.00334335797065915,0.0823572535026867,-0.00292283159630893,0.0148095047977538
0.0205914550263337,0.108921344804748,0.00218861644913155,0.0118938407557511
0.0188319306523868,0.0885031813872048,0.00583463160700287,0.00508586291374082
0.00620690184152636,0.0288858457348751,0.0103754824200599,-0.00172071386154715
0.0122653792074552,-0.0220978623532481,0.0180237255528752,-0.00636011006590132
0.0162052178589758,-0.0301672430437334,0.0324759653890431,-0.0098312669817909
-0.00172097378728661,-0.0155924489409753,0.04739930217597,-0.0125641248235718
-0.0372705102304132,-0.0215335654839081,0.0421761192187729,-0.0127373055829717
-0.067954578310739,-0.0417404935832798,0.0153960444732054,-0.00981924526332192
-0.0596756725652664,-0.0291571318872701,0.00478681395883316,-0.00522447199130399
-0.0383781841125151,0.0171598258931063,0.0190832091617846,0.00126973272463296
-0.0362096140692331,0.0622406031059239,0.021631182173847,0.0101009363475819
-0.0249901190799901,0.0950854280370694,0.00591680419200858,0.0184669248959465
0.00528974421022894,0.0923372436813062,-0.00847835361326432,0.0224628002996463
0.0430070464214432,0.0328657736274622,-0.0278130186314503,0.0202312474815572
0.0691454521596699,-0.0581238961098208,-0.0541933694934649,0.0130619159788025
0.0586932892413524,-0.148857063813831,-0.0608968597098948,0.0048333116773942
0.036210654864116,-0.190212203000655,-0.0419958937993833,-0.00122672178954421
0.0330819560572448,-0.143178811911821,-0.021518943633583,-0.00399942525609326
0.0319334794716525,-0.052847819667805,-0.0120266293507634,-0.00339983562489668
0.0272736106563523,-0.00305467411526819,-0.0111801440074019,-0.000584960462077745
0.0405092066410667,-0.0101663592738586,-0.0138246210630119,0.00197591933132999
0.0619619867489025,-0.0229549133573899,-0.00987030118900725,0.00210723977015756
0.0658413450404026,-0.0286697768923171,-0.00151950398371035,-0.000182852245521927
0.0264798918274864,-0.0446959489805548,0.00266978869496645,-0.00305911561898566
-0.0492049584581103,-0.0579708254975754,0.00330601431091584,-0.00505944003635391
-0.0814985960915579,-0.054572070364101,0.00248416711074142,-0.00569533470470395
-0.0354226128602691,-0.0410453649380652,0.000799878037674001,-0.00488354200362592
0.0122876874014978,-0.0313583806284486,-0.00807882543147546,-0.00349928714562482
0.00825970743683542,-0.0222338614818638,-0.0228510684229954,-0.00311755057160393
-0.0132303288193809,0.00153883629474247,-0.0267757419944915,-0.00406433159044232
-0.0130167339864445,0.0343050050780773,-0.0164085613391006,-0.00473820951569774
0.000686132339655657,0.0571386451160907,-0.00562165021788928,-0.00347646245880764
0.00330547665916091,0.0596294547873807,-0.00287556878280314,-0.000358029937793143
-0.000411577380116199,0.0484185116204081,-0.00339727657161026,0.00310787647014582
0.011990140887633,0.0357987785667656,-0.00527677560242136,0.00527035781796315
0.0405126297723115,0.0193823367583997,-0.0166522775253923,0.00526234140841251
0.058663441018567,-0.00682492335187757,-0.0333097025762845,0.00326298319014087
0.0494427496293173,-0.0421294560155109,-0.0395193134758377,0.000163228354425005
0.0209301390372842,-0.0856239398238121,-0.0338552536317461,-0.00311995811213187
-0.0115500718681652,-0.107096103900019,-0.0237463649163528,-0.00595575503070411
-0.0291666207724007,-0.0756649121377676,-0.0129028124489489,-0.0076131868027664
-0.022792348106611,-0.027405351501984,-0.00701770071362913,-0.00722597992560035
-0.00587850195376948,-0.00487367753537959,-0.00491428473066522,-0.00485462954495305
0.00290592678100738,0.000931695431323307,0.00159746610697082,-0.00207392977799493
-0.000929431774451909,0.00955684402566739,0.0095090563160945,-0.000634677924765345
-0.00580732988712709,0.0198538845281609,0.0126425284823402,-0.0011548544798084
-0.00306506968808865,0.0227243801283363,0.0105165460906947,-0.00316668922381382
0.00064550137584422,0.0224095755057481,0.00863197263572215,-0.00527558608652734
-0.00171022669305167,0.0306191441523415,0.0152131490719247,-0.00591831195854015
-0.00510093177525936,0.043323412217161,0.019630177770185,-0.00471012389238299
-0.00590552119572959,0.046862163234162,0.0113317668675096,-0.00329221827188479
-0.0105349125431547,0.0410298206681038,-0.000962591333444295,-0.00451867093572453
-0.0222087750645356,0.0312337211329034,-0.00896403457983058,-0.00928557371638612
-0.0302130257878818,0.0158923869519634,-0.0105252984235863,-0.0148091102151828
-0.0152717406723733,-0.00221201883892474,-0.00776445383472935,-0.0171479126314694
0.0156208989780039,-0.00640245552587109,0.000631321313716838,-0.0140484916918039
0.0307634720264341,0.00694996521412323,0.0132994340931809,-0.00613739211152968
0.0171675540698299,0.0115460411998979,0.0175158709841982,0.00222274872841577
-0.0100043537560862,-0.0137858277490871,0.0105739439799164,0.00603759725544073
-0.0257166131183071,-0.0486368067163107,0.00575228826500793,0.00453535712737675
-0.0253157550647426,-0.0514047204063422,0.00678148806581166,0.000446722128660103
-0.0189169895930294,-0.0337812350763944,0.00178794566220679,-0.00296361739514432
-0.00974767435978656,-0.023837467769944,-0.00764522173785982,-0.00380107545274531
-0.00227091601520805,-0.0111314588659413,-0.00871107154715477,-0.00345273456942163
-0.00524948021658283,-0.00344922483383238,-0.00100774604914143,-0.00474580220469253
-0.015070484427954,-0.0150990436318923,0.00609979613432102,-0.00748376194490094
-0.0147110298487668,-0.0265327528427943,0.00623795878773339,-0.00826802068037557
0.00143588481807721,-0.0203404302616151,0.00389004528599342,-0.00462621411955631
0.0164657849748415,-0.0148836765715352,0.0030573743774924,0.00207468116676383
0.0153309522693632,-0.0164079101898156,0.00294159859322904,0.00821974900008129
0.00490161070799933,-0.00576687352514324,0.00488218198930415,0.0113988431744895
-0.0129039043293528,0.00754142952129339,0.0102998549460462,0.0118523979204113
-0.0302278656544364,0.00169494877045848,0.00684713398598441,0.0105154377860463
-0.0187494325987731,-0.00987091242397889,-0.0061370168752125,0.00746203980061061
0.0109919162638652,-0.00713840654796617,-0.00760669531269325,0.00410104701328484
0.0240755356014694,-0.000975747151405873,-0.0040523435593804,0.00294688476387828
0.0210614873472427,-0.0035207207675057,-0.00862503344411538,0.00396333029522841
0.0160692708349647,-0.00621641209311576,-0.0115223788882035,0.00408721453510107
0.00958139957521329,-0.000729396058616463,-0.0079059043532467,0.000381369278372864
0.0051407400274789,0.00496586466626247,-0.00246560799967124,-0.00630465694944935
0.00416722550709053,0.00574185489737445,0.00385005507118842,-0.0120135942406516
-0.00797952572843542,0.00350590439884887,0.0152990817693113,-0.0140345732581125
-0.0402523704857798,-0.00794480107093577,0.0252051784958083,-0.0123309322745838
-0.0759792457219894,-0.0253429490273203,0.0179963443235174,-0.00826682573682726
-0.0741212315375246,-0.0348199579437104,-0.00538396257549296,-0.00301455993259086
-0.0185717366947175,-0.0318064909557802,-0.0220883174854676,0.00220363075464546
0.0502690165474143,-0.0188077132320761,-0.0192596694795364,0.00573703370070426
0.0858113444051911,-0.00797363386818537,-0.0103530301968869,0.00766823697199917
0.0794436982519505,-0.0080194975380656,-0.00704030919020637,0.00959144923323863
0.0385185409020741,-0.00388413982016147,-0.00629829710329929,0.0112934351019533
-0.0208568973251754,0.0115249532823967,0.00342276361123537,0.01005458234536
-0.0514054593027244,0.0241534682231191,0.0214639130230787,0.00445755583733638
-0.0297560196442068,0.0222596985703622,0.0237762195252648,-0.00263089837035085
0.00431810362501528,0.0116452334712003,-0.00117459535764976,-0.00675866443418645
0.00959330391854558,0.0173330143047824,-0.0203421450202721,-0.00590778327129967
-0.0144059557391473,0.0271689454774395,-0.000609161267562466,-0.00106123116600071
-0.0463056968688107,-0.000997488344755548,0.034398662246992,0.00495099837990221
-0.0637774055540781,-0.0476430924634249,0.036046089496742,0.0091702776751409
-0.061352185768292,-0.0666122006483339,-0.00304094034881854,0.0100688385081361
-0.0472882674117893,-0.0584279907670537,-0.040888410846143,0.00838310983531858
-0.0198498308754484,-0.0420610615402727,-0.0435642096242447,0.0067943342090274
0.0188303473710746,-0.0223466376274553,-0.0178749554143471,0.00744368436429847
0.0543638051578297,0.0129207756059188,0.0177215892522812,0.00962770303984145
0.0667448293259543,0.05661762384007,0.0454949291658793,0.0108873251598986
0.0498183975394303,0.0839039186507371,0.0533428178339492,0.00984510786519074
0.0267605914703363,0.0985848369218221,0.0440593292469275,0.00641229892434939
0.0131713497345765,0.107232191605167,0.0239343573683218,0.0003129296387583
0.00790804713466276,0.0977026659573283,0.00232608057634385,-0.00797705113059652
0.00601122141959908,0.0745918678207335,-0.00753824177348048,-0.0157548969206865
-0.000254794199059648,0.0641056862153299,-0.000902441932126798,-0.0197732806154648
-0.0107801914728757,0.0628086005243365,0.0105270195434377,-0.0184937868179564
-0.0174221745233394,0.038582053507897,0.0126256797532454,-0.0132922884608483
-0.0182416782082971,-0.00814347191176223,0.00762876423392192,-0.00766953236397613
-0.0207508959694398,-0.0507705837461481,0.00341722236196245,-0.00367293649418107
-0.0232017968014236,-0.0669424390138973,-0.000590247960577704,-0.000701823072708593
-0.0125107096320267,-0.0444242679978416,-0.00903363228051157,0.00260138394725766
0.00592148065393754,0.00205827849324719,-0.0171061990937089,0.0063380598494618
0.0109225428971948,0.0412057756403003,-0.0135420565325262,0.00915395767269667
0.00545150762655707,0.0357021427598114,-0.00454817208895612,0.0102803894239933
0.00560485379809752,-0.0278290070164414,-0.00187171095474209,0.0101615815498397
0.00708801035654415,-0.0766492018548084,-0.00276443030382722,0.00928420084481098
0.00240579440159473,-0.0395072406274655,-0.0045043970033659,0.00762990728867696
-0.00265140295088784,0.0338097753632567,-0.00915678375664132,0.00467383227863152
-0.000473033837356012,0.0672303054966928,-0.00956070972552341,0.000212096417100609
0.00925886345499874,0.0512160885938024,-0.000787982409568233,-0.00387869135872397
0.0227063358017003,0.0199395485903556,0.0105828049330037,-0.00502150631674895
0.0386912204383251,0.00251960177456259,0.0162451471434686,-0.00299203589350491
0.0517986072225567,-0.00907353816881632,0.0155016941582189,0.000161643208134864
0.046140704193309,-0.0140667397356418,0.0205191474163514,0.00207529751938303
0.0100860110372422,0.00320563970051778,0.0259815545943655,0.00206794126133396
-0.0377179670954125,0.0291911050380966,0.0166817321932356,0.00116743866654082
-0.0535439006498231,0.0471812262896515,0.00564281577340039,0.000341408210491358
-0.0209287817264244,0.0632305988690381,0.00852219688070844,-0.000369993607843541
0.0122561632313886,0.0745691733211833,0.0098339997470988,-0.0011203057850923
0.0010617870076221,0.055051784644682,-0.00304425863168547,-0.00199292298906129
-0.0310174114900218,0.0124723078232751,-0.0114164171451841,-0.00319433417404048
-0.0319066977117639,-0.00389429894613844,-0.00928580158361807,-0.0044997835092338
0.0174873165931588,0.00924809455780452,-0.0125409361162756,-0.00554000983174434
0.0722452206625343,0.0193178229472957,-0.0184838565382323,-0.00632705051554723
0.0719456584370521,0.024995656626767,-0.0136066438957201,-0.00641567562761069
0.0139423740360238,0.0425486044965884,-0.000810073778121395,-0.00472759925355433
-0.0542475765063151,0.0599597038966832,0.00807213405294275,-0.00159024044013983
-0.0772868344278411,0.0599744749660062,0.00962245546399318,0.00104836596723711
-0.04362377519976,0.0645833040719261,0.01131318732588,0.00260350145343369
-0.00614699706911596,0.0830403385738671,0.0174592957800333,0.00387145036774535
-0.0053390050099299,0.0917145925231924,0.0257890575842226,0.00436587503799846
-0.022241122152309,0.0761328529055333,0.025721902180721,0.00338787106204416
-0.0193472526756858,0.0321307420977766,0.00551467200800675,0.00145966124343124
0.0108577828854436,-0.0374350116758705,-0.0172333479714892,-0.000849435433545502
0.0297873006438157,-0.0909530590764832,-0.0181176513427746,-0.00260193311178897
0.0115324367646919,-0.068814086254217,-0.00123009167637734,-0.00238990443341952
-0.0148570913396271,0.0153153467054456,0.0196073110717406,-0.000273388808925561
-0.0234916853070518,0.0899875510774901,0.0291198992476247,0.00112704489282743
-0.0262717416309925,0.0955342644330053,0.00944277324610253,-0.00196411209066044
-0.024778335341513,0.0106057175307226,-0.0334588357733294,-0.0108574740213753
0.00644968095056345,-0.0951220813557048,-0.060938757241407,-0.0209668934008813
0.052206472636764,-0.127401926139197,-0.0492577121653942,-0.024457399634337
0.063454055423674,-0.0942090986684637,-0.0160530773499569,-0.0184227515297158
