-0.00665503022127977,0.00773017378134839,0.0434634383919561,-0.00474021012202777
-0.0122096479941701,-0.00619177913563675,0.0173020161219497,-0.0124978818078036
-0.0209613291914157,-0.0183128305407309,0.0121599486654443,-0.0188149500952531
-0.0224898269942423,-0.0147478928251502,0.0227511082523439,-0.0219687149623125
-0.00656386509464564,-0.0101231868177208,0.014574417679158,-0.0200323793722194
0.0144122621989084,-0.00494590048185289,-0.00804387551713191,-0.0157352106732997
0.0191822834764451,0.0123936406332337,-0.0124115818149596,-0.0135659091949736
0.00972513773097591,0.0326962421668294,0.00587421504671813,-0.0134709921171236
0.00583805260601333,0.0460956442991916,0.0251132406924374,-0.0108998801946065
0.00819598502887338,0.0479913851515997,0.0305545890096647,-0.00374738926808223
0.00652418515217937,0.0430975800849378,0.0271609136454639,0.00407996003626393
0.00446786548201717,0.0370520531526713,0.0214042175714587,0.00875156603900836
0.00593726753692369,0.0304655925031487,0.012283449422114,0.0112893511830872
0.00512210301426919,0.0294333977141079,0.000346034265312448,0.0138380075269695
0.00415504741947901,0.0315935311881008,-0.00961287530924089,0.0152867806248502
0.00719101086847899,0.0209547536486742,-0.0112581982670267,0.0127126942705413
0.00223309488503615,-0.00857844296012195,-0.00190461427499268,0.00534329459449144
-0.0121133547652283,-0.0445518612648959,0.0116470829911945,-0.00416518848744771
-0.0140312611281495,-0.0750292467712679,0.0147445891604078,-0.0119277581203722
-0.0036284635933796,-0.0965451281540009,0.00535629413876263,-0.0157093298953202
0.00553231123447879,-0.111438286044964,-0.00795108237964522,-0.0158535637211704
0.0264433458443555,-0.124500481206332,-0.0246977651737681,-0.0146372595861801
0.0590164734360558,-0.139796740936819,-0.0401249060259888,-0.0149127850273101
0.0787466887713335,-0.150096092277831,-0.0398192418407783,-0.0184836263401524
0.0741396822382666,-0.129935560115705,-0.0201759600113248,-0.0244877117528647
0.055148396064741,-0.0745514926150518,0.00467572429210922,-0.0298628686081878
0.0452248266136184,-0.00747538705062481,0.0241945673689871,-0.0313400701602412
0.0537483764878968,0.0370783372979581,0.0358223005191765,-0.0277728033807859
0.0677720805127617,0.0292814033242085,0.0292066835941953,-0.0216299373939983
0.0729674375317395,-0.000723712558351935,0.00457155966497123,-0.0163468974979854
0.0556214612805618,-0.00106776758007283,-0.0116035996374,-0.0126357155933335
0.00326198040389249,0.0241749488498212,-8.24627062230299e-05,-0.00862460222902755
-0.0728696954028437,0.0311340534228676,0.0240628164773108,-0.00302332143286924
-0.142714071184579,-0.00499222086403547,0.0359552330539077,0.00319743766231126
-0.171477202231452,-0.0576358660382855,0.0313035069526165,0.00781699305257176
-0.134877610423065,-0.100379795650252,0.0249358831478205,0.00910924056595487
-0.0639712587112795,-0.123461220109666,0.0251132006447514,0.00769915782832767
-0.0187131225896888,-0.0895752392139662,0.0205554689449302,0.00581871741168099
-0.0112010123845512,0.0124540236105808,0.0108156096915716,0.00456487277193428
-0.00232180708575676,0.116166095626817,0.00828264391953315,0.00414025125589233
0.0300523991509395,0.149709762315258,0.00736231379019719,0.00507930271172098
0.0588513364868055,0.102842508495565,-0.00147253088050191,0.00711962546664277
0.0643408438002688,0.0211129788823571,-0.0115080488368704,0.00882466797177655
0.0563966096581738,-0.0428525223467964,-0.0134891993258271,0.00936040864341865
0.0401057362896356,-0.0725020669230471,-0.00809115978863755,0.00897652306800298
0.0198420412980696,-0.0727308463059619,0.00147830980594668,0.00838953578249232
0.00414032329619519,-0.0530080385169403,0.0105163128238301,0.00852043843697048
-0.0074845832513872,-0.0320084078597746,0.0128487129854374,0.00946789835850671
-0.0192012408640853,-0.0206360328265253,0.0135239557768097,0.0107588237538271
-0.0286455950326075,-0.0105967725023819,0.019280455381913,0.0125999684155862
-0.0293167579370423,0.00740674007549648,0.0255457340120306,0.0152567313461173
-0.0227450423729025,0.0281310921331066,0.027092015267752,0.0180280296305112
-0.0192151046395489,0.0408151232240991,0.0210734879624492,0.0196609516958043
-0.0244844250124423,0.046777567559713,0.00930179894297015,0.0191105468734099
-0.0328778492755052,0.0556313247605012,0.00195501303504152,0.0162804189835874
-0.0372133498397083,0.067839686696035,0.00521914050461023,0.0124834903807584
-0.0367802966664809,0.077114635377438,0.013472658568608,0.00949407752293369
-0.0363687474356224,0.0826692669500851,0.0178227171350754,0.0080478626815985
-0.0368894140101414,0.0869341345453107,0.017722361175999,0.00756200271856032
-0.0349240433145542,0.0886859854807386,0.0159278144078946,0.00742186123167221
-0.0321885574536483,0.0881487477325823,0.0132572446927383,0.0074794943016301
-0.0296996645204735,0.0882471883964612,0.0106786705360242,0.00763376493077851
-0.0269571168462083,0.086742497615776,0.00778936521165609,0.00782326755236652
-0.0252593054985299,0.0815847707258545,0.00618094270978482,0.00799892786549921
-0.0235452831042981,0.0762511757111139,0.0071521717445473,0.00820556537456045
-0.0210459886018326,0.0716563023514406,0.00638497562771099,0.00824328959590666
-0.0183071007585056,0.067616377296299,0.00152952269810529,0.00769468006110919
-0.0142846307204619,0.0649983285430175,-0.00482147441034425,0.00650849947535447
-0.00855198756180726,0.0599570063582145,-0.0159557825109374,0.00477646956340762
-0.00132543075923288,0.0457734869722821,-0.0348238792287333,0.00253168944853042
0.00411392899504294,0.0194497272214952,-0.0493583021180863,0.00019382796295743
0.000972995444261264,-0.00304443052166288,-0.0398181964110544,-0.00130272824107443
-0.00364201638436551,-0.00223233783627762,-0.00890773132099101,-0.00099821501183398
0.00510234432144819,0.0131858798618113,0.0169201832563596,0.000826590894900338
0.0148420737498218,0.0319269780748246,0.0305259749962852,0.00251946777069988
0.00825232093897898,0.0470159465447014,0.0351409348478899,0.00281743737832003
-0.000910383409036576,0.0464386341267176,0.0198503263180755,0.000678375531934932
-0.00208993169160395,0.0383693639015732,-0.00744236828344799,-0.00436569204101738
-0.00445544570681447,0.0322227881177344,-0.024449956534659,-0.0101622341238802
-0.00715587294613017,0.0202818403526298,-0.0303219413679772,-0.0133520195513943
-0.00616443802798865,0.00310901082782232,-0.0277844888067336,-0.0124860719337068
-0.00639661252349436,-0.00635225392097688,-0.0177721669010549,-0.00868790362572029
-0.00777305158125053,-0.00512085529797253,-0.0143614678899102,-0.00471702601472336
-0.00766159223912787,-0.00110663169614751,-0.0199354240085322,-0.00312427689239757
-0.00466848523647504,0.00162709654410494,-0.0241944112992127,-0.00382599946630072
0.00487890301834729,0.00236293306896349,-0.0232824919007012,-0.00538693200643405
0.0140237423083455,0.00268497095598165,-0.017596035417511,-0.00780590090653624
0.0127010494474496,0.0094321570920502,-0.00979222815000121,-0.011812700014809
0.0132844446754419,0.0316942361290854,-0.000738860283520757,-0.016427810346153
0.0254527168664151,0.0573326864444779,0.00588430194584856,-0.0185116324058437
0.0304411399562234,0.0555050135454904,0.00687296676766162,-0.0164757627738037
0.0123148235462755,0.0241709289122045,0.00728971106354535,-0.0124444017980594
-0.0115271176428491,-0.00815377303985426,0.0115476218492278,-0.00933134722695013
-0.0138412609695136,-0.0221414239954608,0.0164184982920628,-0.00790538339743265
0.00103812963144925,-0.0193611467996323,0.014743559212028,-0.00704527098461934
0.0106945156039732,-0.0160512840049277,0.0112437239892698,-0.00551982953484297
0.0113144507469293,-0.0290193814509647,0.0138932734572051,-0.00301052593132723
0.0091985035856409,-0.055324079879516,0.0171604310176973,-3.71670865378104e-05
0.00747509264675271,-0.0711641807183105,0.0136724782096821,0.00251930081852562
0.00753674594702773,-0.0581044749459482,0.00403472494720594,0.00332813091250704
0.00442486134682305,-0.0185947848018795,-0.000541471564893058,0.00103518093271046
-0.00227277441628283,0.024416042922471,0.00515652015010234,-0.00423625966236846
-0.00513944432545226,0.0409268865507367,0.00868945489912759,-0.0107078697563333
-0.003975061204842,0.0342606008540609,0.00546458021662122,-0.0163086312987213
-0.0026679539722512,0.0293731560680023,0.00257314684461841,-0.019132270111326
0.000412139929019721,0.0314816624471914,0.00174519500757634,-0.0178806864129048
0.00560377449401066,0.0290344530979043,0.00558135983954003,-0.0128340765670693
0.0104801325364414,0.00952443809327336,0.0159883161979406,-0.00557690941207683
0.0147710062461998,-0.0127635700266796,0.0279800888875956,0.00207442821415908
0.0148073594899022,-0.0161711224245231,0.0393660081152152,0.00869592377380245
0.00651554626534985,-0.0123315900470066,0.0486012265667579,0.0132159466987055
-0.00248368474624681,-0.016671664196772,0.0493662851164218,0.0147572599834632
-0.000170102816956461,-0.0259791274727338,0.0368894748286859,0.0130870538227326
0.00895006873316693,-0.0277332482523303,0.0197291826694919,0.00859891366083696
0.00964659897945381,-0.0182726328661575,0.0114928673096187,0.00235890851176827
0.00312164843805281,-0.00992736947327629,0.00724091929930067,-0.00354280643818185
-0.000828446640354689,-0.0104082702188796,-0.00223594938075096,-0.00750999232464982
-0.00092455947671373,-0.0122439411836557,-0.0092309890717868,-0.00909864626880986
0.00180913898481568,-0.00757173034572222,-0.00892961602522249,-0.00834637890352227
0.00376217406772477,0.00081955478780883,-0.00785320418304917,-0.00588597344522143
0.00171306183008758,0.00598510267973893,-0.00625883755821331,-0.00250942195071625
-0.00105022697633768,0.00309493906823848,-0.00132089856326434,0.00131080121717157
-0.00100706717435404,-0.00312226062183137,0.0040120379604959,0.00490790533872412
0.00284866177474802,-0.00864666337279941,0.00563034854607646,0.00778940892200101
0.00900654582787342,-0.0178866730110477,0.00292729158464448,0.00936075065558212
0.0131826595751835,-0.029000575428987,-3.59803783452203e-05,0.00773531685399939
0.0127137179319307,-0.0349923365894188,-0.00215029326294333,0.00203613114163152
0.0101760473486683,-0.0333306058667397,-0.00532460806064273,-0.0050321529810244
0.00945407539241106,-0.0269147036681587,-0.00666588025718689,-0.00937812447082072
0.00853133846856118,-0.022223130143945,-0.00524782107393775,-0.00926718681343469
0.00664548813248981,-0.0204513688718512,-0.00451513238638353,-0.00604945346673683
0.00659079143162147,-0.0173905371907211,-0.00528121156850332,-0.00196869078520099
0.00749206837568921,-0.0132839387163904,-0.00593846049840619,0.00183166658940443
0.00818035031671912,-0.0105380241669547,-0.00689027322503401,0.00525800445715575
0.00789202399867073,-0.00821473511496027,-0.00804580869188835,0.00820610479819
0.00474460133262557,-0.00481727456465929,-0.00821220734720766,0.0101306417855334
0.000317909772927685,-0.000987094352659617,-0.00958645993900716,0.0105966009372401
-0.00338083260738247,0.00140031974547949,-0.0134586948036699,0.00941362884503395
-0.00655192479723093,0.00275972935669952,-0.0177389964246489,0.0068358332927013
-0.00589744664022025,0.00696212539086048,-0.02004985769437,0.00411087034817529
0.00114345530498375,0.0128945534237417,-0.0196224051453107,0.0026933225135864
0.00716729862853685,0.015024325475987,-0.0186430058417861,0.00270569907421436
0.00464604152417367,0.0123738457408551,-0.0192254490338896,0.00302047984175589
-0.00128742645355919,0.00747962265111496,-0.0203522367730737,0.00279497026291636
-0.00225485761613069,0.00372650861064251,-0.0203037229434553,0.00202497829011414
0.00095009989813691,0.000652064846426191,-0.0195982940326265,0.00126058418217586
0.00253151455438618,-0.0038343089158717,-0.0179971102840015,0.000836189205533909
0.00104730373287043,-0.0076451409980008,-0.0162733127642182,0.000766441956503897
0.00012544682074566,-0.00949663063940733,-0.0159172280657287,0.00116208686166817
0.00197683780810641,-0.0101353179277814,-0.0152079969573619,0.00174770438465696
0.0031181527931537,-0.0126547817189307,-0.015343225719437,0.00211144557199894
0.00169900670279322,-0.0180148856676208,-0.0167576386737731,0.00213741835620267
0.000221759212665193,-0.0220037813182188,-0.016405421739375,0.00200751278036705
-0.00111565934684404,-0.0208193645868654,-0.0129882087294737,0.00224549998478909
-0.00455525276186654,-0.0156012895453643,-0.00756282275099063,0.00324146261192301
-0.00573436058592675,-0.0129221960781573,-0.00423158462014504,0.00460281764837342
-0.00272931755843352,-0.0158684763885122,-0.00570503970903534,0.00560397851052343
-0.00729893853194742,-0.0189775605545255,-0.00769085644000561,0.00650661897539782
-0.0209974210919509,-0.0178444642114683,-0.00647855252546742,0.00907962682626902
-0.0248728876020428,-0.00893958474336848,-0.00485636334900421,0.0151484903692668
-0.0126678522836006,0.00833898380941778,-0.00370169789804864,0.0246680437801618
0.000619509945426457,0.0224949260468258,-0.00257473903555839,0.0355091250447115
0.0100328955947233,0.0236548686020186,-0.00553983023482011,0.0425867835895086
0.0110975103293165,0.0135724402533987,-0.0117657801306499,0.0398410334699568
-0.00346539003968639,0.00264891327591901,-0.014892402082548,0.0265860029940451
-0.0165264838408387,0.00234903322234375,-0.0135597400627712,0.0082234976715376
-0.0134501070063376,0.00927221007421893,-0.0105832702140546,-0.00939115619797009
-0.0022841510922944,0.0105614153068006,-0.00207653564913341,-0.0233660017183372
0.00697375344953701,0.00278696679107963,0.0129255011076746,-0.0329943545877246
0.0120076622716463,-0.010937601765794,0.0204801129374023,-0.0380774719469868
0.0173750546785474,-0.0235567040491803,0.0154449696009791,-0.0372341308299123
0.0197979126840733,-0.0266573666758953,0.00674937697905821,-0.0280543393595257
0.0145377737382061,-0.0205295468730157,0.00130544823230703,-0.0116993992460316
0.0056613004202104,-0.0105741237639783,0.00570012241421101,0.0038629788281823
-0.00639458083024156,-0.00137467150614245,0.0199125273038278,0.00979760234489693
-0.0139945961700313,0.00454862873750005,0.0279470293817661,0.00500802063346129
-0.00704090219480512,0.00242392110782048,0.0211924631662993,-0.00360517845004061
0.00174756836222719,-0.000865551437389716,0.0149885697958188,-0.00838009402807043
-0.00284200024767357,0.0148220246193831,0.0230411872057297,-0.00844406932859799
-0.0130670528539943,0.0328580554768632,0.0331406981524035,-0.0093030243031273
-0.0149642532121869,0.0279002041190113,0.0311669206121373,-0.0141891561152953
-0.0081265659341502,0.0163979382688237,0.021953557683852,-0.018898211273155
-0.00262871798534982,0.0153774028733688,0.0120979232962551,-0.0171992318423186
-0.00150572261801085,0.0162615875928643,0.00587018894650987,-0.00843817722840792
0.00107159530900118,0.0104044617658246,0.00905853143771783,0.00247249482587598
0.00561890545171518,0.00514765533456548,0.0140410061906529,0.0105227334575654
0.00803380122032843,0.0119400651548545,0.0104534897564265,0.0139088779073929
0.00615417737876203,0.0301123651315798,0.00687456157963318,0.012148553094132
0.00397811579109833,0.0392590895079351,0.00590408794522821,0.00438151234574662
0.00398510136133813,0.0276746859123682,-0.00062790664126593,-0.00789866091981432
-0.000694036252714206,0.0179835623746365,-0.0059700283386449,-0.0196956925064641
-0.00554971383789012,0.0214328914176791,-0.0110841058205028,-0.0270171296429869
0.00267172716738724,0.014443558019719,-0.0273078391186189,-0.0305924193289403
0.0194182142650453,-0.00209672565888457,-0.0410062957347037,-0.0331841522727142
0.0251041697435362,-0.00721461626271281,-0.0364769701444175,-0.0349657395544298
0.0116970170297878,-0.0118175208434707,-0.0226453789579191,-0.0341032414636721
-0.00236352861236345,-0.0318737385385817,-0.0120389808315784,-0.0301934112983026
0.00254585637792484,-0.0582300271128135,-0.00332470248924305,-0.0249750944468712
0.0195193368573256,-0.077605294734924,0.00195005478647238,-0.0201998129993759
0.0308279225709041,-0.0835010027640842,-0.00781255845761737,-0.0165547890261759
0.0295606192103056,-0.0738269802967309,-0.0299615105691961,-0.014302694179841
0.0211522439036061,-0.0491175262687738,-0.0443368191049223,-0.0132905261196924
0.0160223664918615,-0.0130711260589843,-0.0347764686008931,-0.0122042989694689
0.0124860245406773,0.0249090364198274,-0.00549991199200099,-0.00877603511009758
-0.00149390532696834,0.0562149576479271,0.0223899282107829,-0.00254262839874876
-0.0217525333125937,0.0821500922022553,0.0328480133984514,0.00472197663425315
-0.0310741596862746,0.10075566224308,0.0205406986716314,0.0113899307222907
-0.0268739933413528,0.0922946589666074,-0.00432054420858331,0.0161699249439438
-0.0236066187427082,0.0520908417348704,-0.0187573142898213,0.0183635932940576
-0.0269185875787569,0.00742390925086384,-0.0121535600682103,0.0186276132096359
-0.0243330796299047,-0.0194902626673464,0.00268791500710053,0.0183582814575861
-0.0104832072764632,-0.0300574354457525,0.0049513138291659,0.0181811236834141
0.0073058552325476,-0.0373312735615705,-0.00680004511046781,0.0174001009559938
0.0226688378178447,-0.047680003528335,-0.0207980788842677,0.0156800954212402
0.031065513131016,-0.0565183371852045,-0.03270594899777,0.0135920312410143
0.0301294496104698,-0.060630158933086,-0.0402232647314214,0.0117158228722931
0.0224807045823418,-0.0551692497233057,-0.0406603814821306,0.0105319051819498
0.0111514080088106,-0.0415391899918599,-0.0372844632214363,0.0104828595328556
-0.000485809294968508,-0.0296730500313396,-0.0323566169519088,0.0116716322013242
-0.0106974325900993,-0.0214231222451651,-0.0257048651640962,0.0137500572169186
-0.0193755978925735,-0.0125396511544693,-0.0189221117451295,0.0160520177152512
-0.0207996807269787,-0.00309118064644363,-0.0136119864695507,0.0177625384932728
-0.0159927269828299,0.00352516803826433,-0.00875922854782821,0.0186743911698592
-0.0115519241693112,0.00791689722706769,-0.00378819854240312,0.0192329904702735
-0.00714724282187479,0.0107861662547094,0.000569009615331554,0.0197284473950907
-0.0030564647376248,0.0103504772991609,0.00540176815187498,0.0199679321355243
0.000742549069859589,0.00814129686519651,0.0096300750616248,0.0195581577310344
0.00709602648404271,0.00724593535746292,0.0121627009860483,0.0187377105282268
0.013198192126873,0.00742750154657282,0.0145836425795767,0.0180736684159152
0.0115817005403314,0.00571703204294617,0.0159721056649015,0.0176140649477647
0.00259499973109102,0.00233433817476894,0.0142491579942574,0.0169269191110789
-0.00511284905836532,-9.44252505219947e-05,0.0116072850799237,0.0154816421070282
-0.00718303798014068,-0.00238692939052842,0.0116689777137954,0.0135765787869991
-0.00717274188003412,-0.0052405047322498,0.0121968839792169,0.011903855240319
-0.00749354239478042,-0.00798774400751136,0.0112694701094005,0.0105073782274911
-0.00884658658240807,-0.0104018408720052,0.0122959987683285,0.00935178114037434
-0.0106009558058314,-0.0115283548046937,0.0134685075652527,0.00842282341904638
-0.00729133608769728,-0.00879530964186866,0.011201569740551,0.00764662414773374
0.0012500406012848,-0.00272775348389837,0.00823533156637276,0.0070503617808361
0.00513907103826932,0.00250037038849333,0.00746712125052799,0.00635034721495928
-0.00145768736613688,0.00700496927008252,0.00852941170687321,0.00514265569982014
-0.0105999749813184,0.00991511785879507,0.00863561493559744,0.00364690695232909
-0.0149322884398696,0.00712948627321461,0.00684686903485195,0.00241396088477447
-0.0150497251324094,0.000663142224544392,0.00699347164618454,0.00124330692903038
-0.0106186037541674,-0.00409937891661775,0.00867501991275248,-0.00033313266753879
-0.000959966732290244,-0.00409940424266481,0.00863614968291141,-0.00209326684543409
0.00557882424334107,-0.00235563952303477,0.00863531622816035,-0.00363041367018513
0.00444317016848361,-0.00393827004841276,0.010151932392061,-0.00511654727953254
0.00248621827419132,-0.00622093967524792,0.010701319112214,-0.006894819015901
0.00141414455030228,-1.94668532485208e-05,0.00968419355516627,-0.00875283896000319
-0.000658934706094528,0.014422496591289,0.0101066335894576,-0.0102339287747185
-0.00635101976142726,0.0189006309944888,0.010364678798554,-0.0112091948480661
-0.0140144302553341,0.00592334801857071,0.00564136160517527,-0.0121144332570297
-0.0153959708602793,-0.00805442895856624,-0.00181112425956498,-0.0134373744851623
-0.010774633116379,-0.00965846730614942,-0.00642035585840962,-0.0147575111409804
-0.00191507057919517,-0.00323522566945585,-0.00702163021869538,-0.0150518191546746
0.0104446312410695,0.00186974103954525,-0.00511289807950327,-0.0140248983067429
0.0171979640552568,0.00558922260252549,-0.00423775447104675,-0.0124527547554289
0.0168870718884831,0.00721265212590044,-0.0065288791240246,-0.0115451380432232
0.0132301243213685,0.00154810275000614,-0.0106704105687551,-0.0118074996504025
0.0032906220769362,-0.00775276387686504,-0.0126795023147761,-0.0127449470922003
-0.00828120835555625,-0.0152301290568037,-0.00994078468468229,-0.0136240024433925
-0.0118412539717018,-0.0229787633291417,-0.00979561009105198,-0.0136686944370761
-0.0105223111202532,-0.0277887543702374,-0.0158692329224903,-0.0127051491872956
-0.00861587383970019,-0.0206313137055084,-0.0195443945229381,-0.0110341631507663
-0.00738678633506398,-0.00829586363343275,-0.0150466052265277,-0.00883031745801377
-0.0124373404962373,0.00164609980890335,-0.000462154355741151,-0.00673810824632336
-0.0163711998054825,0.0175030195360641,0.0184374879867789,-0.005225059638208
-0.0066636739863197,0.037484462556506,0.0248380136595642,-0.0038552672379468
0.00915460985594151,0.0456821884706879,0.0154749556321159,-0.00260314242411635
0.0169250474573133,0.0383507666829597,0.00220641134811057,-0.00232613483933763
0.0147740956566979,0.0244939225063884,-0.00100089362846069,-0.0031079679513038
0.0100839902907705,0.0107452312331745,0.0229357172127423,-0.00331251945948939
0.00848374727481819,0.00135239668489378,0.0518909299123909,-0.00127891094019732
0.0107613777008623,0.000453466039970565,0.0458510458422669,0.0018660292497701
0.0119237834905983,0.00962380429087552,0.0199762598601837,0.00332586006924228
0.00651111109258876,0.0165214593883033,-0.0012291860267224,0.00234979467092581
0.00340372079621256,0.00543705123967267,-0.0204496102005217,0.000355148515576277
0.00243854419178841,-0.0133875455296952,-0.0304051613826152,-0.0010932125950259
-0.00547995267008461,-0.0172074675437064,-0.0215590222392391,-0.00153997922473858
-0.00952018415342892,-0.00511818575495094,-0.00545366265313987,-0.00125419950374223
-0.00355625320890743,0.00787713035021977,0.00380808811634941,0.000416144131172288
0.00622274690246954,0.0135949668390952,-0.000285949823780596,0.00445100771823213
0.0106407312790438,0.0290164240445022,-0.019006248457411,0.00922429664909479
0.00645885912933632,0.0576858419586809,-0.0388124754509786,0.0109369551470805
0.0100466004782118,0.062126962658975,-0.0398149874229778,0.00824808645199503
0.0292226754089097,0.0305179036893672,-0.0218461796878568,0.00358614932162744
0.0489576432968299,-0.00361424892111185,0.0015849158625697,5.8419335562292e-05
0.0537296890293513,-0.0267411906444493,0.0165544505227955,-0.0004434810817514
0.0553293731620892,-0.064400084855763,0.0130394322954283,0.00239370114504838
0.0646354815638012,-0.10939253033835,0.0111668846112373,0.00730410428801274
0.0616498195950098,-0.111578201142057,0.0296301390079705,0.0121405542111625
0.0294309685820343,-0.067783881097864,0.0567726136248259,0.0152243766363268
-0.0161814874437191,-0.042455402510495,0.082911652734647,0.0158542536066343
-0.0317671442812102,-0.069551155041164,0.0908721639278547,0.0135259726421888
-0.00722396804178905,-0.107644298539021,0.0627250985726324,0.00852934644074685
0.0185814721229174,-0.117982584856297,0.0172700958372956,0.00248550591026411
0.0221808706384416,-0.101397616877294,-0.0106995378719752,-0.00305930349328671
0.00920876698784149,-0.0535151608032843,-0.0151352232589235,-0.00699060279454301
-0.0147509437515652,0.0262011727534552,-0.0131174018786667,-0.00835342749331776
-0.04199543187144,0.0897035015105475,-0.0146499603190764,-0.00748901990276904
-0.0569629659752851,0.105434632990446,-0.0145787209499645,-0.00609230679209835
-0.0494113697072742,0.107438574984263,-0.00681790810748781,-0.00489249862360029
-0.027517044324141,0.103698702225413,0.000884587895376219,-0.00343110784113205
-0.00772022374208393,0.0703757773751172,0.00266424980966781,-0.00192643048258801
0.00428344051563039,0.0211116247915031,0.00380097056426442,-0.00106112867453584
0.00878063908461145,-0.0129633354158691,0.0100912226675579,-0.000470330088080392
0.00917067142169155,-0.0227062552546169,0.0164423028203609,0.00106706970793813
0.0153020914388162,-0.0288358067901394,0.0181431339176872,0.00351768011316112
0.0234398326525384,-0.0437793131220178,0.0194743653212595,0.00547745588917083
0.0197367860647111,-0.0557813909193696,0.0159989100019091,0.00547670269977126
0.0103346395993594,-0.0604923294532203,0.00320169725250457,0.0024564751546077
0.00749348150526962,-0.0597531433980858,-0.0103144895225133,-0.00293168579698505
0.00981589690203209,-0.0520496841775036,-0.015032544655257,-0.0078789705190156
0.00959185645110255,-0.0411563699928679,-0.0132799090927789,-0.00990782244654786
0.00272719329422678,-0.0340669196690761,-0.0149608548893972,-0.00899718908123699
-0.00600697393925827,-0.0283881400646279,-0.0196038980314761,-0.00672417611152641
-0.0125435963315845,-0.0185973870835253,-0.0177281993262702,-0.00471410131873523
-0.0199192808376339,-0.00313783295352263,-0.00741840071266661,-0.00396366206973367
-0.0286668120104044,0.0161560464313563,0.004827462262024,-0.00417823660393282
-0.034970149914417,0.0292131690475156,0.00982448112528806,-0.00451201881690421
-0.0384129766302082,0.0295388176817703,0.00349244955863199,-0.0052703533764822
-0.0393446004720496,0.0275874018901467,-0.00367303821090455,-0.00705780152742964
-0.0381969180366152,0.0300694789554572,-0.00342330233343958,-0.00906074754363976
-0.0366369437423535,0.031758932815419,-0.00298462139124859,-0.00972675966433456
-0.0339232626897181,0.0372615159996076,-0.00444636574962988,-0.00856899745573918
-0.02849216754107,0.0454906533698605,-0.00524100957250914,-0.00648567608002212
-0.021301925868798,0.0459940758188465,-0.00693431277559892,-0.00449903267102271
-0.0180721941371248,0.0401165096642198,-0.00493481859798335,-0.00282461855236183
-0.0193286029764854,0.0342552522419917,0.00103614264560825,-0.00126130557981142
-0.0166283543059676,0.0342434393705585,-0.00144774031728147,-0.000236093097546019
-0.0101398920738063,0.0426453203945351,-0.0108300325249115,-0.000492869111335348
-0.00719217323929125,0.0496301956842346,-0.0134020712619465,-0.00172654514782469
-0.00798745842133139,0.0449545731456706,-0.00800384830154909,-0.00320596339399675
-0.00998169209480175,0.0335546785178084,-0.00239295374743712,-0.00456611159547606
-0.00977573542339715,0.024668528978078,-0.00351232497609069,-0.0050175741413614
-0.007224072181428,0.0203952530124763,-0.00812342929536709,-0.00394981131072607
-0.00792753839277637,0.013954091064285,-0.00985117064184286,-0.00184488156386024
-0.00978849567159017,0.000706354241676699,-0.0137272479781589,0.000573246318122217
-0.00392922299302594,-0.00726779054673076,-0.0255151673912311,0.00238163014671352
0.00785662973423434,-0.00034516654570824,-0.0377082306993693,0.00270757831366763
0.0124462839979743,0.00222092925295019,-0.0371845283231697,0.00203167510405551
0.00172889419618398,-0.0137547062922805,-0.0215620037952165,0.00110339576433736
-0.0110032538960576,-0.0261466553819462,-0.00285414837379435,0.000339180372984059
-0.0092474088201889,-0.0267510569462276,0.00646451718888309,0.000678043597647917
-0.00238162198248831,-0.0333561146278071,0.00532750871954805,0.00244211745814552
-0.000404939901112986,-0.0460244844277499,-0.00471219474209585,0.00448379721397884
-0.000462611714307492,-0.0573923371649901,-0.0202441923681825,0.00518812914502627
0.0013671602108582,-0.0544412387099233,-0.0286008454057895,0.00419298931798123
0.00522061445246691,-0.0264532855883267,-0.0189537990545423,0.00295204065895668
0.000222588677373693,0.00220905820705443,0.00740658793990939,0.00267186915685266
-0.0141927966494589,0.0156671393210239,0.0334664201679502,0.00298747351721402
-0.0172604515797807,0.029385388056374,0.0394149651516834,0.00293512868783147
-0.000515546433867708,0.0475031886376296,0.030421114661781,0.00218979626583253
0.0142740014073941,0.0601988174144704,0.0257801136492316,0.00141183516298731
0.0118861614432998,0.0643945158676684,0.026581621256689,0.00155962836057892
0.00495283941515696,0.0611844718808893,0.0246032269111652,0.00294209621310443
-0.0016227142687996,0.0545790327706421,0.0162129541368162,0.00468011289997988
-0.0116213761861657,0.0512317733392077,-0.00022163934938144,0.00522526570367853
-0.0146242988757251,0.0494074175112977,-0.0181939397131029,0.00397847161218385
-0.00807865007575821,0.0438446783200006,-0.0265789701071735,0.00189663516540229
-0.0019636274566092,0.040367378249613,-0.0243170364107526,0.000315921329693272
-0.00289547832053952,0.0490144838734063,-0.0171342759454408,0.000179443315373073
-0.0104476513384844,0.0617464756316083,-0.00907922149793437,0.00152102291814433
-0.0148760436207525,0.0609128954239409,-0.00632501000101265,0.00308466672742632
-0.0109693262991556,0.0439996608815908,-0.0131403058642125,0.0034630112415189
-0.00371725329891221,0.0121337151379749,-0.0276680153319269,0.00236490447358535
0.00353919911136156,-0.0321630622857442,-0.0362163565971913,-5.67628784657768e-05
0.00552804886532383,-0.0694557081082026,-0.0200437623450075,-0.00316801669734273
-0.00563018727244571,-0.0731802657903626,0.00952847817125801,-0.00478943865002806
-0.023363324543998,-0.0397647295194235,0.0216463856299825,-0.00254092601165555
-0.0289844074685483,-0.00264507162102383,0.0149441614185407,0.00429035602187873
-0.0148662290088542,0.0127408909098845,0.00293781395317338,0.0137465875852089
0.00992674295028793,0.0125088469002767,-0.00667491991497946,0.0214796819613144
0.0343647076495592,0.00743646413008867,-0.00680574049298631,0.0238396319842346
0.0533443610309986,0.00640779650367369,-0.000553289845219467,0.0206585495070994
0.0587805046615337,0.00909934819794193,0.00542496450659599,0.0140358272524598
0.0444544989072057,0.00193558356685378,0.00745077097876109,0.00629634734895709
0.0194898369252363,-0.0234732724291508,0.0107934839754732,-0.000367483253929258
-0.0052481689835733,-0.0478598112540273,0.0291319538157181,-0.00524056284127616
-0.0273280195401474,-0.034328760156752,0.0515545729244453,-0.00903510600450003
-0.0389957748666178,0.0103479771135889,0.0480527156592236,-0.0117768224888636
-0.0352175181107497,0.0386361636654819,0.0196946597888218,-0.0130435510459134
-0.0278676059286657,0.0382256421362999,-0.00475404000041273,-0.0129293720088027
-0.0249258180044664,0.0369761771085243,-0.00845541171183019,-0.0119306160884528
-0.0210271181574903,0.0489962110338205,0.000208716039296151,-0.0105549507930475
-0.00889515489809294,0.0564082785826895,0.00367086504589683,-0.00898956006616703
0.00935214853445174,0.0420969144525008,-0.00890727507430096,-0.00745053822171897
0.0197047428932441,0.0169482297295084,-0.0320554152462409,-0.0061490286190547
0.0199804301426966,-0.00143898563765443,-0.0436967893900153,-0.0052387986862737
0.0190543687848494,-0.0140553026667354,-0.0364971813623344,-0.00499351739677203
0.0189744649539891,-0.0274425067451775,-0.0247898598686613,-0.00432034695905669
0.0246393036765415,-0.0375583501595126,-0.0140607482470269,2.52466167127118e-05
0.0306606664907911,-0.0372565740060319,0.00178192112657617,0.00955274036358377
0.0225914598055599,-0.0305588814813471,0.0216794173163419,0.0199769073315009
0.0103635090792634,-0.0310336512414993,0.0333156407900234,0.0244375062293882
0.00971482626722032,-0.0442227495238058,0.0319022493361881,0.0210756649717311
0.0144044363894101,-0.0632775563646701,0.0256538999056263,0.0144323289028984
0.015960232043711,-0.0777217988985754,0.019466305937599,0.00862789899167324
0.0146550124756069,-0.083178351455788,0.0166559579436649,0.00317290330397688
0.0116106634388924,-0.0818381724758708,0.0168799589730718,-0.0029966180859964
0.00560122974181683,-0.0734730687856843,0.0107978821188482,-0.00848383112952623
-0.00349464403943438,-0.0572710728525093,-0.00179797212088495,-0.012124308399055
-0.00797007719162822,-0.0407944917038342,-0.0112533353749898,-0.0143540315733289
-0.00445370451655392,-0.0312592545722969,-0.014530089039379,-0.0153184455705792
-0.00175272807414495,-0.0224072769379455,-0.0140111019081571,-0.014345164524532
-0.00424521372747515,-0.00816248836224389,-0.0137986877445213,-0.0117452838732383
-0.00760692075256993,0.00357315662425752,-0.016807444186949,-0.00915103419534761
-0.00841719343062353,0.0108612302766609,-0.0199405984457095,-0.00719922850652344
-0.00643280802310812,0.0223944639905718,-0.0193913779198736,-0.00437534470065964
-0.00249494605605231,0.0316355626562753,-0.0171185843109641,0.00128805783338798
0.00297694608632904,0.027305480366324,-0.0166065820771312,0.00871489605685117
0.00670579148642683,0.0155987522288768,-0.0145456219054981,0.0127234632291731
0.00559869096388289,0.0056463103222662,-0.00571638103395636,0.00981012474230756
0.00276098390777991,-0.00452131574325258,0.00170339110836583,0.00264633152625055
0.00946234225649471,-0.00931680448991521,-0.00516358547591709,-0.00405036072351096
0.0210952449860192,0.00211178455637618,-0.0147147118164807,-0.00813785698732849
0.0170077414078336,0.0170484435984187,-0.0100776028763178,-0.00934616221848974
0.00486565925094312,0.0192340064585438,-0.00316490439023569,-0.00790260017685324
0.00265258567327462,0.0138771936103361,-0.00466805703984618,-0.0047336061112484
0.00566968496840227,0.00935595932169011,-0.00895548725627302,-0.00102807448035137
0.00806836473169531,0.0068996985157866,-0.0143116211949977,0.0023569677600936
0.00654078744131105,0.00436896485483136,-0.0204203346086893,0.00462872866501735
-0.00617450456730585,0.00234489008276557,-0.0202167621814251,0.0053654184777989
-0.0239450483129893,0.00438310759961522,-0.0104313974607075,0.00580099177286051
-0.0330369892496884,0.00950878160210788,-0.00181937699461271,0.00709795357758895
-0.0337264549143129,0.0130197393679949,-0.000683591725363754,0.00766479044227468
-0.0333452648308997,0.0128285827642913,0.000628076612885475,0.00533619431143152
-0.0319206160227934,0.0118942043983413,0.00272707246547031,0.000716013046427042
-0.0241583212368565,0.0107409230017472,-0.000924823588850375,-0.00333834870152964
-0.00790228958519844,0.00678927954198311,-0.00618446722987803,-0.00511529229957513
0.00883124794068796,0.00256449676222962,-0.00774085149753748,-0.00475571191391894
0.0226715900193676,0.00166740955447965,-0.00971796274266633,-0.00252202337274867
0.0364218788163063,0.00145111911086165,-0.0137640675899927,0.000809373695569754
0.0369283107969865,0.000509053730051908,-0.0139832269568836,0.00363327639835824
0.0169147764105731,0.00158719193742278,-0.00955298593069723,0.00504210605324438
-0.00321760549636172,0.0048726393922361,-0.00317813607636097,0.00494516106986554
-0.00825195015071226,0.00132869137256905,0.00309873921670989,0.00303656727174016
-0.00534673434430199,-0.0145719605876954,-0.000927415356282863,-0.000394921549927004
-0.00038360033610448,-0.0240542220673915,-0.0134554571310881,-0.00408949449446905
0.00462069603918205,-0.0108406946126132,-0.0147931282806671,-0.00685458945653381
0.00386650000778249,0.0109936002144431,-0.00210595367022532,-0.0082130306090045
-0.00125281106828817,0.0248558053762576,0.0116181408900765,-0.00780546856932181
-0.00329688133036627,0.0247415411065828,0.0140420730139971,-0.00541733117512393
0.000884922606001814,0.00744688842164671,0.00361966667166292,-0.00275170072390559
0.00281763479070175,-0.0137899639673322,-0.00433111100162325,-0.00202977342215652
-0.00258366839387855,-0.0170181029417373,-0.00312103798398263,-0.00264001285242681
-0.00364678670716021,-0.00425452454974694,-0.00266390887483483,-0.0020399342777209
0.00482489354757995,-0.000822003734189444,-0.000523193610863219,0.00122826809136417
0.013019119386855,-0.0150923985545081,0.0119285126270297,0.00639773946562074
0.011394587754213,-0.0277596008196344,0.0230914782213918,0.0107399630188338
0.00205446245015103,-0.02737793092621,0.0199729495327343,0.0106975232586406
-0.00317591568214043,-0.0205063722160426,0.00787046644670533,0.00474687621265849
-0.00249361362409385,-0.00954515040390194,-0.000913442191362857,-0.00265935117297256
-0.00763148251046286,0.00201109890348946,-0.0068554820048764,-0.00437191262503613
-0.01766999977173,0.00927602279783075,-0.0149409266094566,0.00104552087484466
-0.0145872652028801,0.0156064743352264,-0.0190794224825214,0.0100035806631083
0.00183589781987781,0.0197563510170128,-0.0134386877187665,0.0188925747468058
0.00881051622436572,0.0251816091717786,0.00137095728627831,0.0248876066590144
0.00506499658179498,0.0387622249663087,0.0199530588172904,0.0253576879843991
0.0113971227049171,0.0395799798185788,0.030413672956196,0.0185119694054905
0.0259912355114068,0.0137863284695286,0.0242984265522631,0.00545478565644086
0.0286069456417629,-0.00705848059217252,0.00767943511929275,-0.00986230291249752
0.0154497931841608,-0.00803421437892073,-0.0114195911904241,-0.0229920350766295
0.00439733993149736,-0.0172198928979185,-0.0307250359547644,-0.0309702633180704
0.00648032898680799,-0.0404962185137434,-0.0442440955432441,-0.0327347031380211
0.0132491208727097,-0.0555419351678538,-0.0444143077453509,-0.0284716652736477
0.0149500922022609,-0.0514961534044671,-0.0315208180344349,-0.0191895954596147
0.00460419796529992,-0.0303612390219775,-0.0121781767443866,-0.00694076292720238
-0.0107502923800189,-0.00964442780036143,-0.00165944812995569,0.00452118411405774
-0.0106903427053664,-0.00595763039101579,-0.0120452626679832,0.0106792213972782
0.00564611828248364,-0.010367739990825,-0.0288042963343831,0.00940011986840896
0.0173590030582661,-0.0147718898560035,-0.0312958728373542,0.00312473746578159
0.0103844687629848,-0.0222790738496807,-0.0140026507029863,-0.00382307765256586
-0.00620504635391985,-0.0177170242166329,0.0145611415090689,-0.00847514772795127
-0.0121231998822339,0.00809875966359658,0.0328581676583263,-0.00941483995975236
-0.00429108931660367,0.0406975473646911,0.029031875481075,-0.0074128376606666
0.00288577765464115,0.0631812314539188,0.0138018946199192,-0.00432815336503789
0.00311954766466245,0.0585651220198972,0.00290247195394627,-0.000549305224575004
-0.0012340959996776,0.0443686532440478,0.00107816369474909,0.00431647490151654
-0.00819750159927028,0.0516678950022214,0.00477275031906154,0.00951676741196546
-0.016282531347041,0.0648758195973251,0.00480440631623116,0.0129312810652511
-0.0218937293393599,0.057580374863908,-0.00496200165132905,0.0120175213440646
-0.0210510122622644,0.0345580077350595,-0.015714272463428,0.00616010493593571
-0.0156220781257428,0.0142155148532181,-0.0184207116394216,-0.00206361985678739
-0.00841339548089259,0.00264968422548761,-0.0103585124929975,-0.00929856859657376
0.00134362799435445,-0.00648326600141845,0.00426937478645646,-0.0142889959063612
0.015182506920258,-0.0208386170778831,0.0143289998432201,-0.0177061609616698
0.0265055527552541,-0.0404992748270242,0.0177302873074747,-0.0202076811869903
0.0246193233419014,-0.0550466970128752,0.0179216137290406,-0.0219117807382511
0.014707965346324,-0.0543390848307237,0.0142655541159496,-0.0229228530621988
0.00782824562786222,-0.0377026757679634,0.00976360205829523,-0.0230912173893305
0.00388223445003323,-0.0115918259029375,0.011601774151515,-0.0215656591378843
-0.000695292488506527,0.0120918595807194,0.0195638526139469,-0.0180118776460757
-0.00657361238322617,0.0258454603656017,0.0246905526525825,-0.013505695199079
-0.00743101004784912,0.0310246075541378,0.0189283483474379,-0.00862598564206769
-0.00186199694640069,0.0254047188636541,0.00452621735476292,-0.00319748969543531
0.00124997891995365,0.012774540805201,-0.00737575338952202,0.00215433139162414
-0.000255282195313015,0.00165312032059401,-0.00710199008844595,0.00714665254381677
-0.00194010209486505,-0.00584537376514685,0.00791833574133469,0.0123570710454449
0.000636070822231341,-0.000374023502857038,0.0284975871437267,0.0167754255395326
0.00567463644938285,0.0199816731621279,0.0380890682474092,0.0177210420934958
0.00867875672346814,0.036756113810438,0.0293945615310599,0.0140531194985543
0.00808092747488684,0.0395465172415553,0.0173321481404842,0.00768666504452001
0.00195313582095517,0.0268860605890931,0.0154587906916541,0.00248459431735847
-0.00635314761953683,0.00363583754093658,0.0168660721337211,0.00164793252228149
-0.0105830380194455,-0.00655814092064195,0.0183663268291924,0.00570889294868144
-0.00827661750330837,0.00182501191646448,0.0291131527117532,0.012880120637692
-0.000700267896445384,0.00267805801428034,0.0443431960193379,0.0195713361852523
0.00967489878386014,-0.00778053508116794,0.0472667989395424,0.0222766409295706
0.0139171443643766,-0.0117735510099372,0.04499552941782,0.0204135902460097
0.00575717719713395,-0.0128203291051272,0.0461985124877439,0.0156419985540334
-0.00226206932936804,-0.0168969110194152,0.0408147119630914,0.0100042322516134
-0.00159328474320037,-0.0177398877893818,0.0292540754801748,0.00530655764685806
0.00461680114768203,-0.0148635561690447,0.0241675390096456,0.00258436793017874
0.0133275493725358,-0.013082791115204,0.0282618510506288,0.00207764642836682
0.0189428579979408,-0.0183068148166386,0.0282121838307945,0.00322052561688857
0.0211582442976485,-0.027351900193377,0.0182578844818679,0.00513807972552487
0.0246216873718957,-0.0263409952604139,0.0102032593409168,0.00722372518994864
0.0278118397112911,-0.0133084087070939,0.0106655843025934,0.00887649760163941
0.0277320484469377,0.00120081116482414,0.0145816463229918,0.00966107228747563
0.0241314030440783,0.0136665159785804,0.0226107741182637,0.00989419451692841
0.0156226917551496,0.0233719590139774,0.0373689228826043,0.0109025980542203
0.00097697507419571,0.0257521391370116,0.0469428616311414,0.0134383304966724
-0.0201699116396181,0.0242879695562878,0.042967748900514,0.0162346384556729
-0.0411157390638895,0.019556847781303,0.0296185397463424,0.0172443552600567
-0.0447399483723736,0.00685647182514865,0.00782861436180897,0.0153490165705218
-0.0262492985686105,-0.0148147818796794,-0.0179885813251762,0.0112782532744313
-0.00893159432268357,-0.0550401766456826,-0.0331211453933935,0.0071073228631564
-0.00894000332227908,-0.102148370183676,-0.028550908016916,0.0047753139060976
-0.00837417733955953,-0.120602388078066,-0.0174184213353466,0.00523449588253672
0.010211803832326,-0.107580026379669,-0.0160608277408458,0.00792979194769556
0.0387976845934178,-0.0882401988605284,-0.0270827535090203,0.0107960209904113
0.0608825646081808,-0.0764600292023452,-0.046623564598316,0.0116183510563234
0.0671549433532973,-0.0696985900645022,-0.0604802168166146,0.00958109080200694
0.0567119446263127,-0.0526285481621829,-0.054014359230643,0.0054986450823664
0.0335943671341552,-0.0144749799353536,-0.0348847603143319,0.0011930941845332
0.00754213240667064,0.0212514858750764,-0.0192966566699528,-0.00215610587620416
-0.0128879598565776,0.0268212321542259,-0.00319315523754586,-0.00508154716471003
-0.0262572117513396,0.0155121521564758,0.0182630498718105,-0.00789752731465361
-0.0299865834448371,0.0135316429727548,0.0379983136897481,-0.00946789422108961
-0.0244757211742002,0.0395807637096902,0.0523524002393917,-0.00912164236911692
-0.0155119139578487,0.0919293402856594,0.0466822597813771,-0.00744668946277544
-0.00331727637637073,0.121779251846827,0.0153661037712756,-0.00554261022525487
0.00886126356433785,0.0891482383672322,-0.0176981671087778,-0.00494468528774654
0.0086298894540144,0.0236143206523038,-0.0325234758128191,-0.00641128009262699
-0.00672513694883928,-0.0279833912348525,-0.0305666944595327,-0.00890491269775131
-0.0212961564846661,-0.0569785689421892,-0.0243050636668742,-0.0110751552539527
-0.0200151933135681,-0.0658586348929882,-0.0231443777406735,-0.0122514559341286
-0.0116638364679072,-0.0560582618198886,-0.0276075225979289,-0.0120479742105843
-0.010696654057387,-0.0406309962224168,-0.0379854106659302,-0.0104818490311507
-0.0148327703857701,-0.0353296670609984,-0.0544902043648689,-0.00844296468563251
-0.0153438537636036,-0.0363634453686585,-0.0590893279950953,-0.00710607798734789
-0.00378453870046967,-0.019659937752719,-0.0439435851605425,-0.00614836786170134
0.0177017220281563,0.0128387919044804,-0.0316821438653081,-0.00431928374002352
0.0243759336609892,0.0324841777954049,-0.0289714505952461,-0.00210686639328788
0.00380526496499942,0.0324929195883009,-0.0224891918297547,-0.00139432528140376
-0.0184097712032557,0.0239661596713387,-0.011967451403428,-0.00266548228832377
-0.0219916810830465,0.0123599219441124,-0.00843960974162854,-0.00451087558689795
-0.0138734749361927,0.00499432551561391,-0.0144699836161577,-0.00578104738314879
-0.00699235585988052,0.0125243491358243,-0.01606513945671,-0.00632915281843959
-0.00477264415933743,0.028485878327791,-0.0101533094191625,-0.0061209196951714
-0.00455995724550249,0.0382552339742366,-0.00687137679553691,-0.0051618501928129
-0.00907376237920414,0.0419763565099773,-0.0031976054206041,-0.00402200024580731
-0.0175859260196476,0.0456676948259757,0.00443060187301319,-0.00309270370171647
-0.0231588627375499,0.0506352545837978,0.0121919015158898,-0.000965088668389831
-0.0234150985102319,0.0540391886554089,0.0176418990575973,0.00352163373898745
-0.0209326093419674,0.0524583618884549,0.0181297060535751,0.00808937487290216
-0.0176272673561244,0.0449721365677717,0.0151102367300475,0.00937285744429101
-0.0119464402524154,0.0356019764761998,0.0127819551586327,0.00660948746168552
-0.0071435430234262,0.0329448029800013,0.0130289800752977,0.00155347132132222
-0.00884309549509273,0.0413677980327648,0.0192742204623795,-0.00312935493133644
-0.0119296368864125,0.0529472511979613,0.0281629412541139,-0.00580545352812897
-0.0110636784004225,0.0570611307521182,0.0323989136939455,-0.00648779779563181
-0.00799616359092299,0.0552341820233271,0.032631908545415,-0.00551483399742659
-0.00454870020772059,0.0528254326029537,0.0315825913724441,-0.00327230962974019
-0.00413253021406031,0.0503277658200951,0.0266760337827282,-0.00117647942833017
-0.00846558327199561,0.0486819355124071,0.0168536181618257,-0.00112430988570134
-0.0136582941658874,0.0461507888931287,0.00843213836506868,-0.00294429458453069
-0.0150336814736393,0.040773430671536,0.00399367609092868,-0.00464200878650723
-0.0111018475877678,0.0342018297349777,6.38238803733621e-05,-0.0049345424435932
-0.00350801033885351,0.0246008368523553,-0.00206507879945051,-0.00356186091820259
0.00268650711105739,0.00910652211843422,0.00257077101789168,-0.000240098534508636
0.00426051820334615,-0.00612638640180678,0.0108145406698662,0.00508605311677034
0.00590356764980127,-0.0143972287933618,0.00969121242415076,0.01058073176968
0.00833914546536961,-0.0156631657415234,-0.000679586057990802,0.0128807976503789
0.00476621613730452,-0.0124224985685184,-0.00668547750727292,0.0100221051586796
-0.002228616904664,-0.0122273944423723,-0.00451167699149286,0.00324320772386103
-0.00585818793117188,-0.0107772175932281,0.00103507246441276,-0.00418303501505082
-0.00656669906288848,0.00614174143349737,0.00207739738494712,-0.00863742510533969
-0.00438958428949546,0.0322776656660072,-0.00238022749824359,-0.00816326585901687
-0.00143340791678864,0.0494972155412195,-0.00616248269437248,-0.00458163136768135
-0.00115078288924264,0.0507116676924255,-0.0103009928902315,-0.00137095821738572
-0.00252988791281165,0.0383912598013057,-0.0167642692997834,-0.000426594349442283
-0.00278556348891125,0.0175451262861383,-0.020630951171032,-0.0016706976128521
-1.05532623660889e-05,-0.0049775622584442,-0.0220254594542353,-0.0037264222056979
0.00533640820552718,-0.0197455659172979,-0.0247107829351582,-0.00531817213987218
0.0117251601381428,-0.0304021275203631,-0.0260838445177304,-0.00552971826129888
0.0166115976799298,-0.0512662846221926,-0.0204564833865322,-0.00378965746451595
0.0155560191475543,-0.0753090900315221,-0.00552160404025288,-0.000748735903242737
0.00681985141113564,-0.0803593773758129,0.00729045865653136,0.00259169217569982
0.000839689137121876,-0.0683770225610872,0.00170931148963904,0.00494005182370593
0.0117945668998407,-0.0582618146222314,-0.015441985492433,0.00383139824270977
0.0306800048571644,-0.04364131096525,-0.0235062574640286,-0.00180239236858651
0.0356877740177489,-0.0131431911393963,-0.0150758860542568,-0.00900732350871307
0.0181419847198894,0.0154774758109941,0.00506955124802298,-0.0136173041393074
-0.0126900262257184,0.0380487210578198,0.0268391972569136,-0.0140720685928698
-0.0275319450367216,0.0639412305220591,0.0373420147937335,-0.010945892761783
-0.0143027627373577,0.0741961563559851,0.0344779901184434,-0.00538882112406148
0.00123637811809106,0.054929790671296,0.0274779707875672,0.000485189492800717
0.00476520084791872,0.0174345489637127,0.0208413920364471,0.00397480874468538
0.00674316226504476,-0.0160090725332077,0.0135312503808026,0.0041107753262981
0.00985796464621273,-0.029365731698931,0.00476167399866534,0.00247792280914101
0.0119493996882158,-0.030306338719634,-0.00209410083108556,0.00109013495721981
0.0154589548807645,-0.0303362080003054,-0.00464382615300739,0.00138154711865571
0.0187597292252344,-0.031593584240552,-0.00428783130318694,0.00467193692990655
0.0185451274382687,-0.0338939207439172,-0.00325989986677672,0.0102169129774827
0.0144982972185951,-0.03258787671096,-0.00601451375064428,0.0141824336236491
0.00792217087933456,-0.0274568347101036,-0.0109684138212569,0.0124708563350125
-0.000360509517509849,-0.0265046041422197,-0.0115661529615141,0.00427970367719011
-0.0119214368852916,-0.0295735742545203,-0.0105113909035642,-0.00647610937759515
-0.0207617898354196,-0.025473505168984,-0.00837553246694225,-0.0144559977326982
-0.0166103788485288,-0.0101645728326993,0.00156198606126771,-0.0174205049550048
-0.00358483306011459,0.00346613805216358,0.0143617226119329,-0.0153717271044051
0.0083919209091455,0.00739694837439017,0.0205017496101297,-0.00845001028887857
0.0145593543623724,0.0099782555470089,0.021429313177449,0.00222957725832761
0.0139132816099845,0.0147878652545309,0.0221914620031967,0.0132337400592287
0.010798058355981,0.0155254017267882,0.0209122224616836,0.0195258279556083
0.00958694556674073,0.0107291631018744,0.01293519986,0.018361019557137
0.00821264811331374,0.00545680505074475,0.00232851623580932,0.0116313870986535
0.00318597597480164,-0.000660045721377823,-0.00254626474574438,0.00396211318430113
-0.00143679398217583,-0.0105747054283568,0.00154372583960209,-0.000857284948133388
-0.000743583493505414,-0.0236021676608099,0.00939846960616036,-0.00316289538360455
-0.00118646003718509,-0.0348046473290713,0.0116956778988489,-0.00579004366135808
-0.00783916885220485,-0.0323539200577211,0.0097736052784978,-0.00880137870319304
-0.0130390685632938,-0.0175708283730589,0.00935124022080203,-0.00952928829596771
-0.00897803726932717,-0.00943898490036138,0.00417294011530617,-0.0071391602185591
0.00257376005037998,-0.00977944257517867,-0.00878046664915801,-0.00386782695613971
0.0105534408089569,-0.00492804357232066,-0.0215838324720291,-0.00199603254633373
0.00521313814718318,0.00358684274558194,-0.0312789028987686,-0.00119092115182242
-0.00768425417743179,0.00922711032749515,-0.0343340014373541,0.00120436773928855
-0.0172459472528087,0.0132381291360967,-0.023993104598095,0.00736129303112241
-0.0222844568161294,0.0175343806048847,-0.0051317655456974,0.0162356658177156
-0.0171528326072217,0.0217085661227093,0.00362532024830031,0.0238687721596448
0.000413802542613095,0.0217852020722406,-0.003847091268023,0.0264941496848763
0.0110066408775755,0.0106427473450614,-0.0119786859536101,0.0236629940168289
0.00593678015037252,-0.006690355944683,-0.0150268895196013,0.0187088017090913
-0.00170317993101585,-0.0175117754029781,-0.0220086317309408,0.0153455513126824
-0.00595112488554567,-0.0208631409157998,-0.0334052510029037,0.0133142637605557
-0.0134546923558759,-0.0230395975525742,-0.0408864859524943,0.00828101607988754
-0.0254913337772267,-0.0295716220426578,-0.0385940079310852,-0.00289857654358805
-0.0316552895672513,-0.0424966368636354,-0.0287640976242785,-0.0167581403202886
-0.0312542242045922,-0.0550597735091206,-0.0206506813630166,-0.025200068298398
-0.0276033899566829,-0.0481835536868906,-0.0186274276156886,-0.0233071958634062
-0.0190840037001686,-0.0293503646369467,-0.0144130525124265,-0.0137422427288918
-0.0171204584403546,-0.0293530075665628,-0.00380702677959994,-0.00376399728764016
-0.0170558214020399,-0.0352508501187833,0.000702833884685554,0.0012512451110643
0.00598281664582289,-0.0207830925891895,-0.00829716906689575,0.00107628511884925
0.0352430079060345,-0.0115793505013007,-0.0176117641206273,-0.00202031356078473
0.041311528564427,-0.0396130310776588,-0.018504048849269,-0.0063643035739452
0.0439676551628288,-0.0768941454376302,-0.019200715854438,-0.0107286391878768
0.0530058427098943,-0.0787769441491802,-0.0186851778053281,-0.0144651996319715
0.0429576461016133,-0.0534809062219803,-0.0166011100011268,-0.0167646737598976
0.0155518942722052,-0.0333086860657785,-0.0218206077321605,-0.0154168592049182
0.000284571090506933,-0.0254965522176215,-0.0312702129494536,-0.00960738864782382
0.0115149228103556,-0.0218812631502691,-0.0364109222225007,-0.00030271298492824
0.0304948875062037,-0.0180581191999562,-0.032527186233906,0.012304450163573
0.0370696961945459,-0.0186377612529088,-0.023629089436686,0.0250178286793847
0.0370073853414813,-0.0329994436644145,-0.0173293910437735,0.0305314957894691
0.0319794945562511,-0.0421094221276705,-0.0062970328253829,0.0253003585173314
0.00851783327931943,-0.0134876015680986,0.0166012962638562,0.0136046649392124
-0.0333658739377697,0.0452520499418057,0.0414970811346796,0.00236254512786046
-0.0713501369493941,0.105528709551926,0.0545752545918259,-0.0053941268061199
-0.0830600350330629,0.12526150951279,0.0546753792616232,-0.0105401745603592
-0.0648855865680069,0.0694344750332746,0.0540166541657644,-0.0138720454329558
-0.0319501860630444,-0.0234532639451953,0.052218374931079,-0.0156721377293942
0.00242413992946724,-0.0849516126042903,0.0368874035338642,-0.0172603792577662
0.0311435588739393,-0.0924589025119155,0.0166369517316613,-0.0194165560327355
0.0429811332925545,-0.0654745305084725,0.00897615103708661,-0.0213940695436329
0.0409068188434634,-0.0352104396807378,0.00913146051761312,-0.0227245155550971
0.0332695808391664,-0.0170764126272264,0.00842205287108419,-0.0233552178867993
0.0170359406970865,-0.0118873534301031,0.00666988064435588,-0.0228196014080221
0.0010712122241861,-0.0147003764502135,0.00369567501416425,-0.0211719656622051
0.00209966853354441,-0.0107924872654836,0.00148484727460256,-0.0188622111997678
0.0137250071411732,0.00575007809490603,-0.000120639214350845,-0.0155315581145951
0.0166232410139629,0.0212364063512379,-0.0018002208600618,-0.0107212891735363
0.00967227045214573,0.0280687965296986,-0.000135635660384119,-0.00514481209377405
0.007327093052516,0.0358579887020354,0.00682253019595293,0.000103277562075156
0.0133504904028611,0.0468416728207376,0.0146017194914708,0.00489669722227318
0.0157009852510704,0.0483761511898459,0.0196364245182936,0.0095706401111811
0.0104412745612288,0.0384774690189698,0.0244485573096802,0.013476010171759
0.00526756310769306,0.0281610820611261,0.0281865537350791,0.0151999437768138
0.000794859089980025,0.0226698971238436,0.0275780339791865,0.0142352880994678
-0.00731830039117261,0.0200632039680693,0.0252529859243017,0.011305070699446
-0.017297934823202,0.0191928423759066,0.0241786257950276,0.00780094979518007
-0.0231790675866364,0.0214642825365741,0.0263150184063637,0.00508785679082391
-0.0209581273419677,0.0245061765193014,0.0306963584070337,0.00374206358217364
-0.0135198460072163,0.0235497696526511,0.0289772827694226,0.00353349939155842
-0.00772073351366005,0.0216207796847748,0.0211212011005991,0.00369257019022036
-0.00665803631462084,0.0239363108645741,0.0157665694493232,0.00360244810124618
-0.00870121575186304,0.0283970339644761,0.0135826581860534,0.00332757754654435
-0.0112984062056319,0.0317263157648851,0.00951286638710102,0.003152318866134
-0.0135455143880131,0.0325568446758669,0.00240420417352796,0.00336741274591017
-0.0139267669642396,0.0305196273942244,-0.00317203390252745,0.00416507024894959
-0.0114786141811469,0.0257433944201261,-0.00682207390322077,0.00527721634518528
-0.00980544317049207,0.0198496614258069,-0.0128804793351298,0.00631805375745222
-0.0123599239627719,0.0188681294205727,-0.0196404005874235,0.0075269960826709
-0.0156913801400515,0.0255926554768777,-0.0191550396211321,0.00921145858314899
-0.0149629994747493,0.0281863214530457,-0.00375467588897403,0.0112853051465484
-0.0109237534806378,0.0147147874784963,0.0171684795058655,0.0134142737510991
-0.00470132540441324,-0.00428992825866767,0.0245752764619132,0.01390732178368
0.00334887720946554,-0.0132173005364276,0.0188146152530415,0.011405052367609
0.00787556035603655,-0.0124352416739429,0.0103717929149846,0.00780743504206741
0.00557698407314194,-0.00944311773258818,0.00172018675091752,0.00600022247526795
0.00361573852066459,-0.00451984462434747,-0.0107573885272719,0.00614040579164173
0.0033581657851726,0.00294270491750758,-0.0227850476622453,0.0065704654012095
-0.00173683090932256,0.0119672879434246,-0.0201727124435433,0.00653800072092738
-0.00403603785389132,0.0263122089463762,-0.00375785042115751,0.00662773865820039
-0.00011991366477869,0.0378630011624877,0.0127023385033781,0.00804526824471785
-0.000536462453595675,0.0332277954070249,0.0119120148808211,0.0102842115719483
-0.0033268270013345,0.0215102374425741,-0.0102179535580508,0.0106781907539801
-0.00553304869000919,0.018851278167103,-0.0251525356504141,0.00867013359262039
-0.00940237530088412,0.0226036614538708,-0.0225191850170076,0.00624297572412692
-0.0144177548983402,0.0204657102510973,-0.01878864353129,0.00378813885161711
-0.0203315563491111,0.00952290603658272,-0.0109133751673152,0.000967670851068854
-0.0176885224854699,-0.00675284342784513,0.00320725736940863,-0.000891307645913835
-0.00752113910122917,-0.024217231825837,0.00951291648423903,-0.0012261339892857
-0.00580794808721465,-0.0324520323733875,0.00720892100343755,-0.00140285653934778
-0.00768699503061714,-0.0344510922034567,0.00567591620735516,-0.00238380973987362
0.0034335748518018,-0.0474181417628256,0.00742897914581277,-0.00366846343317646
0.0219711992620545,-0.0739078911370328,0.0143908696511599,-0.00404556697745838
0.0296639835333144,-0.10242646870691,0.0214410988760659,-0.00264351850266101
0.0249057387119875,-0.109582828844304,0.0157268379999474,-0.000343742542647832
0.0167689377457704,-0.0774767344613047,-0.00297391113972591,0.000591435422072501
0.00909947709288342,-0.0266389298356581,-0.0241314237290354,-0.000947034909067269
0.00378728118885006,0.0025984914913756,-0.0384495930589758,-0.00389145547372322
0.00349957226093011,0.00225637779747244,-0.045845049125543,-0.00649824348258694
0.00343195836849705,0.00615028749296628,-0.0520875568003801,-0.00806989567057251
-0.00875861362979438,0.0355763110884188,-0.0564847541045106,-0.00834429171362015
-0.0332528475125774,0.0669111069136845,-0.0568528979035215,-0.00698207577396212
-0.0443028495547864,0.0660660377107612,-0.0553004137095305,-0.00447106844442313
-0.0222407106217764,0.0357593837282011,-0.0524010278060489,-0.00197779976246481
0.0108049539479071,0.0131766052187999,-0.0427901137389551,-0.000667298925890259
0.0191404834569296,0.00928775118403218,-0.0176655784338652,-0.00055548599824253
-0.00351962671980932,0.00322576109917134,0.027883860197596,-0.000389064742879972
-0.0271749177088848,-0.0118415294534766,0.0677117420104767,0.000467169272189298
-0.0270616913209404,-0.0332460553281869,0.0671339326098822,0.00101059236151903
-0.0126477639001816,-0.0558963424958192,0.0402135441376955,-0.000430698674066669
0.002517091833606,-0.0710123401660314,0.01535025569705,-0.00417355600023015
0.0192837383998227,-0.0719566356365151,-0.00663469667470434,-0.00862648001899645
0.0356176681025855,-0.0548109355189619,-0.0250322429526494,-0.0119252357978972
0.0359242795917564,-0.0239564420411918,-0.0286909694366464,-0.0124450164652547
0.0107753178930689,0.00632885456877258,-0.0212645895685376,-0.00943587213726812
-0.0160801256195085,0.0164970937886436,-0.0197145642421321,-0.00442991694921126
-0.0156293752900195,0.00831602425244361,-0.0235151933176266,0.00024886649955596
0.000584891717356258,0.00449020594173918,-0.0204868720552959,0.00345183410618992
0.012044932231101,0.000224527184845225,-0.0201199838038837,0.00499020105516759
0.0140956224863171,-0.0118883548739952,-0.0257051517984222,0.00499651840627879
-0.00203706075370035,-0.0105281937283068,-0.0170199532159456,0.00411640463083704
-0.0229067274011004,0.00452846017266252,-0.000291659336125814,0.00325398414876956
-0.0198270502882972,0.00889308621840419,0.00354684558797571,0.00290821426895648
-0.00666601127540201,-0.000481254334418521,0.000789722333993438,0.00326676922705399
-0.0144177290914584,-0.00565741880806296,0.00220915201619484,0.00387262908961373
-0.0330100981253378,-0.00250641721806516,0.00468971512884413,0.00397426912953916
-0.0365193122877991,0.00167563327318577,0.00304278250081749,0.00354417938980309
-0.0281237095590834,0.00626698356103227,0.000751206899089644,0.0027073362658282
-0.0248244211228724,0.0150650495815265,0.00361420362678317,0.00138420667741194
-0.0280193458520386,0.0317163021184388,0.0111773490335812,-2.57724745665538e-05
-0.0292603756666503,0.0452755633685518,0.02074904696339,-0.000750386703188971
-0.0213855295974963,0.0454336039776391,0.0234511262621388,-0.00055667624338305
-0.00498027529766472,0.0443279860524213,0.0109736819862047,0.000262060208019651
0.00414067728513071,0.0421533699590321,-0.00706275941422844,0.001450096503782
-0.00169648267646774,0.028959076166389,-0.0110325168133433,0.00214346485751873
-0.00875001610332531,0.0197758714125414,-0.00156978881183615,0.00154709358338317
-0.00672790580145158,0.0294943722680082,0.00579418818795812,0.000508872770797196
0.0035890101217211,0.0328705456209725,0.00608348873975615,0.000244010537759133
0.0173173785372327,0.00259541329939769,-0.00104331036695785,0.000441526345547701
0.0206928041302165,-0.0347067264269103,-0.0129751249410952,-0.0002290370758203
0.00864793563083455,-0.0496711409229059,-0.0182027413166306,-0.00232145232425952
-0.00414473582396622,-0.0514897841805785,-0.01216609163316,-0.0046382099196714
-0.00631951992847607,-0.0495832002810418,-0.00507315941320678,-0.00578720132823188
-0.00218317703869764,-0.040188951264766,-0.00326649701108429,-0.00571782101640376
-0.00686799200653961,-0.0158657256981321,-0.0014124887110993,-0.00495258433539747
-0.0271358686442426,0.0213142666108803,0.00656067103291224,-0.00398449763986853
-0.0433970488142265,0.048548713495986,0.0172001928042425,-0.00312586959762258
-0.0380820281052623,0.0499230394910682,0.0168096823026594,-0.0029508242899435
-0.0243053590741278,0.0421515692267492,0.00408230914258831,-0.00403207582929553
-0.0130157275329391,0.0436565910416206,-0.00558560482320219,-0.0045763102304751
0.000853424416828593,0.0501020833154003,-0.00690194872275831,-0.00151302149622934
0.00959558852729675,0.0487552671217881,-0.00444343734943081,0.00437817639416712
0.00398082486928722,0.0364948820773438,0.00188669055392994,0.00849348516214237
-0.00512339249370092,0.0155726557537911,0.00872608995287171,0.00807263620932104
-0.00471413267422675,-0.0122098009055954,0.0113998509064767,0.00421388275315437
0.00580544953315929,-0.036158645046529,0.0136895234354671,-0.000868547537879339
0.0214925855533278,-0.0422680968111563,0.0169750554221362,-0.00542591486629261
0.037951689491969,-0.0225826763026048,0.0155417857224287,-0.00783018783665332
0.0432339520754642,0.00933064745731928,0.00437398388683088,-0.0072204046735748
0.0234634346868476,0.0268985249293996,-0.00845953895630405,-0.00423799398906705
-0.0104836892003106,0.0221559414162921,-0.0115309649168888,-0.000162574958395806
-0.0283031338882457,0.00264387013524425,-0.0114687746469533,0.00376228195023171
-0.0202082205847562,-0.018397156248972,-0.0199743506541946,0.00622558794405814
-0.00144333622596586,-0.0291829192044222,-0.0362714934166381,0.00625786652505375
0.0148662223061419,-0.0267143578572516,-0.0483541175608154,0.00359923529401298
0.0269028987509492,-0.0186787551043197,-0.0468361771790223,-0.000837438064971953
0.0332847555240581,-0.0152609552359622,-0.0370429911170181,-0.00532538212638199
0.0293069645655165,-0.00844206196084061,-0.0252262603011099,-0.00855110420863043
0.0190201339913885,0.00577881218235371,-0.0186819571455626,-0.00984999555570525
0.0129864639201562,0.0135908383528877,-0.0218417685224972,-0.0106314345805183
0.0147789516810592,0.00988295193568525,-0.0244841495487811,-0.0134031472597769
0.0209534569379158,0.00248001253557373,-0.0167923493673878,-0.0169757113038052
0.0263236150632556,0.00207686554453963,0.000560056001806329,-0.0158716060533428
0.0231604053368482,0.00616953452451925,0.01483580382065,-0.00568152227707263
0.0138683801334085,-0.000516573103990635,0.0121369286169408,0.00953705298880523
0.00808609264117837,-0.016139232185432,-0.00157412609926887,0.0176805547337691
0.00427672299394349,-0.0269901355162498,-0.0111431257188447,0.0124063718573631
-0.000103931482722218,-0.0373728219767794,-0.0161407220891187,0.000298530182758238
-0.00122080370954776,-0.0685925422787662,-0.0212758811599821,-0.00975787878287841
0.00595504194269623,-0.120199442061115,-0.0263702282213007,-0.0148639115776893
0.0190047616063344,-0.152384332378359,-0.0265844917530062,-0.015921486349816
0.0210902840773569,-0.146518222847611,-0.0180398002311616,-0.0138384604831865
0.00793447749954765,-0.129954420363133,-0.0102078144978453,-0.00897987599661993
-0.00342980636684796,-0.113387426531078,-0.0165308944846557,-0.00301506197641296
-0.00384332860855206,-0.0745593391973054,-0.0342993501034673,0.00203771656017705
0.00789488729478808,-0.0325397917292568,-0.055709793428009,0.00622876528892552
0.0354350739877467,-0.0395790656636085,-0.0734002643906435,0.0092416303865743
0.0687630667931109,-0.0824394017774085,-0.0762626770676376,0.00832440210088434
0.0806958371967156,-0.0912438834397431,-0.0568034929216365,0.00248951830311469
0.0615635651109932,-0.0290830956182371,-0.0153151407310251,-0.00529367419706639
0.0375232926076007,0.089313448797953,0.0264916271098227,-0.010899250415961
0.0353838937254649,0.209634640736835,0.0440403768877222,-0.0121369096520412
0.0500151219548753,0.244057772679456,0.0429766143111493,-0.0103620807679729
0.0569590436809694,0.159187063790222,0.0408182491833108,-0.00790658925778201
0.0378151859852971,0.0413346254276271,0.046124237194704,-0.00511351229463455
-0.0149511610161799,-0.0215901631068912,0.0550045918030275,-0.0022274858611926
-0.0912859666148091,-0.0389895470398239,0.0532929520242327,-0.000215488329989323
-0.140752459042092,-0.0501357384241965,0.0396004738956083,0.0014259521146247
-0.118330683660535,-0.0703001212779558,0.0257846774495405,0.00399031460603298
-0.0505585656769249,-0.085568372622727,0.0185072172150403,0.00735110772042002
0.00607015604915465,-0.0787454539870324,0.0157685298928953,0.00969872223380014
0.027445408413313,-0.0555571439342946,0.0145717092009044,0.00866988691133731
0.0259022079917484,-0.0267734472016013,0.0133999053747423,0.00414727287887827
0.0218429568828771,-0.0039612925934012,0.00878250335219501,-0.000790577987739807
0.021102597650722,0.00640635304269951,0.00129424886084836,-0.00317070602507349
0.0253144551888364,0.0143319859018624,-0.00129178011536234,-0.00247428547050431
0.0339451249411215,0.0278065725171107,0.00283770316792751,0.000247701883926078
0.0401775257175883,0.0389797857374963,0.0104483717416075,0.00378786567191458
0.0364881347732484,0.0416283485055174,0.0205150661593237,0.00690119849132826
0.0174162047966675,0.0458682457109154,0.0295484106030726,0.0087772270360337
-0.0123193810335349,0.0570721304374623,0.0382175703125432,0.00944722962241388
-0.0335363682034512,0.0646555169196485,0.0464108448344016,0.00915377542331491
-0.0334597540628483,0.0634658423058361,0.0467289805845123,0.00806603388801561
-0.0248002411296353,0.0624927259946607,0.0426554398727772,0.00579846530394129
-0.0279121166018972,0.0687224519497985,0.0450933705269061,0.00211592586676108
-0.0394635960491861,0.0745820197743954,0.0527157423770338,-0.00145271654429051
-0.0400875307753924,0.0724861904107496,0.056411465735896,-0.00226221619903697
-0.0305019573587781,0.0709160446836531,0.0562135195922915,0.0010958712377639
-0.0241797932547634,0.0769601651272962,0.0549473254004526,0.00758899345845225
-0.0243826329454383,0.080908091834507,0.0489289525726916,0.0146147632984552
-0.0261160604942224,0.0720749885979569,0.0403580856373384,0.0199927578552452
-0.0245274299036533,0.052799350613011,0.0279280556971525,0.0232989197576714
-0.0175543361968216,0.0306621485780364,0.00996071277812596,0.0246216173150127
-0.012946061815952,0.0120071210794513,0.00606539789480532,0.02340956875547
-0.0224789442147395,0.0107049426964752,0.0262706829411318,0.0193058435962926
-0.0341782119736592,0.0328617810186605,0.0437565144270969,0.0128613746746329
-0.0356821732933591,0.0537175928447374,0.0387489547490009,0.00500092671248992
-0.0355420856237786,0.0484378770160968,0.0242297862665072,-0.00383490540028423
-0.0334622622353672,0.0308636045028925,0.0165358639557133,-0.01191365199507
-0.027204947544661,0.0221685849677772,0.0155517868037025,-0.0160486020182304
-0.021181581337219,0.0181805293886991,0.0143204392786898,-0.0159022769529323
-0.0157125654331525,0.0125937008314665,0.0103767117255254,-0.0140619192173164
-0.0100475874458538,0.00920355042177437,0.0075208579379118,-0.012054796223769
-0.00755522823416696,0.00549760203301443,0.00597905480209827,-0.0100878672440194
-0.00553829041825499,-0.00497391575573717,-0.00399698350194709,-0.00867860512741966
0.00273063248004931,-0.019825753552573,-0.0216701100477988,-0.00834645524737214
0.00758855156780242,-0.0259353243588486,-0.0309593390167414,-0.00879535926259781
-0.00214978332273883,-0.018238818696551,-0.0248434083594088,-0.00876651421362968
-0.0163675863193254,-0.0101165339160317,-0.011631880128644,-0.00617633594122547
-0.022980043628516,-0.00729855282303714,-0.00150719978456373,0.000386828727311654
-0.0270027203986189,-0.00348814952725268,0.00376558269724776,0.00890655166664118
-0.0314007969026768,-0.00253802329874737,0.00783144009336923,0.014996673913817
-0.0371530122456972,-0.00847772385319751,0.00835726236842223,0.0160750177967749
-0.0476851407720722,-0.0115354876774191,0.00361476691758915,0.0122913334796777
-0.0562138707352632,-0.0053093431455644,0.0026910643878884,0.00557637093241854
-0.0478887460416249,0.00507854314000767,0.00812564146630525,-0.000719981420936669
-0.013641435162793,0.012215742187198,0.00915274223587236,-0.00404642094476236
0.0289154376998641,0.0141145897932336,0.00962254110610034,-0.00464765099692328
0.0545908017343696,0.0124707951899621,0.0188092875650326,-0.00352987455017257
0.0586374283908642,0.0107822503829857,0.032321735977562,-0.00114181097413135
0.0420701205326334,0.0116363662923718,0.0423435020027257,0.00128751723597419
0.0153203159735904,0.0128869642068171,0.0434691243434895,0.00225331280405679
0.000907019375072989,0.0120489982597661,0.038314190813732,0.00138466324759151
0.00696345262404303,0.0109732608529751,0.0341953841911769,-0.000646153332856798
0.0153545126159996,0.0111442754737826,0.0338311671788669,-0.00245452194790451
0.00871338426455289,0.0111411154594371,0.0338876633219972,-0.00323192772157701
-0.00523223312766031,0.00706455777041037,0.0290835390036913,-0.00369185290918278
-0.00975532069506718,-0.000621562469254454,0.0211766924124124,-0.0043857472036782
-0.00329156206502779,-0.00362979589940977,0.0168501867554789,-0.00472879839481823
0.00315231981775218,0.00108343639368881,0.0169559778199231,-0.00416997951105743
0.00281971014655532,0.00663502635093566,0.0192034365989425,-0.00268413699864407
-0.00159007586552945,0.00621213020442975,0.0176952107112284,-0.000512772424264139
-0.00472485069215525,0.000342501027862275,0.00709849853269948,0.001724402552133
-0.00521031579829381,-0.0104293636913109,-0.0021907839133759,0.00372320625820387
-0.00180168019652179,-0.0169713972592788,0.00485062258715617,0.00563675212782465
0.00672317622018627,0.00214433212931607,0.0303845348018107,0.00740113164313947
0.0176740858718773,0.031228172806119,0.0569234207474965,0.00873885523205237
0.0215776386670903,0.0300075567445519,0.0638478665810766,0.00872342812265264
0.0162829534634709,0.00753391411603592,0.0522888062891078,0.00654767347631301
0.0132353688003062,-0.00653631706212046,0.0289842468351551,0.00297544758464341
0.0183823676521968,-0.00659342299671782,0.0054578557567106,-0.000529832547145717
0.0271162308188821,0.0027175807800757,-0.00838544780954662,-0.00283564868022023
0.0308113258242532,0.0110305484657942,-0.0191232160323497,-0.00355743082093604
0.0273861295769482,0.0139404907315388,-0.0232404110023503,-0.0031038509107818
0.0235798385213038,0.0214715569125228,-0.0068376896074277,-0.00122952635098052
0.02144739935946,0.0316266663629017,0.0157943588711483,0.00297377561090104
0.0201847626094243,0.033872248049954,0.0159085434515995,0.00820658034703885
0.0222732817141593,0.032065961433831,-0.00273137939028113,0.010987141507162
0.0255436206728873,0.0282780691670132,-0.0233527856941172,0.00927995045859977
0.022324878291049,0.0191291117077255,-0.0428437393779423,0.00427972674394007
0.0122060992533121,0.00650163421954349,-0.054323631680886,-0.00118816826546043
0.00618524288478585,-0.0015253126738213,-0.0515294234564234,-0.00534963433819748
0.00969022521564069,-0.000373049774312087,-0.0426994629604067,-0.00770876499074903
0.0165106980543029,0.00638600911282897,-0.041421787557122,-0.0078503035208224
0.018743504894339,0.0160340142515757,-0.0492945241443471,-0.00625531469157043
0.0132935579058197,0.0219961318356175,-0.0522634821605562,-0.00472455753416688
0.00658938473692519,0.0163812622975918,-0.0490158152745056,-0.00461642070807473
0.00560824742223605,0.00180590050243382,-0.0494401296206993,-0.00591649275387219
0.00837973256499268,-0.0182403684572059,-0.0537446771473071,-0.0075674469914283
0.0108388999016571,-0.039763982872687,-0.0582276587786666,-0.00847453286736914
0.0100293237674916,-0.0519441446363722,-0.0595311645120074,-0.00856370975839476
0.00685803594645039,-0.0542264300473684,-0.0569146270287572,-0.00822421196956321
0.00578159107164569,-0.0594784038824599,-0.0539106699920574,-0.00747549295523292
0.0065729859526364,-0.0629231781571081,-0.0592617693521352,-0.00625679706152998
0.00577732644818711,-0.0449450164810594,-0.0774992642226855,-0.0046502543050056
0.00380897623221715,-0.0145513577375919,-0.0982279993084227,-0.00298020788082305
0.00493212597058892,0.00556310776089865,-0.104779626331563,-0.00181755974751866
0.00959182032518931,0.0171535693664666,-0.0930623287817404,-0.00117935850939949
0.0110085610657469,0.0271965895472689,-0.0829964966233675,-0.000449949309661109
0.00603486396587036,0.0304401106773811,-0.0853627820660723,0.00072593608856926
-0.000654302284993942,0.0329495129826705,-0.0757976469683714,0.00212765705986644
-0.00707085248352721,0.040593114513983,-0.0463734990358074,0.00327120600795654
-0.0108614533006489,0.0240471641034194,-0.0278388684524942,0.0038425941860044
-0.00689081481393375,-0.0328186362295463,-0.0312107090420353,0.00387775059526939
-0.00577067924883025,-0.0925194402797892,-0.0294504170290226,0.00379969582634575
-0.014770499946146,-0.110499729800542,-0.0145427628901811,0.00349635898320477
-0.0227192740839306,-0.0799261793909565,-0.0103736287710352,0.0018170613080729
-0.0277100859483025,-0.0409793947620753,-0.0265846648842097,-0.00171613833150148
-0.0250640849009836,-0.0386300649984155,-0.0553189232643247,-0.00593789773164896
-0.010360187543477,-0.0590591610982697,-0.0790471112984095,-0.00923725741065985
-0.00175086698789303,-0.0636015471693653,-0.0777799792938751,-0.0104771766175969
-0.00877478985169129,-0.0583919988429314,-0.0593093274275539,-0.00916663627042273
-0.0168183553355738,-0.0601872778456424,-0.0460550848081671,-0.00569439873182504
-0.0164311348926628,-0.0632559237926857,-0.0416261390869974,-0.000802382470075747
-0.00967003778439476,-0.0602303242497757,-0.0382359129647903,0.00495222029772129
-0.000238281888530478,-0.0508751047399903,-0.0311292833683725,0.010536536455537
0.00427159440323569,-0.0383683217107233,-0.0193189343282503,0.0142812558127084
0.00356103580676272,-0.0210291641879411,-0.00862605285574278,0.0152445914983878
0.00409325663022459,0.00678740122237925,-0.00204521162706933,0.0137038088733718
0.000982424851983695,0.0439566151645058,0.00550825869741655,0.0108110291696083
-0.0119740801224158,0.0684162203830675,0.0101321364958781,0.00792283786791752
-0.0204018603385688,0.0596064916214723,0.00509683381356654,0.00502430580501443
-0.00557777028281503,0.0293582861261762,-0.00287857426900542,0.00145148580277222
0.0181663939023163,-0.00378232098552896,-0.00192542739547863,-0.00242667101316927
0.0241942904098962,-0.0327562997693552,0.0085988059565809,-0.00554810368292209
0.0130968899953525,-0.0507700697270441,0.0179019153931931,-0.00654394442167008
-0.00075996933400066,-0.0539154736581175,0.020144875473422,-0.00433299299426678
-0.0102989539714944,-0.0494871720174979,0.0144003003732225,1.07853438938866e-05
-0.0164740865052257,-0.0457541859715606,0.00273505983027383,0.00322707369405197
-0.0152035781511699,-0.0377827447645942,-0.00298605807855437,0.00384980866999939
-0.00425647619408201,-0.0163626036869216,0.00579662279162584,0.00419374816212117
0.00653561802557702,0.0126686873540224,0.0195275432492938,0.00623380659943958
0.0119559022043985,0.0292434953539654,0.0239791614418665,0.00831373478048621
0.0138563858403062,0.0251498014484873,0.0196774605943653,0.00749545605365393
0.0138587979340154,0.00866636320546044,0.014303065447936,0.0036259633534511
0.0144681656476178,-0.0096657829676182,0.0105740980577803,-0.000445508657556354
0.0184914803205636,-0.0223776682753952,0.00858799880127498,-0.00265977806047659
0.0270778098419974,-0.0326243072204231,0.0058296885683921,-0.00329793851886134
0.0306466310987594,-0.0460804276615704,-0.00273585675709659,-0.00337208289020624
0.022483353500914,-0.0584673482892244,-0.0169573208428468,-0.0040470937487555
0.0148701030324068,-0.0677909496667827,-0.0282903284308339,-0.00591890512503266
0.0133923813420252,-0.0774164307355173,-0.0283571359634429,-0.00771052729166521
0.0113292137274842,-0.0855595794414616,-0.0209317978783785,-0.00760570650839698
0.00843715724757938,-0.0846304690956701,-0.0140808837495281,-0.00530108307960047
0.00907129971350655,-0.0695684642469822,-0.00661602154084835,-0.00182256573443163
0.0105207176416484,-0.0424879281340643,0.00422771153920163,0.000956799659372186
0.000227660176094702,-0.00418972029032677,0.0190280983326439,0.00129512389629445
-0.0263560557376473,0.0499078975422685,0.0371130335278514,-0.000761503190178665
-0.0450374256301384,0.114643571838065,0.051727030640435,-0.00324985167278572
-0.0305522422490253,0.163092789732646,0.054971113939843,-0.00388737704367249
0.0011803066873937,0.183481001161316,0.049923404105362,-0.00225363031274387
0.0221586743598869,0.179650080452085,0.0421349611663766,0.000738598581245245
0.0322664993649119,0.135122358571776,0.0295930844836633,0.00450109177757449
0.0321690315532708,0.0569049421432291,0.0165687905574495,0.00770148914940148
0.0154201222243909,-0.0127521746132443,0.0092032786187664,0.0086364285873641
-0.00571886452857341,-0.0511055165908415,0.00146376965181432,0.00792699231357284
-0.0153825304006437,-0.0661731810273819,-0.00832117251015526,0.00783960571227998
-0.0129877111271373,-0.0741956504306554,-0.0133625934934287,0.00860278084570928
-0.00527975106701849,-0.0801288535384794,-0.010010489493888,0.00764365606403339
0.000920534014721877,-0.0753053925261542,0.00407858638188838,0.00334237989892432
0.00283069809997192,-0.0535846832878792,0.0199628830393496,-0.00239854316661149
0.0049319363852588,-0.0289123409943202,0.0228664914818867,-0.00695062747638144
0.0121360612332005,-0.0186467584993171,0.0171363333871066,-0.00985152460642829
0.0212488185088896,-0.0187946802941389,0.0140032467234646,-0.0118223476361452
0.0235268043455859,-0.0160694414494858,0.0139146529934531,-0.0132719855032351
0.0160711018472741,-0.0051675541892328,0.0127312058480583,-0.0139580008449548
0.00613008264921571,0.00876068344957766,0.00565168058927124,-0.0135580163120996
-0.0015101749723597,0.0239891736623264,0.000503530662367113,-0.012318601518436
-0.00841156525969963,0.0412587315747571,0.00755652222371466,-0.00997381355235785
-0.0129280725986748,0.0508915729350417,0.0175879326254269,-0.00555102400088768
-0.0145110775239677,0.049845012686842,0.0198030174935685,0.00029945846089563
-0.0147367036521262,0.0465992915398191,0.0178642278454001,0.00520534945967316
-0.0134279996788518,0.0436382970485444,0.0185788670225171,0.00746639852717704
-0.0154513796988761,0.037556086204286,0.0201318774856766,0.00715601138723657
-0.0221988779645934,0.0299145140060844,0.0192197189569419,0.00554226318920802
-0.0255555649598418,0.0254976966236787,0.0178183441179739,0.00352453515056711
-0.0212131289385328,0.022696753502,0.0173915778207195,0.00107867630814279
-0.0111391392797564,0.0235824954451101,0.020804210321986,-0.00129600377976126
-0.00345417923739881,0.0318277236319041,0.0298184060085339,-0.00223377515309104
-0.00331196778708383,0.0366420271527561,0.0345590601395364,-0.00142772529701306
-0.0043670015731281,0.0301128937188593,0.0289628464919166,-0.000346472604146399
-0.00281697782048322,0.0202664746113529,0.0200209734366121,-0.000564398644998353
0.00211594589947772,0.0147732636205191,0.0147484097611551,-0.00219464974922054
0.00831127571626351,0.0108711625608749,0.014117327205949,-0.00436906029764948
0.0126254800929644,0.00385736746587107,0.011654873064324,-0.00657339242500041
0.0161372342450349,-0.00117420502808861,0.0059735035110602,-0.00871655479681373
0.0152594404755748,0.00247081924269928,0.00428135516231407,-0.0106979960173862
0.011066299249197,0.00668181783353352,0.00729342904983953,-0.0122243692206268
0.0107364357143376,0.00419087547792357,0.0115319407319006,-0.0129035384154386
0.0127640989229019,0.00293910298805957,0.0154130733418407,-0.0127012508864936
0.0123615199100235,0.00743243546695606,0.0179978691052951,-0.012032374195736
0.0112593896583183,0.00738794021053245,0.0192779250956238,-0.0113612400118189
0.0122577217284728,-0.00130275343186083,0.0179682972124106,-0.0104263873127583
0.0122920239653683,-0.00719073728724378,0.0145991400825313,-0.00767663857735489
0.00817183072167533,-0.00675059341519571,0.0127079769139447,-0.00241803948978483
0.0040719185764448,-0.00773233026234574,0.00923154306135736,0.00308389983621177
0.00464813581243234,-0.00943336116450737,0.00386667661937909,0.0062374308300542
0.00596244421538572,-0.0073906045063026,0.00197791756706535,0.00702810156950586
0.00534283493412839,-0.0087899384113217,-0.00104487744063253,0.00754932922933444
0.00665808089913076,-0.0201284357655208,0.000392692717690745,0.00992671340623867
0.00770244490082177,-0.037906933044494,0.0124325486252897,0.0134446089681437
0.00386830917984274,-0.05701171532682,0.0179274498825184,0.0153130016209182
0.000523878409759057,-0.0664767995464574,0.00948191918677092,0.0153589129230129
0.00244981005839773,-0.0580037352109323,-0.000295191784641985,0.0156221939740662
0.00408610887509681,-0.0530028058101121,0.000562665045021561,0.0159576130263008
0.00392961884961545,-0.0663239612013805,0.00552139331139784,0.0142233128347073
0.00186923194070278,-0.066610062129366,0.00624963053098997,0.00967820985746886
-0.00625583013904318,-0.0342737198322737,0.0112656341299143,0.00375824493343296
-0.0101058837042044,-0.00145526346262023,0.0194954899016586,-0.00204900236218247
0.00183265411597756,0.00484618915302762,0.0236369348325061,-0.00721359035847267
0.0211947732545515,0.00466070752422415,0.0260792379028639,-0.011213081187352
0.0360857396878172,0.0235284445744562,0.0317432803028997,-0.0136040134969032
0.0403658753999306,0.0667455470052054,0.041081513127879,-0.0146313267587317
0.0335015632721442,0.117772357903752,0.0449657408775539,-0.0146019798466805
0.0266488620873663,0.127887111115591,0.0356063094588399,-0.0136768010028288
0.0283257287784416,0.0779904224109403,0.019705099859313,-0.0117279237996749
0.0301763913715517,0.0168559101002522,0.00999308933726141,-0.00775671443502411
0.012881346948361,-0.01203493827958,0.0095212433873758,-0.000878678878389706
-0.0321219755538049,-0.01782522247775,0.00847503149414826,0.00771110407821312
-0.0729343788611495,-0.0227005032553574,-0.00328197434531761,0.0142545641817614
-0.068373297933113,-0.0305676498983515,-0.0222022651534949,0.0154191990683244
-0.0307767216102785,-0.0404928085080841,-0.0311853797558358,0.0126334412703257
-0.00138311212052888,-0.0469147705580968,-0.0204718916841806,0.0113379501717755
0.00797445751539541,-0.0415739204755653,-0.00670732286799689,0.0134815629942706
0.00711485488801833,-0.0298724404070882,-0.00949691453207464,0.0149694862353255
0.00742704757205948,-0.0212464116816638,-0.0242742447113785,0.0125955536812331
0.0140282624110918,-0.0125288611174274,-0.0260598814824546,0.00746655164742717
0.0206735953671709,0.00363726434922561,-0.00310679867664631,0.0026876557277042
0.0222877291875435,0.0188988529307014,0.0187748544741557,0.00117591479780031
0.0181250902254423,0.0178203362391286,0.0185139929056689,0.00259693752924199
0.0101194815673843,0.0104037047556414,0.00826079586652675,0.00274835266469574
0.00241920861122398,0.0165729514941927,0.00396279711437969,-0.00140779865382375
-0.00310369079074365,0.0382188182178537,0.0135202500402579,-0.00854064117194771
-0.00804263109115384,0.0600377130765471,0.0275341243852267,-0.0150925508999995
-0.00961813623846583,0.0623497191763252,0.0228073595936657,-0.0191950277216438
-0.00564039443404495,0.0482906339176062,0.00926575432971174,-0.0217913760174161
-0.00204563518587714,0.0357558046008825,0.0104870445458733,-0.023427752540597
-0.00671006479381137,0.0323217643580436,0.017669585840608,-0.0226774922629912
-0.0201056960326103,0.0296213252836131,0.0192841847419373,-0.0189807801727346
-0.0297477316068286,0.0229058910860379,0.0167624114424314,-0.0143310299824148
-0.0275257958620936,0.0208961028800842,0.00883733301169623,-0.0106054049069634
-0.0207289397062979,0.0237576588315015,-0.00203038393840218,-0.00762102106886022
-0.0164577712820955,0.0263356870473607,-0.0103506884399117,-0.0041861638713199
-0.0146948291057533,0.0290846961589531,-0.0147268293663962,8.37329382818788e-05
-0.0137607076065132,0.0302759230727141,-0.0153662127072428,0.00411998285475941
-0.0137547967663029,0.025783358509596,-0.0131638182930964,0.00699173469949041
-0.0131555997111679,0.0166380171493937,-0.00767296186295218,0.00883723753551375
-0.00937121143998576,0.00932231973960129,0.000442811608099368,0.0102063364493497
-0.00691114023570378,0.0069783930994685,0.00657295744811349,0.0113319115483458
-0.00705698970824884,0.00836155244042768,0.0104221273442704,0.0118502724296357
-0.00653177439331636,0.0107469118233327,0.0152422122608934,0.011665330563883
-0.00589744717184324,0.0104621984107986,0.0188016464300864,0.011121349921722
-0.00514367325350303,0.00833659000761345,0.0184804139046048,0.0101385302327004
-0.00501363998006174,0.0057076927871087,0.0160584248184798,0.00856999139443847
-0.0082652820543006,0.00202914277690918,0.0133070302300545,0.00683706796072325
-0.0117496658785538,-0.0012321395264304,0.00895544123820816,0.0055366582426306
-0.00830617124441411,0.00151213769199852,0.00383625982490308,0.00497470448968268
-0.000456757371595409,0.0108036403064636,0.00179051517276997,0.00534720974042015
0.00259586292122755,0.0123193702775872,0.00041786584111168,0.00626135446308035
-0.00109645027595411,0.00286302694918221,-0.00186913481259798,0.00664952347157276
-0.00676521980102042,-0.00383003642539899,-0.0012733373925392,0.00660927306708017
-0.0117468079267182,-0.00683201187351091,-0.000207198689085562,0.00732506538496685
-0.0155902658727262,-0.0140294852700192,-0.00444032933875567,0.00878813141135652
-0.0105034283999857,-0.0269377759995765,-0.017911834060075,0.010058128540669
0.00365813007864953,-0.0401931298917894,-0.0303984977438747,0.0110928207969323
0.00573919171222711,-0.0421891838454066,-0.0169036716989879,0.0123448043257016
-0.00923115734974552,-0.0276980074641586,0.0218954177792422,0.0137374517621212
-0.0219654866738234,-0.00368244994215883,0.0578672696144629,0.0139778661532959
-0.0226589526497255,0.0102530668447391,0.0654357739779189,0.0114133846921097
-0.0140753342652547,-0.00259957562289793,0.0378143749937986,0.00676452379821154
-0.00492313397080775,-0.0180629764486268,0.00415985215751738,0.00228588320207019
-0.00213502879762494,-0.0105392390462079,-0.00385654834953498,-0.000839503234810718
0.00365786014179274,0.00542992306211107,0.00823327595046977,-0.00167533963277108
0.0156597102871241,0.0195772732365036,0.0216983959886256,0.000915206549272619
0.0158605822609118,0.0342196971419852,0.0300791865961354,0.00591985195276128
-0.000748905520031429,0.0528432944239941,0.032251731562998,0.010230025360308
-0.0167343016470336,0.0749234053919,0.0278018534385832,0.0120215016055326
-0.0185460124436674,0.090077261875729,0.0196994496776624,0.0116650627478839
-0.012241573968841,0.0979352941267863,0.0111555725169873,0.010019417315428
-0.0130645949627395,0.102993877777499,0.00557078318459113,0.00806790527377459
-0.0229662399397262,0.0932680320170169,0.00119447594303705,0.00662887500719216
-0.0298505107797948,0.0530967225779444,-0.00843070699743528,0.00552473997937653
-0.022533766294257,-0.00629557856021012,-0.0266261377990322,0.00379143925759347
-0.00209476169732277,-0.0616805478411629,-0.0487051912306383,0.000857536338278587
0.0161189153413545,-0.1122658600796,-0.0581388495366277,-0.00262834128721006
0.0207264938565258,-0.164066421917541,-0.0376589648209655,-0.00542949197104723
0.0140451710458164,-0.204022227185087,0.00999497108474826,-0.00671357092598636
0.00724077862284007,-0.202233668982704,0.0488354648101559,-0.00624094818431543
0.0112987251145223,-0.141824284803418,0.0449271287487339,-0.00427433422969208
0.0254181671807099,-0.0511687926683776,0.00844279271506566,-0.00210244208438523
0.0374824361072606,0.0223858933741268,-0.03374745491349,-0.00161716194588903
0.0332868259359026,0.0604454016564554,-0.0708679165603129,-0.00395892009921882
0.0143663594777171,0.0688964277831626,-0.095731529657198,-0.00911349470868035
-0.00491892131459662,0.0636036156649149,-0.0954928810307847,-0.0153433782584523
-0.0126447030904273,0.0648540543822898,-0.0599864492063505,-0.0195750262338465
-0.00152278058198638,0.0758302091491172,0.00124000252567737,-0.0191527012266018
0.0166695749138512,0.0823836221728997,0.0500528540411434,-0.0131453157055202
0.0182688348988105,0.0652150844015885,0.0620170449170987,-0.00424614029258841
-0.000270034115058312,0.0284630527596876,0.0493668309079098,0.00191832355758573
-0.019597998497472,0.00597241173448623,0.0275155210108304,0.00201063777005135
-0.0253241537868424,-0.00101505005605097,0.00705590016310465,-0.00213041253703597
-0.0219680963350595,-0.0259681023343212,0.00106398484488887,-0.00656686474165789
-0.0113392222922932,-0.0635694350620945,0.00519014009574219,-0.0090575997267455
0.00827608778510815,-0.0773234007145677,-0.00392008633090732,-0.0095556335261852
0.0217577377874817,-0.0641777905127288,-0.0283252125560868,-0.00917197034113292
0.0185365661708574,-0.0460569515150086,-0.0454062209825271,-0.0086152278016183
0.0118864205124082,-0.0346242768967965,-0.0479641519789249,-0.00754818509596468
0.011259366221779,-0.0317007820074131,-0.045325724541081,-0.00597604731746141
0.0139562368307609,-0.0312962135800699,-0.0399718373548444,-0.00447298217880606
0.0187477881692856,-0.0276141019965142,-0.0324360230559458,-0.00322118451574582
0.0232451776999463,-0.022101425417696,-0.0258801927838112,-0.00210786059122927
0.0233418303579453,-0.0160175924570324,-0.0213892932179621,-0.00108663206580771
0.0184216802585834,-0.0116219161433729,-0.020448029663377,-0.000407296320180281
0.0120499101549412,-0.0106125410581651,-0.0215918734032502,-0.000349580200011769
0.00927116465241238,-0.00902080989564241,-0.0205374004143634,-0.000521878488623962
0.00982068598987152,-0.00602116796615293,-0.0169595407245297,-0.000339283184453968
0.00828210641174668,-0.00529130639245936,-0.0124216258948581,0.000167646784779991
0.00435118839138314,-0.00783227280835785,-0.0090543451303982,0.000681737812372369
0.00203210686998121,-0.0103704857185249,-0.00772967919274329,0.000862923239544859
0.000662526100044556,-0.0101295513690286,-0.00614520329902279,0.000313850764426657
-0.00161824756999336,-0.0088747164802031,-0.0048156823153068,-0.000792170188145112
-0.0028093674355003,-0.00703329278668993,-0.00459668795160497,-0.00171878935561343
-0.00405418301403703,-0.00418583296684236,-0.00397056426256059,-0.00185992425886634
-0.00749427105383009,-0.00213063973721181,-0.00380451530293644,-0.00114361442844971
-0.0102571917062898,-0.000530582173249049,-0.00438024674097674,-2.87540906852412e-06
-0.00934151878103355,0.00118695098267015,-0.00400591576161944,0.00103003735941964
-0.00641496913523564,0.00204075246320264,-0.00339485279883062,0.00176305541207751
-0.00396206898274072,0.00337942990536655,-0.00257130345193813,0.00248000792818434
-0.00235334347965596,0.00551550251564444,-0.000862707227715458,0.00321530791848921
-0.000966130614501582,0.00711084138090642,0.00129283469139561,0.00367998554157944
0.000186352993444314,0.00850477039585875,0.00324871961573354,0.00375388224764903
0.000198280992205301,0.00886638385642648,0.00423004309410819,0.00323085379072893
-0.000282587237987188,0.00791304296492531,0.00478885271559469,0.0020023241417973
-0.00163121069322203,0.00806170117207945,0.00493417091795461,0.000569808687813197
-0.0039164419633391,0.00953521408184426,0.00405442885853128,-0.000497768347113272
-0.00516394462501062,0.0100126090896032,0.0028579077070808,-0.00107782503669527
-0.00616028223587649,0.0083577769657171,0.00112960668439842,-0.00134460288771121
-0.00644964157934732,0.00684134633128268,-0.000220849816834252,-0.00155055805728136
-0.00598509473124967,0.00754527036267462,-0.00014809599838413,-0.00177886346576828
-0.00615857890470722,0.0073854644889397,-0.000442272624890952,-0.00208140226060505
-0.00537603035446254,0.00498306658362035,-0.00200329227359294,-0.0024416978340886
-0.00583834823105377,0.00419418958977151,-0.00431608320919467,-0.00252129332902999
-0.00813636060627229,0.00425518510299946,-0.00575275408401733,-0.00196623557906797
-0.00806131181939596,0.00300892988309611,-0.00534952714248867,-0.000946326645220786
-0.00642047751483109,0.00220595305024627,-0.00547083649320185,-0.000105163895130424
-0.00518976899261168,0.0025819602279222,-0.00565037333564964,0.000268296796277537
-0.00412612260559088,0.00422207001883797,-0.00307151914026705,0.00051600563742926
-0.0020585927483218,0.00601166379825421,0.00157505215680739,0.000884957249082242
0.00028030091262558,0.00637996326458035,0.00648506654413464,0.00123840125732447
0.000485142029683836,0.0070166776381275,0.00905324436784591,0.00138944737105779
0.00152890538144698,0.00895832243998661,0.00914426957989893,0.00124323373199709
0.00358826551643724,0.00731577741987547,0.00964403069253705,0.00114447875241908
0.00317928702995093,0.00250961977080925,0.0113148291111217,0.00194443540067716
0.00165549091208697,0.0012105552747154,0.0135520149423659,0.00329634200322945
0.00200775158335988,0.0072221211018107,0.0171294392829296,0.00333909219220811
0.0046922442388946,0.0221355283131322,0.0228378575380084,0.0016872236947332
0.00526484322279205,0.0352125929419002,0.0301512721220862,0.000338905008248064
-0.00109986941424051,0.0369012945435196,0.0353491582453858,0.000838691745941029
-0.00742769113334581,0.0377480181051796,0.0321966023899013,0.00202068413363106
-0.00255089823383324,0.044881497248072,0.0271451817402934,0.00128884009016044
0.00913755222160365,0.051409672094309,0.028496018960454,-0.00203723502698167
0.0157558534225895,0.0504034641224903,0.0251739581165049,-0.00554430406396353
0.0175547147907325,0.0403453261820067,0.00979910757784397,-0.00617169957092435
0.0242987209074554,0.0183627618463733,-0.0101429765166318,-0.00369486426298404
0.0363429256465651,-0.0209225741039591,-0.0209047565407165,-0.00147744217598928
0.0432612463595608,-0.0790156294976133,-0.019417084462221,-0.00241839962553278
0.0414074289775966,-0.144584014439184,-0.0130037793207393,-0.005288024617265
0.0346847763354675,-0.179048162175626,-0.00620785244100151,-0.00707412705928078
0.0173665108900305,-0.152707064768038,-0.00719307023165099,-0.00695927514384581
-0.0240885388736552,-0.0852409013144966,-0.00793924018574806,-0.00632966059966096
-0.0795010626267074,-0.00545939184391339,0.00655029605779582,-0.00588860472296232
-0.11146188319458,0.0613832372684698,0.0257557257629546,-0.00488115001473994
-0.0915734104214447,0.0861565280549313,0.0286050843596831,-0.00315930463374679
-0.030383957846688,0.0619108855189855,0.0118617301519478,-0.00164168543134332
0.0262756174278032,0.00637558754665104,-0.00525993876547626,-0.000591639805178894
0.0428037223083327,-0.0423923217287644,-0.00648985011586953,0.00110931372433181
0.0292663727209383,-0.0679798806401695,-0.00140246813351445,0.00431915470989411
0.0156697875932377,-0.0916572304609173,-0.000432389625898044,0.00724013440982968
0.0111086703190567,-0.114813940503077,0.0034130296964421,0.00692366872374741
0.0129008331338991,-0.107455325256065,0.0133705494299024,0.00332315459628411
0.0180858579010492,-0.0541564601846047,0.0199604110641055,-0.000802463992637978
0.0179242847942339,0.00448160603273465,0.013050458575059,-0.00274972289544404
0.0155979020204369,0.0132396255891169,-0.00220752757002111,-0.0019856801051423
0.0189554858596961,-0.0161141628090087,-0.0144003938434872,-0.000689075863882089
0.0148039547316322,-0.0304262056406404,-0.0207929766297893,-0.00145471234619497
-0.00390936831612354,-0.00861332602763564,-0.0217595386267336,-0.0050152643469688
-0.0162373633041476,0.0291883378155011,-0.0186952478646681,-0.0103764369856308
-0.007223047183751,0.0559124176835565,-0.0135530914401109,-0.0154899213321259
0.0104629222633052,0.0574952659819484,-0.00908321940024278,-0.0181220656088266
0.0132231135969608,0.0394679118665277,-0.0100483733116924,-0.0170515118488246
-0.00477411125289583,0.0180498180244787,-0.016762206709045,-0.0126797347744124
-0.0236689463831359,-0.00468991451546047,-0.0249486967139294,-0.00696019582780057
-0.0296201135325075,-0.0284820728036398,-0.0266712357549631,-0.00200956804492334
-0.0273527130760205,-0.0436657838142825,-0.0162683494185406,0.00184988381297144
-0.0199030208992379,-0.0511995438683436,-0.00477993268055898,0.00502903727677302
-0.00736268701663764,-0.0569396180135635,-0.00648173168734644,0.00641425316970312
0.00307624734360287,-0.0545171752948874,-0.0134075161443124,0.00497728082594064
0.00502781808503752,-0.0408882180086921,-0.0120335800770893,0.00200727618465452
0.00114953112638434,-0.0253536776627184,-0.00637722289485646,-0.000335129101621461
-0.00411612419479023,-0.0140000506853506,-0.0040902550924035,-0.0012781309802657
-0.00801917260756707,-0.00429160452952897,-0.00457900618411321,-0.00127617411169475
-0.0101356827098644,0.00767076735076754,-0.00578117336217023,-0.000622448106329125
-0.00947392143705764,0.0245150382563055,-0.00725405848918691,0.000621476870529294
-0.00571971007876293,0.041276351220636,-0.00980600215143178,0.00197748937503079
-0.00192327633846776,0.0479880884002103,-0.0125114072387976,0.0028519091095884
-0.00332311759946964,0.0478768285824802,-0.0130200538542713,0.00307058331532051
-0.0128897630116688,0.052396787590551,-0.0104042542938299,0.00276908080342085
-0.021321980234634,0.0616172918224803,-0.00376902002761736,0.0024148084016951
-0.0166074470414074,0.0654338693273992,0.00206177132441133,0.00259262137625103
-0.00192198220526286,0.059790995272941,0.00222613074546829,0.00323351705142401
0.00934711008405519,0.0524349775788031,0.000519021116395849,0.00383269066113068
0.0117682897497224,0.050081617684613,-0.0003226682844432,0.00406212693491843
0.00991258678443148,0.0510146928868053,0.00128226384166478,0.00396936819531521
0.00516630898291845,0.0501527435046361,0.00621977138091698,0.00398627818777384
8.57375676595554e-05,0.0464902558074239,0.0097639223819116,0.00433351750512003
-0.00147644407401298,0.0433536708816222,0.0088646347638327,0.00504311595370536
-0.00410660089375575,0.0405946432178483,0.00560699611453091,0.00608181556703717
-0.00792627044034197,0.0366408317488779,0.0028030132371357,0.00687365060190924
-0.00695828373266145,0.0309302554887301,0.00174421339360406,0.00694954190949448
-0.00293406698953021,0.0245532573306344,0.000518393292374826,0.00650582082792569
-0.00195742012685298,0.0200876336623968,-0.0021405557644637,0.00595088857041884
-0.00517829622056416,0.0176011696680222,-0.00408249860075181,0.00552348156813998
-0.00889959997823469,0.015377295347127,-0.00513883424985624,0.00529657160965614
-0.00948853056047388,0.0129909726481188,-0.00458076308625484,0.00534627855563615
-0.00800472082656627,0.0119473935930256,-0.00201782480857609,0.00559236264585778
-0.00617397856610832,0.0134930589683775,0.001219838788294,0.00588313510632831
-0.00498198649507591,0.0150719772655261,0.0049734781318861,0.00628186800862679
-0.00526627591523885,0.0134139359849983,0.00752898490227503,0.0066121735286744
-0.00541996023803877,0.0100267938576706,0.0082195731096762,0.00645136727434124
-0.00458756950007566,0.0085026459567369,0.00932705410983051,0.00589934144977712
-0.00285845200379052,0.00774977475059383,0.0111701582111236,0.00525329187097965
-0.000629774990420948,0.00588022331821838,0.0117433748940759,0.00460286334155221
-0.000301271733051158,0.00357675219814129,0.0104024700698309,0.0041505085534357
-0.00135043261000092,0.00149241088086121,0.00857424997029845,0.0040103944038573
-0.00240455330981902,-0.00046602342268085,0.00613582114460421,0.0039283643719996
-0.00340444512888096,-0.00370838048192949,0.00224279519137706,0.00362111080325611
-0.00323215366510134,-0.00356966286247807,-0.00063251161127599,0.00299624054293417
-0.00216374895631976,0.00193085705133546,-0.00128911431667199,0.00223675949206842
-0.00307220210553418,0.00343793590554121,-0.000917084444033811,0.00171767713915286
-0.00699649914850997,0.00184489789202556,0.00233974613895747,0.0014615526398111
-0.00959446201807686,0.00406003763687335,0.00860320967361984,0.00161321274792461
-0.00977845366808381,0.00632393179808168,0.0137227054520239,0.00308197984619375
-0.00615105364560548,0.00559356215049616,0.0164642605500908,0.00677102595231976
-0.000969403055821686,0.00375714012929449,0.0179406191112517,0.0121562847750504
-0.000540125955338859,-0.000576281286887111,0.019940323981913,0.0169836038767274
0.00105256421426544,-0.0140875934210885,0.0204774955588089,0.0189535199746956
0.00697385681003661,-0.0299705055528622,0.01881252868255,0.0172986238818654
0.00491999114154744,-0.0321263673039198,0.0184435291792637,0.0129393203076362
-0.00644986517126865,-0.0249599137509146,0.0193293486456423,0.00759423220648455
-0.00879910551894429,-0.01741386665854,0.0262851800515689,0.00397379272734893
0.00128823477391886,-0.00847823998719308,0.0429995710405637,0.00620284430379268
0.00674073198442297,-0.000316726926659849,0.0608102163221379,0.0150206811517643
0.00560569049494928,0.0112275897067323,0.0711740334789862,0.0243183052854231
0.00952685793043403,0.0226393427444438,0.0703283536636849,0.0263564386064029
0.0167718998162434,0.0207468487589064,0.0601446147817823,0.0194613932706466
0.0192789063481143,0.0152377192868027,0.0508680662721376,0.00917983627066089
0.0165618656773524,0.0186828445663109,0.048996798698864,0.00102735040245258
0.00608089080493711,0.0199035290560677,0.0540533796348903,-0.00465555041834178
-0.0129831014723033,0.0103581864644036,0.063556625668695,-0.0113064366877402
-0.0250754618920458,0.00368836873520744,0.0663309687728119,-0.0215115896174677
-0.0170115282490555,0.00767635090131851,0.057661158298536,-0.0328085945330685
-0.000480753637490568,0.0110360787420345,0.0481997271777504,-0.038884637768641
0.00806601066199738,0.00986936219743529,0.0415004111761639,-0.0353062437534082
0.00726757203607223,0.00749440110840941,0.0351033865189812,-0.0258566160612674
0.00283398043285663,0.00137926815471489,0.0305245587793661,-0.0193693167368135
-0.000521227920537765,-0.0105030780358168,0.024422226846704,-0.0180446257906283
-0.000860056144376157,-0.0252738126498079,0.0118868684825716,-0.0165483862663359
-0.000337246177622241,-0.0305079056378864,-0.000575759184491261,-0.0115201971665186
-0.0029549236947305,-0.0195507263360904,-0.00646586997420329,-0.00561140812875428
-0.00771451770790666,-0.000502158048970788,-0.009260279899113,-0.00342759985590278
-0.0121746933675266,0.0189586678387579,-0.00902332640121802,-0.00577711935258539
-0.0155405274174742,0.0307973405265107,-0.00377807825061255,-0.0085344117978948
-0.0189088106072563,0.0299348214069445,-0.00175405390327253,-0.00735392031483075
-0.0161836147900297,0.0226457462162642,-0.00658088612695701,-0.00211977563981856
0.00605476278349228,0.0151511801115363,-0.0118969606388885,0.00491591711632756
0.0381382922798111,0.0123945039385154,-0.0128870081334184,0.011520933258666
0.0446423333537875,0.0170812288603075,-0.00954856212492793,0.0134020455063834
0.00568083596546515,0.0318207122541737,-0.00337360902270466,0.00559707911336319
-0.0415404779999664,0.0535422458305608,0.00433697606272689,-0.0114152885656719
-0.0389794803529639,0.0602274251487021,0.00718556501343252,-0.0301230774507669
0.0042305493814202,0.0407802978244627,-0.00440636510278622,-0.0424779084862618
0.0347691668028322,0.00211809145529164,-0.0331723357925196,-0.0460954444669327
0.0334091566890412,-0.0518306716725698,-0.0679972266018791,-0.0437962739406816
0.0157562906706188,-0.107060787255076,-0.0838053750574397,-0.039869826194151
-0.00189371068242253,-0.136829841576155,-0.0658149129819501,-0.0361146024707958
-0.016879134312738,-0.128913556704512,-0.0354528225173221,-0.0326429828608621
-0.0297325719036059,-0.0930817938380179,-0.0193640294918063,-0.0312490630785442
-0.0267988093187539,-0.0490886510023693,-0.024795656209096,-0.0326009410047104
-5.13601703805867e-05,-0.0130231432797389,-0.0481583143188682,-0.0339325943062264
0.0229471656451503,0.0147601765098944,-0.0690667888940922,-0.0326768211752513
0.0152224363479439,0.0399227212790076,-0.0690072645723399,-0.0279295540721749
-0.00953162383418332,0.0669398618890617,-0.0601935531379965,-0.0195617494492867
-0.0251633997953236,0.0865602467387766,-0.0615824702212042,-0.00954380046797013
-0.0270984434563674,0.0686371943457054,-0.0731221785592149,-0.000950046680918956
-0.021909386018913,0.0137377778777027,-0.0888647471160069,0.0056005568649676
-0.0156144939443724,-0.0345960738474799,-0.100231653374556,0.0118395132714656
-0.0111378770122349,-0.0519295725182537,-0.0953427344226666,0.0193180856870207
-0.00991442414367706,-0.0457733065722983,-0.0679478357802248,0.0270030294519846
-0.0120885849046083,-0.0322203769134759,-0.0311603216640421,0.0319067847433108
-0.00793741630932051,-0.0319435185794726,-0.0266786598375942,0.0330250295429938
0.00703323508091291,-0.0468147259558139,-0.0589440585578199,0.0310482123740132
0.0160410771274276,-0.0608348951365464,-0.0762557192542111,0.0265448897404458
0.00295592396348988,-0.0641482981303678,-0.0536996307127539,0.0215164729193893
-0.0194042691424851,-0.0548037076677789,-0.0171521339144568,0.0189988369484315
-0.0247287164392018,-0.0398055853123241,-0.00543859831131983,0.0198312476496311
-0.0140651451769417,-0.0195073664039887,-0.0163307715324425,0.0213269968183608
-0.00994590949376684,0.00263009766254584,-0.0174924109050122,0.0210963394998711
-0.012711087963551,0.00717331463856784,-0.00477371692783233,0.0204926581231292
-0.00701762599237802,-0.00401818845071463,0.0038820771864405,0.0215523601297463
0.00678269737856757,-0.0146247114461249,0.000697226936886459,0.0239039885981391
0.0178662562268406,-0.0201279965561458,-0.00598407668103329,0.0255893692573666
0.0173704870298737,-0.02294523496707,-0.00445412757720473,0.024991516471134
0.00680842152080643,-0.0305493154195788,0.0059271262108683,0.0229229656126511
-0.000260875607276598,-0.0350373256933195,0.0147766332747642,0.0221821806530277
0.00323313385565483,-0.030640825167461,0.0136107306983894,0.0242302325436514
0.00695298971512178,-0.0323885094967374,0.0040512818393369,0.0271262384478923
0.00266067176145263,-0.0382654446697476,-0.00305903905010049,0.0279254410806011
-0.00356560321157709,-0.0372925794515094,0.00424472596315116,0.026690121635183
-0.00615622205767627,-0.0275775764748746,0.0214209703865924,0.0256790494751243
-0.00213629843145493,-0.00783183421516923,0.0295060538986401,0.0261897389146762
0.00848866335928637,0.013794671262893,0.0240645786582248,0.0276227965923845
0.0089391398024856,0.024543610305385,0.0152794818909921,0.028115590438719
-0.00926428422182046,0.0215031757734537,0.00495844913024527,0.025928727088085
-0.023096078440524,0.00948810821038366,-0.00827325148577136,0.0207664588287467
-0.0159696901400749,-0.00213777761097269,-0.017390340569972,0.0142329026066188
0.00228376998744857,-0.0053402673804818,-0.0192697798716459,0.00878651862228891
0.0138027187019113,-2.49261058550901e-05,-0.0169210329786642,0.00583197573710172
0.0108860173337208,0.00701694018248067,-0.012724685556982,0.00462511952597694
0.0015145043939174,0.00698767472806754,-0.0123646119579662,0.0032655528509379
-0.00583817083008689,0.00448160292332212,-0.0138549163071641,0.000671389249255722
-0.00757418586451003,0.0064227726733502,-0.0120046125706984,-0.00234967865128397
-0.00587038976776112,0.00202923270794915,-0.010908270811828,-0.00421213723918224
-0.00688848768227921,-0.0128991674019527,-0.00964298661499195,-0.00453059773256245
-0.0030826670477068,-0.0250190996540279,-0.00579999071466668,-0.00402961475751654
0.0150480123853343,-0.0247969274370677,-0.00292167660692022,-0.00346554098380892
0.0320325040236543,-0.0181229795493769,-0.00511386475541349,-0.00359959998734457
0.0306859287916768,-0.0193407417878049,-0.0131778452679748,-0.00526793975222243
0.0202606054688331,-0.0304996899096438,-0.0225645265662214,-0.00847390072592097
0.0157242381420883,-0.0399644318137,-0.0302584512199522,-0.0120282323939415
0.0181348105798671,-0.0420406597799956,-0.0362977027363022,-0.0144003835276314
0.0260469130240405,-0.0387223015300851,-0.0399495175087204,-0.0147688495219311
0.0338964929547637,-0.0309183924455912,-0.039859997483021,-0.0140233555599378
0.0317972205064923,-0.0202722806802391,-0.0376716112436555,-0.0147184420718327
0.0166988391299344,-0.0150577667646112,-0.0389063201500476,-0.0190450774658249
-0.010495136123941,-0.0077129095875424,-0.0412991080876531,-0.0262292226445492
-0.0329040817518256,0.0270125988700229,-0.0356886836373664,-0.0324320507369189
-0.027605254079745,0.0732417590661801,-0.0233211724411084,-0.0341045370185203
-0.000386986836783093,0.07645627893103,-0.0138562258302368,-0.0311616364513016
0.0166205724122753,0.0343039376551375,-0.0112598029529434,-0.0261587621622059
0.00469574371407582,0.00225323123826283,-0.0125737012816663,-0.0209908714973652
-0.0176779410278589,0.00208694617851282,-0.0133077199031317,-0.0158013672553984
-0.0294748750124535,0.0110160117240185,-0.0112019932121653,-0.0109860657130387
-0.0298630329429931,0.0128298751823102,-0.0103877791386774,-0.00801079695053085
-0.0236682892036266,0.0144437313524403,-0.013743091686878,-0.0077109717877948
-0.0134653278510366,0.0213771522948491,-0.0181434732487231,-0.00885952344623217
0.00210023457895712,0.0320887472958327,-0.020940971222252,-0.00927036578662817
0.0158366246762524,0.0405704354144955,-0.0204992894739328,-0.00803271768844284
0.0158801076677139,0.0303221141268113,-0.0169720671512321,-0.00582800953193682
0.00809798525021475,0.00896511961310571,-0.0133693577733089,-0.00389756295105459
0.00491644094751579,-0.00282616143713807,-0.0106473494573366,-0.00303516155529714
0.00474645226398195,-0.0056546523368376,-0.0089541671731785,-0.00321713240806296
0.000622956347476831,-0.0050299712743326,-0.00844067355814625,-0.00405992582546081
-0.00580354460420682,-0.000830958806909386,-0.00410467123663959,-0.00512296002861066
-0.00407756305547983,0.00761757665441098,0.00502625894846033,-0.00553769954367445
0.0132298519591255,0.0205471069217824,0.0113396291066244,-0.00412005779450661
0.0368174686542189,0.0354383392084297,0.0110959912124859,-0.000142210648610112
0.0480282209297929,0.0483113882212746,0.00960753857214393,0.0059359096972021
0.0432010179888476,0.0588213312626931,0.014308981189977,0.0127141187759342
0.033339670518512,0.0646006714739408,0.0218377059839787,0.0186481905960386
0.0241980362793655,0.0641194656981841,0.026662873791223,0.022645914775993
0.0169816773545839,0.058959666942744,0.0308284531128941,0.0252774427109627
0.0149481810573113,0.045714054166944,0.0319365566523453,0.027413880426506
0.0156309839473293,0.0230988141538073,0.0295666616441333,0.0274092733044118
-0.00445458759614423,0.000746428965319408,0.030722100481364,0.0226822940880398
-0.0605319457575765,-0.00158174833775752,0.0385139286302693,0.0135360335273668
-0.105875270725424,0.0219202350185066,0.0465678219641874,0.00410625765195626
-0.0859355985011558,0.0452718949892962,0.0435698733787967,-0.00162450178287414
-0.022241357325881,0.0467833450935685,0.0249203858392705,-0.00415492886029455
0.031380484673422,0.0306247346186418,0.000849263687093274,-0.00689768079043776
0.0567169551686057,0.00567576906537438,-0.013682439868551,-0.0114126791460711
0.0633737854747766,-0.0169238244867855,-0.0138483614496545,-0.0154694936284065
0.0573401062250443,-0.0219642798578425,-0.0037691550327027,-0.0151460536018886
0.0339706271194699,-0.00910148804781075,0.00963745011202536,-0.00909862340487749
0.000756202171077851,0.00491558371947741,0.018400511660838,-0.000740098234483899
-0.0168909052418284,0.0126828298997948,0.0159374701517491,0.004892268181022
-0.0112034720112161,0.0154385877220676,0.00390801560451041,0.00523184667282826
-0.000554337392768511,0.00955185177543716,-0.00841428843027689,0.00126071290904306
0.000528169675089809,0.00200621010202208,-0.0132932914376719,-0.0034992164372983
-0.0052142738092246,0.0063413829307502,-0.0063893698446103,-0.00474428871970364
-0.00494231651986273,0.0191882393929499,0.00639362471557905,0.000411028652814251
0.00534122353819048,0.0323283972909872,0.0133777337274849,0.010867202565341
0.0146326822444578,0.044578336963134,0.0135542470336287,0.0213405481971618
0.0160873583373343,0.043392217443291,0.0117238717272777,0.0262619700255132
0.0163427676645176,0.0154982427315982,0.00986028932998505,0.0239161557602034
0.0183634178491648,-0.0226765323150435,0.0119446306465578,0.0159813406212873
0.0175296341299506,-0.0408496447160409,0.0189554113175786,0.00419064544164341
0.01487557193747,-0.0311406412981272,0.0191912209927502,-0.00973650240119107
0.00929601305214647,-0.0169939881759318,0.00725166928394905,-0.0224109323536243
-0.00547772976759031,-0.0241415010966396,-0.00329895087993856,-0.030779091303162
-0.0239395587482087,-0.042255976086755,-0.00321714021456482,-0.0341653362836942
-0.0311887782336388,-0.0482263294140859,-0.00243631140603337,-0.0334099600666509
-0.0214515867085514,-0.0416374121251175,-0.00678226560324582,-0.0300774446928816
-0.0050116731480229,-0.028780037371402,-0.010722471271299,-0.0256596731102044
0.00379894657449873,-0.0134038988149669,-0.0124572413140413,-0.0213361974411615
0.00155017979832947,-0.00223203747246089,-0.00909351180146553,-0.0181309150289726
-0.00523002643693864,0.00424517071050216,0.000523466349601993,-0.016155798587503
-0.0108210446595354,0.00923861847808296,0.00997688720321664,-0.0144976646077525
-0.0163369576230306,0.0140160804937999,0.0157786018297797,-0.0119347262618307
-0.0212234255918478,0.0174041196034569,0.0161421799925806,-0.0082649633738239
-0.0194470978120888,0.014999341028153,0.0124716033103949,-0.00461648413400435
-0.0123234361501621,0.00869122698048336,0.0110757317426614,-0.00193931423819721
-0.00659277251459773,0.00400620116007739,0.0119500216978895,-0.000459073620342429
-0.00235586315429874,0.00253448383899944,0.0114800600867126,-1.96810850574287e-05
0.00120641840217922,0.00178588595250231,0.0102389566560048,-3.90942884700036e-06
0.000977507796202262,0.000181147806365278,0.0111906931391835,0.000213087801449174
-0.00160335727730685,0.00106050958203227,0.0144506181587613,0.000741633656097836
-0.00238345802632397,0.0030146101548664,0.0172943241195443,0.00132500753610069
-0.0013846049938903,0.00373321734356569,0.019156045822201,0.00157066522862729
-0.0014356906377697,0.00504075282573724,0.0207818408453719,0.00128924926068947
-0.00364798809183337,0.00545696962317312,0.0216786404838458,0.000676097270752846
-0.00584691445978501,0.00425157180959604,0.0219609909858713,0.000190794877197878
-0.00684985200758107,0.00387202401698938,0.022076393489979,0.000474101220967794
-0.00686848859797964,0.00471302258474728,0.0222218038155249,0.00175267309841308
-0.00745541690465987,0.00436226476194119,0.0238908565528079,0.00350553640377162
-0.00847555090983312,0.00305650239218965,0.026062203625241,0.00517966165834545
-0.0072873133901258,0.00334910689764825,0.0249524275258661,0.00626713267152722
-0.00496742413289513,0.00419549358250476,0.0216538339785508,0.00636150115596135
-0.00325572706769879,0.00358221196363757,0.019142758102312,0.00570197905146574
-0.00114702933620091,0.00283696902802016,0.0196633188029363,0.00497126506437708
0.000385345481456075,0.00269281546884953,0.0236644576489299,0.00446732990659246
0.000612095058589467,0.00496899043838664,0.0277942594016246,0.00360844079207918
0.000231600650161591,0.00961141322201208,0.0303359480919578,0.00252061862466491
-0.000916368588861552,0.0103101899003143,0.0301110469120275,0.0040664145106829
9.49322338439952e-05,0.00725182319217049,0.025319922934558,0.0120793873813058
0.00411578824404302,0.00668206771818074,0.0214036609666899,0.0263326501199353
0.00658008202307698,0.00853543808705086,0.0237028762190374,0.0395190406145101
0.00650414427166276,0.0118766323807712,0.0278562450962802,0.0431357396263063
0.00726504879101163,0.0177376865446075,0.0308322781263072,0.0366064199825003
0.00907178052074433,0.0208300557871197,0.030567406298978,0.0254718601526347
0.00875901077295962,0.0164490081477831,0.0223058188435936,0.014384679988418
0.00643243600748546,0.00543021945267526,0.00922754209533257,0.00558944578499749
0.00504844305540905,-0.00869299672569888,-0.00107425483828673,-0.000403339096329079
0.00495520076035069,-0.0178324503233906,-0.00655532440058965,-0.00432619347220135
0.000529374332336656,-0.0142166167878264,-0.00680668317163713,-0.00675749314128315
-0.00691133661307788,-0.00294793976476106,-0.00299422431641164,-0.00759675789551096
-0.00502248619436794,-0.0006926457395478,-0.00170055122397843,-0.00628888382601536
0.00674745513355557,-0.017383946952872,-0.00290544993414238,-0.00304949654428388
0.0174855001180372,-0.038994109635524,0.000532492563128907,-0.000510816534909742
0.0188706443691904,-0.0438633826913,0.00625764793337428,-0.000571957469135225
0.0129100762491898,-0.0381367930422929,0.00904692514392323,-0.000111601813460999
0.0110817061181382,-0.0386127259910266,0.00779572228662062,0.00434552857149219
0.0145329656589884,-0.0486786043906136,0.00158990634891857,0.00827053031864524
0.0158003197649953,-0.0625052718861541,-0.00719105629327997,0.00423658361995176
