-0.0056734340496274,0.0487906882922371,-2.74246256990267e-05,-7.59105836294982e-05
-0.0110229711388339,0.0384579626333949,0.00227389469915712,0.00109208128925365
-0.0125125445934774,0.0212891216119894,0.00367446405322857,0.00111645373643778
-0.0120839962951493,0.00289187466610713,0.00521810866203293,0.00066538486066348
-0.00751172265552104,-0.00880218144424943,0.00687102864364482,0.000440051646167377
0.00283156235752465,-0.0139331341766441,0.00671386951490555,0.000492372477425588
0.00932608670182037,-0.0177593087129632,0.00618008558489019,0.000594384527088428
0.00663842079659877,-0.0223442082634992,0.00646990004145168,0.000564850882610223
0.00158155329838945,-0.0236675911027374,0.0053632522113821,0.000380901644563877
-0.00560809846290556,-0.0218676401107186,0.00388077365944104,0.000103589284868441
-0.0208524656385052,-0.0225313644867081,0.0035113835702765,-0.000320988921442057
-0.0310448696624882,-0.0323986114001319,0.0038569015825848,-0.000707057197598173
-0.0173545772263245,-0.0596537020915167,0.00513258921270569,-0.00071968966798112
0.00704894053015712,-0.10133724791376,0.00698321150456369,-0.000531182671742368
0.0140054313318512,-0.131711264492324,0.0069754969185583,-0.000399746963507028
0.00446347303379613,-0.12377961970766,0.00326196444661266,-0.00021801323181598
-0.00310743805619,-0.0835367076685549,-0.000817099581425927,0.000205072981438484
-0.0079731856301258,-0.0394018255610795,-0.0021814350646451,0.000809719681089973
-0.0122450921418099,-0.0116271653594651,-0.00197867680419599,0.00128344686773037
-0.00814075729625807,0.00327123416575303,-0.00245551386456454,0.00115870128891802
0.00160539901081512,0.0169308519783167,-0.00460617150228333,0.000256012956003445
0.00602027003482997,0.0251814578512954,-0.00781055563936354,-0.000718669757315797
0.00394509784800716,0.0213256202437547,-0.00990273945697068,-0.000968461094993752
0.00125462709443562,0.0141056924378603,-0.0107260716852163,-0.000470646076637965
-0.000483374917356371,0.00852727205265249,-0.0117528041331544,0.000427473947740197
-0.00270023137229788,-0.00615255140976492,-0.0122115556817795,0.00130012282681534
-0.0046373172180696,-0.0226119944190099,-0.0134814729046082,0.00185701195930113
-0.00274692176103467,-0.0284408028136203,-0.0129577280655273,0.00221050787596025
0.000990684128308913,-0.0347330304798242,-0.00500442446073621,0.0024463398076379
-0.00394589436990287,-0.0360368069126875,0.00394704252678478,0.00233156616404302
-0.0159769785361953,-0.0169258135735871,0.00369348388998759,0.00175666549367618
-0.0220251737124005,0.00753504828227237,-0.00348137234958616,0.000846783516718693
-0.0197113294064497,0.0120562686531218,-0.00621339923255064,-0.000309519158058344
-0.0139397160723262,-0.00605107780219314,-0.00204186559574271,-0.0014324984258556
-0.00841823213828307,-0.0258701489521993,0.00108997781257565,-0.00179837006627666
-0.00037722800157208,-0.0301490188982642,0.00120299766087345,-0.00100716400130939
0.014253336463022,-0.010229072684015,0.0001734922511542,0.000121817295623133
0.0286312958452695,0.0316079923252351,-0.00302888378758019,0.000694319509094972
0.0327774179835991,0.0697154534626439,-0.00749354002011801,0.000903100209735295
0.0224752772050869,0.100914451292145,-0.0125176726186135,0.00111277923638079
0.0025216388464392,0.119561080099996,-0.0165253063482166,0.00130524020783946
-0.0134605145143198,0.0540961366258229,-0.0140337843439077,0.00135038385284509
-0.0155812266784612,-0.0763793977176822,-0.00828474022023998,0.00103258123451907
-0.00575052657584988,-0.128317216838168,-0.00270702037358048,0.000438674542605635
0.00505623225310165,-0.0737874427708944,0.00692599590634268,-0.000176454511883932
0.00573609356147721,-0.00552276444154552,0.0123134604279316,-0.000974954144741676
0.000959856888596459,0.0209166292276312,0.00697979179064851,-0.0017154203873116
0.0017840008316517,0.0141288197075138,0.000856628746422488,-0.00164273721049398
0.00487747054216006,0.00605448255631505,-0.000551666816668624,-0.000767955365875853
0.00090082688672355,0.00880540828636042,-0.000713550125218535,6.58892334556667e-05
-0.0134848296111789,0.0117460243678529,-0.000425191735118294,0.000267157510457415
-0.0312546004495638,0.010687824733493,0.00142951345187634,-0.00010147172029694
-0.0388168870739332,0.0111748244191863,0.00180745750533388,-0.000758222407900798
-0.0294381031669233,0.0158690690605817,0.000321472531130559,-0.00156263409765753
-0.00928181753654074,0.0238729788916317,-0.000785438049503182,-0.00227393253724917
0.00754596150115397,0.0273968866672173,-0.00100028555610426,-0.00243123816036723
0.0174995963816386,0.0176216590323875,-0.000260777090439506,-0.00224753756067008
0.0282532577012734,-0.000603083500586007,-0.00140269566323586,-0.00202853779401747
0.0344569266574706,-0.0149748968192331,-0.00443611769122707,-0.00127080824749449
0.0197156962157167,-0.0226164987659051,-0.00477767712642157,0.000222905922077419
-0.0156220294872402,-0.029978078040943,-0.00311316147401614,0.00199778441455801
-0.0457814185562426,-0.037935940720511,-0.00343027636417894,0.00330751948275376
-0.0522381059129777,-0.0380213188010687,-0.00336062747696935,0.00347830104073422
-0.0409940871583623,-0.026742387016089,-0.000747060932005633,0.00267294611924191
-0.0199853963504218,-0.00783840787698685,0.000565783005492223,0.00161322102155445
0.00218264006008018,0.00729575109479626,0.00210465381600262,0.000530111535465849
0.0159330082478337,0.00677383672092335,0.00612494234527992,-0.000816138690482537
0.0175525660600691,-0.00230709773246766,0.00887280402387749,-0.00207566113581058
0.00435121632466239,-0.0156752250394119,0.0107547524851796,-0.00264314860979039
-0.0206215570833575,-0.0243732962800589,0.0115382576939717,-0.00277083059000476
-0.0415384221279229,-0.0017059788861212,0.00683081773422279,-0.00338451773804248
-0.0404269131055618,0.0312067607441714,-0.00225109777064412,-0.0047206178370797
-0.0250668526865129,0.0333317935723315,-0.00955017733364516,-0.00570927476564187
-0.0182252498491124,0.0153746326647348,-0.00913129729808163,-0.00563632212917249
-0.018171445141326,-0.0116801000839575,-0.00508305869614618,-0.00470169880919383
-0.0134215394742224,-0.0607194999509631,-0.00514976739665135,-0.00246967069370603
-0.00883163852813228,-0.10389202701703,-0.0062871155671734,0.00147993941405572
-0.00704255652834469,-0.101118134514922,-0.00569796911967269,0.00576181245406888
-0.00423595076450916,-0.0698571328207821,-0.00456398730698241,0.00823983261176268
-0.00278228172526348,-0.0432337167665642,-0.00227443167868744,0.00793860077399145
-0.00395955052483744,-0.0269241790842587,0.00154906110585349,0.00537524010290957
-0.0127099087244938,-0.00845276888399216,0.00392189961680953,0.00175157978533333
-0.0286059683718264,0.020716754622418,0.00148611061967263,-0.001669120579259
-0.0241687950883988,0.0580320576966975,-0.00585147182469333,-0.00356604837383416
0.00548647689912876,0.0935823118638556,-0.00973997517966138,-0.00330606369977747
0.0253276085376875,0.11128461176437,-0.00377538564777558,-0.00173062601795049
0.0241871479797871,0.10425941289482,0.00378596569224964,-0.000369145122056213
0.0188784611893369,0.0714655605771747,0.00770817735450032,-0.000261986166715071
0.0138913097728546,0.0166428116017379,0.00867821320437492,-0.00131152187897616
-0.00299410381688605,-0.0247285343809378,0.00487226264735994,-0.00240839858499571
-0.032249394966491,-0.0189744166863504,-0.00117109427747169,-0.00254779665888274
-0.0431413086076831,0.0086507201388442,-0.00455165999139357,-0.00172685969527722
-0.0133518891720789,0.0107197081936408,-0.00329189722099352,-0.000450943833596916
0.0265373230262447,-0.0147860732954584,0.000315333826131395,0.00116653644442943
0.037489951957697,-0.0257900043953194,0.000936235882388025,0.00271213677202162
0.0208057218077443,-0.00191276362389985,-0.00257932612028067,0.0034661972951982
-0.00199150781833494,0.0373850308292385,-0.0075690626814327,0.0033817033290284
-0.0161271108843512,0.0772222102076844,-0.0127952922450301,0.00273504465642598
-0.0207942875927607,0.103229165847115,-0.0145024449548618,0.00174623072869906
-0.0214069592745197,0.0997822552825682,-0.00834325119635031,0.000625949269566681
-0.0212133701725439,0.0767623210389269,0.000466293560447185,-0.000205380482348137
-0.0187057832418632,0.046204219042998,0.0054871140624055,-0.000570169555369643
-0.00842186217181014,0.00278921775778203,0.00707147054345466,-0.000858763680529046
0.0120884688975449,-0.0318564432344411,0.00688462657872449,-0.00128873512341454
0.0290974528636604,-0.0280080115592449,0.00707626635797099,-0.00195178127081829
0.0228903073248912,-0.00506796380875499,0.00823213047889926,-0.00294525599883871
0.000872633689933009,0.0150328306348143,0.00932301585970631,-0.00371260248083702
-0.0122686625624691,0.0298370660418741,0.0111792153022332,-0.00337932562300336
-0.0103823968010974,0.0351985440953954,0.0132850117601324,-0.00198419770835999
-0.00377157751705342,0.0278560315593904,0.0132883565193109,-4.04170419883486e-05
-4.69706896285803e-05,0.0126100799409561,0.0099341256052781,0.00215915262701265
0.00144974603876179,0.00801640843347298,0.00357409602765995,0.00413178919774408
0.0085859385510464,0.0265005448363878,-0.0023473920829689,0.00537877516487101
0.0258465362806867,0.0502303788196754,-0.00398636119170311,0.00561648062554392
0.0408289887617074,0.0588737461661843,-0.00353864393172251,0.00471450604338171
0.0358074928855005,0.0616694915407195,-0.00376033780062966,0.00287346663488185
0.0144005656487599,0.065580023733902,-0.00414800808414039,0.000815920821009061
-0.00916361040957665,0.0638899225436482,-0.00552130704109499,-0.000749525764482425
-0.0326883607772124,0.0545473593876306,-0.00699882988170537,-0.00174496800665051
-0.0513472207836243,0.0440900094222028,-0.00689885395801662,-0.00221410860853816
-0.0553736121161051,0.0515436222937662,-0.00515752790378598,-0.00211247310622926
-0.0475571740677451,0.0783849210116752,-0.000737944732686327,-0.00179914357330111
-0.034876181931098,0.0962849736820738,0.00418045156123436,-0.00142612124789557
-0.0211205605602277,0.0963225895075209,0.00549274476315655,-0.00080681783346055
-0.00960677808659009,0.086330123217768,0.0039235821867268,2.58495939764374e-05
-0.0026593786910955,0.066047025949012,0.000650071670724512,0.00107438596639446
0.00130987878035587,0.0409288503262896,-0.00323182842686479,0.00213018293736547
0.00769803201757272,0.0164866685993735,-0.00576175761319395,0.00277200920291769
0.0206844324596562,-0.0209554226630178,-0.00369367130098664,0.00293494197562806
0.0398922459641969,-0.0869309881970428,0.00508218032462213,0.00269301878791483
0.0564980515371225,-0.151558574508987,0.0129512157008445,0.00189712249027479
0.0680451130006533,-0.166936624601768,0.0139291653481351,0.000729094231749353
0.070319599199172,-0.140766435959795,0.0107286142102796,-5.11131992280904e-05
0.0498318543059037,-0.131999145636253,0.00589750961515184,-0.000193595080592488
0.017273807078675,-0.154230570029852,0.00220852266721297,-8.04111433571226e-06
-0.00185291596902697,-0.130405806667776,-0.000218294516716197,0.000310618153633425
-0.00261495616204251,-0.033068319928957,-0.00296982562225219,0.000360085964660629
0.000308974868397149,0.0590337122807946,-0.00389577318817798,-4.16330080058933e-05
-0.00228287760676243,0.0973734107226102,-0.00305980724967543,-0.000512682193765596
-0.0052985393332021,0.10202775449551,-0.00341867793998249,-0.000679093832360369
-0.00890056321637599,0.100196000991101,-0.00474919827876329,-0.000403428730231676
-0.016024535504844,0.0982611317674418,-0.00628914195057786,8.88001601802432e-06
-0.0217571768180202,0.0844733194850078,-0.00746017345996048,8.75611453351128e-05
-0.0268027080146756,0.0570686824063701,-0.00575445114158742,5.89946362218098e-06
-0.0335383549573672,0.0314712699543108,-0.00309319224850006,0.000275062124527379
-0.036755057323911,0.0189789921108221,-0.00388652887879319,0.000815771144948507
-0.0349344557738798,0.0279412620139361,-0.00824962607987165,0.00133647571341569
-0.0295261065023902,0.0503711721482431,-0.0130876509148105,0.00184694932538011
-0.0135325209293901,0.0567431188710376,-0.0146322193427749,0.00206885185439159
0.0212768218214594,0.0473270684531952,-0.0112007584723096,0.00140135497465343
0.0637143698516865,0.0457346648678086,-0.00471629935202269,-0.000113858048847268
0.0833476626308633,0.0458159521377364,0.0015881611920157,-0.00180530655708298
0.0615905317194862,0.025675932496615,0.00798533426073687,-0.00296361625588104
0.0175383997274078,-0.0111107196746998,0.0138648158412726,-0.00319400750946295
-0.00956358196630268,-0.0401732804084991,0.0125838853838459,-0.00277226935503845
-0.00838761911127728,-0.0544319851212313,0.00418532085250984,-0.0018160863201652
0.00813493232712004,-0.0450293035839883,-0.00366938543757186,-0.000238125635939321
0.0398908490583732,-0.0038490397767645,-0.00752410654923715,0.00127991484234674
0.0712217259752502,-0.0120143838834848,-0.00164829506929263,0.00181463781049458
0.06518641237028,-0.127313512166873,0.0133997806321379,0.000731388609694968
0.0298208221786367,-0.211797598992383,0.0194496118453625,-0.00202398695714342
0.00991686883247844,-0.15033386696935,0.010485274530031,-0.00488041579898921
0.0151313136417609,-0.0337496259313027,0.000952997217024007,-0.00595896907568386
0.020812744474191,0.0358616457032915,-0.00366680770181963,-0.00529077034800187
0.0221502432718356,0.0590102345230706,-0.0075833051527042,-0.00366285064462699
0.0293208988291822,0.0616482479128233,-0.0111655566562343,-0.0012135496647705
0.0309571299260716,0.0545992702124497,-0.0123425474648727,0.00174818091359015
0.0164355651987584,0.0383172858690019,-0.00962261166948383,0.00414618700742282
-0.00308045003036214,0.0148547660798102,-0.00440009420491834,0.00512721078216474
-0.0202715670949952,-0.00497566711985932,-0.000753883899989766,0.00470512020255356
-0.0298555529157646,-0.0181315285744361,0.00107900531057406,0.00313775358601238
-0.0220218019189872,-0.038523264642367,0.00698851841845966,0.000682051253311979
-0.00918800478001857,-0.0720171607652375,0.0161100127128669,-0.00183748177883804
-0.00972889741531241,-0.0872011691767496,0.0188236002318927,-0.00333863248561086
-0.0187071728063315,-0.0581855459699316,0.0133671908376667,-0.00369008990768157
-0.0215173521140119,-0.0112990858310561,0.00547424123385966,-0.00359793453351558
-0.0106900667628901,0.0196232378398356,-0.000574833229099073,-0.00336162319007687
0.00746014556463532,0.0314512582953042,-0.0041064834112664,-0.00268452312899538
0.0230076227859499,0.0304250677261921,-0.00777984721781547,-0.00145202052650451
0.0323508309541776,0.00994943266200517,-0.00661787673756982,-7.14350001826459e-05
0.0283707857288804,-0.025048557559544,0.00398474571086338,0.000569234535028459
0.00776704811784158,-0.049267469618209,0.0126119582159931,-0.000180162531010443
-0.0100636647045098,-0.0607764425286114,0.0131243133734431,-0.00161653932427987
-0.00382045199708209,-0.0862274254613336,0.0116591630264809,-0.002594556172737
0.0145327682123569,-0.122609679430496,0.00958195890194575,-0.00294927798249096
0.0224191647071983,-0.128477923118177,0.00569770098040198,-0.00247904080197943
0.0203478409750464,-0.0979790124175356,0.00145548619017042,-0.000800507310770013
0.0166342876355042,-0.0694801038015865,-0.00129827763591281,0.00149376211275053
0.00986303398922939,-0.0650468363204599,-0.00227581528611474,0.00338510207812448
-0.00657606625033462,-0.0750899148481354,-0.00266996309149385,0.00443422114642117
-0.0295478630425272,-0.0830019833957275,-0.00179200913410496,0.00461956863243908
-0.0457763327171222,-0.0854572828819328,0.00273474770968239,0.00353203216584854
-0.0453167521425581,-0.0790440241002741,0.00908334992800616,0.00102081229720538
-0.0318462410377262,-0.0607638347760034,0.012236880318951,-0.00158010379712243
-0.0207267448349351,-0.0414958423444293,0.00967008125668231,-0.00270501583081961
-0.0168780115696402,-0.0177524060673241,0.00440560256242914,-0.00204569688310431
-0.0124929358342473,0.0104183334759681,0.00196682510344572,-0.000168748880482579
-0.00893152302550265,0.0145958553742296,0.00222081457018311,0.00212945468456091
-0.0133613433914057,-0.00430379227130839,0.000103096903761119,0.00400071598594099
-0.0235887387957006,-0.0135334976031658,-0.00477138083050841,0.00471764461514281
-0.0303564036330553,-0.0026414105363971,-0.00679736292514674,0.00453216292713643
-0.0264698013266382,0.0176955722145645,-0.00541258005885744,0.00399076256578799
-0.0170755984465252,0.0331564427741002,-0.00461980555450966,0.0029932959490933
-0.0127917023933824,0.0291497478212281,-0.00361296597616035,0.00164244125012546
-0.0123624707305668,0.00789831095732235,-0.000294140497503829,0.000196839116577474
-0.00979479589868957,-0.0119921157285387,0.00359315082519508,-0.00141196523391593
-0.00666427865290277,-0.0221408327460381,0.00398204243992828,-0.00303229203960752
-0.00924222593863035,-0.0285508839432815,0.0014538331552702,-0.00384102773462406
-0.0172164371324449,-0.0421699917173026,0.00121384936539337,-0.00335920112237444
-0.0190040559988291,-0.0591765558059593,0.00380731366550252,-0.00229649204963518
-0.0133092450191817,-0.0624208681129239,0.00535097258605959,-0.00178508434537264
-0.0135746993840893,-0.0450786592188499,0.00309489563565053,-0.00183927755039418
-0.0176313350745835,-0.0095777694193546,-0.0017192705274772,-0.00130903935589638
-0.0139786499551587,0.0222686519123028,-0.00601095742281442,0.000526533776759729
-0.00730993723544957,0.02610670303701,-0.00881380953031882,0.00308943558604253
-0.00485773938652904,0.010296478808364,-0.00911725161749243,0.00504344431594928
-0.00938326210450612,-0.00450742642828882,-0.00704956658546178,0.00565047608185468
-0.0202398182641569,-0.0103279269793163,-0.00636966409396273,0.00494424041856947
-0.0262277933083639,-0.00878808755197717,-0.0078339143146812,0.00338815253232827
-0.0205875298155203,-0.00205437812230846,-0.00882018549439416,0.00191621665108501
-0.012900652410257,0.00875355156423513,-0.00992635523148725,0.00114914747365911
-0.0200662901801565,0.0235325963821922,-0.0127031521338565,0.000768631261362014
-0.0352687851778451,0.0448453020720868,-0.0141974893101317,0.000204149588260692
-0.0373472635777419,0.0691947301326766,-0.0116053141320156,-0.000469878300848614
-0.0302881504341764,0.0848685757904778,-0.00831959594392876,-0.000895622469736381
-0.0147537568055527,0.0840000165032362,-0.00837115280957111,-0.00087173951656244
0.0130968751872403,0.0568031503275373,-0.00568121076576806,-0.000365513333470798
0.0302511392600759,0.0150905091491408,0.00602479114167992,9.73862286142636e-06
0.0214510469436436,0.0132635547049001,0.0175066019634827,-0.000808201449939574
0.00316711749561174,0.0572687660120308,0.0178483384466928,-0.00277509550003005
-0.00943401511068087,0.0885989807176706,0.00850511872455796,-0.00428524192732814
-0.0195411759222546,0.0909902622646587,-0.00168118439510373,-0.00424555418772541
-0.0262422622291649,0.0868668743975212,-0.0063333415659485,-0.00324916975481343
-0.023388868334641,0.0746523626297164,-0.00688131408356919,-0.00207993615039976
-0.0113278516146278,0.0475050256241703,-0.00667394038551092,-0.00064067809717478
0.0133145939020387,0.00395906537977669,-0.00597317781850548,0.000875445762594421
0.0465349422368885,-0.0430129039656888,-0.00578537115131746,0.00144649174501703
0.0650873172699499,-0.0490605037890409,-0.0082913303019513,0.000765471544223087
0.0569998908938758,-0.0162256158037651,-0.0115725769091473,-0.000205151980723856
0.0361216143782449,0.00821026981660792,-0.0100366136809719,-0.000590597429547666
0.0137368523915105,0.017552238161503,-0.00311601179659673,-0.000363597211654735
-0.00464250884802199,0.0324572179490964,0.00200217008221486,7.43427152282353e-05
-0.0089843618640781,0.0632865678314401,0.000279427186283901,1.62690900387812e-05
0.00143617048140456,0.0921056892990014,-0.00459945139193356,-0.000972178544190462
0.0184124929818884,0.0892331513838081,-0.00570255762192885,-0.0022054725300922
0.0242347907776759,0.0562153947440786,-0.00344689488184627,-0.00264838122661376
0.00465497678402128,0.0163533039628838,-0.00278922148896889,-0.00194888385784396
-0.0195277795345955,-0.012191410978138,-0.00385322573037991,-0.00055205498009658
-0.0222513321577698,-0.0229144244488323,-0.00414690424149901,0.000520309421249218
-0.0137957731349899,-0.0191488725368238,-0.0012150361406879,0.000627334618124659
-0.0156264911250971,-0.0103876441046649,0.00613404999199975,0.000415733244844266
-0.0313356245764407,-0.00658762491268897,0.0144903043938941,0.000391197246282744
-0.0422139361675542,-0.00691668659934124,0.0152714031846925,3.53786620247269e-05
-0.0289143376250491,0.000379907174273567,0.00775670005907719,-0.000587200176425781
-0.000210242638109502,0.017937013579932,0.00234836227489153,-0.0007710066154447
0.0239787834160942,0.0323463540525616,0.00300574759437151,-0.000425050991669832
0.0392607076662997,0.0362854506147004,0.00513930927456792,-0.000161337784550807
0.0516295111043251,0.0361018997670666,0.00440495219032095,-0.000323979031211602
0.0537724573831422,0.0329093290601339,-0.000404021312769492,-0.000426244700837273
0.0402406386678858,0.0231830256960805,-0.0055351054635397,7.289025974683e-05
0.0324403441679244,0.0136727599128213,-0.00631581342106235,0.000917390201218528
0.0399400914232787,0.00857178832186051,-0.00550288457724586,0.00137880840441968
0.0423293583921703,0.000855011005342392,-0.0050179497438913,0.00130034296397209
0.0308239919363752,-0.00969145842114467,-0.00221057011714438,0.00129716309963783
0.0235713753505551,-0.0253085771801988,0.00228060964006909,0.00164181171857037
0.0233147280666642,-0.05640524172571,0.00670980702884905,0.00153171886111779
0.00246169192596086,-0.0830778998036231,0.00643684579287251,0.000174671860444045
-0.038085923507222,-0.0775051822115524,3.167058945202e-05,-0.00152040005056209
-0.0622397664842848,-0.0633755011099316,-0.00379467545918198,-0.00162955871775158
-0.0577055174563129,-0.0681654437023529,0.000818179700831756,0.000193756698706072
-0.0417127436511862,-0.0707499064220927,0.0081131660543105,0.00239548241919647
-0.0296420854662426,-0.0557724868107997,0.0105803763745248,0.00332311517447741
-0.0218774264009057,-0.0384691853854193,0.00757198122607433,0.00241248696714617
-0.020557181984301,-0.0215391677243186,0.00190093547461004,0.000571644807216473
-0.0324118675400861,0.0125590769706732,-0.00496282297699609,-0.000596461463763275
-0.0457348146353604,0.0580445070365696,-0.0103299547418192,-0.000404556799138253
-0.0431831991760906,0.0826208799512381,-0.0115819886467015,0.000586968978740795
-0.023200025343082,0.0693029131575007,-0.00877608772012547,0.00136395301301393
0.00699759213618818,0.0240847960227146,-0.0012187607199235,0.00119422278814612
0.0411942949308661,-0.0383284338804408,0.00795519417601279,-2.62716068951079e-05
0.0596992438240716,-0.124166224254269,0.0144640969200585,-0.00182821721752267
0.0375577707616472,-0.218636660349911,0.0183555497674452,-0.00317062718814038
-0.00812233790491969,-0.230887793269551,0.0156422482638079,-0.00303891828506483
-0.0362682664694845,-0.122048339411187,0.00420275336257988,-0.00144080103080404
-0.0363657774662249,0.0159314792402097,-0.0065451801267993,0.000770638077931027
-0.0209474935864785,0.0935142087959887,-0.0086483210047783,0.0028697444791473
0.000560514477392768,0.10109953826465,-0.00276128914860409,0.0040763337437339
0.0211413631022877,0.0554273901418573,0.00683286832166408,0.00334161630006677
0.0302045716328979,-0.00243358168367859,0.0132156905383965,0.000812414808870639
0.0233284998365373,-0.0135258614407088,0.010372617007642,-0.00176002543656418
0.0130805959719266,0.01333161048098,0.00175290617683852,-0.00252020466422035
0.0113044697392822,0.0298439326668428,-0.00389823856592618,-0.00119153928242644
0.00897019163999618,0.0323740124781468,-0.00452814811610407,0.000497027221732178
-0.00551785413277686,0.0339674591382217,-0.00306671914851569,0.000746759295652476
-0.019622750796412,0.038917345159723,-0.000340611273162632,-0.000619035658858976
-0.0172559261907992,0.0477229067546847,0.00276643420993713,-0.00261758940164701
-0.00315003684710684,0.046188719885619,0.00475067280717851,-0.00400153556845477
0.0126461607276528,0.0302969166163849,0.00628520215455492,-0.00392959885262092
0.0243698316618365,0.0173059474996416,0.00569535501628057,-0.00268138929041087
0.0268169372132339,0.0139065880005418,0.00167099024531495,-0.00119713692859259
0.0216326913944436,0.00714964492664319,-0.00100149118740685,-9.15421135019765e-05
0.0185648225914551,-0.0176742346311783,0.000257024486903068,0.000330432101029244
0.0189825231868313,-0.0543018809388653,0.00444919511802584,0.000118404077936475
0.0144674213517496,-0.083477194839344,0.0106565307925823,-0.000226244295552058
0.00858236723806292,-0.0890782079441108,0.0129255240355652,-0.00041799251256552
0.0127433003280902,-0.0568281324375432,0.00706281776206608,-0.000461950948467934
0.0252270433433231,0.00575913172571248,-0.00206115561873012,-1.26895206574058e-05
0.0307008475156265,0.0653529601430408,-0.00854824465324732,0.00101302284664081
0.0176912458629287,0.0925003114668568,-0.011146809053069,0.00180513327957256
0.0029163460676317,0.0899085828217946,-0.0103000377041676,0.00172495454949237
0.0122473583672881,0.0786192638835754,-0.00691240471409256,0.000802905901883638
0.0382337814267449,0.0644112509528318,-0.00386335870096058,-0.000531406908533961
0.0494311980322002,0.0419477752736815,-0.00263307225033276,-0.00136274140787386
0.0353206368456872,0.0172235325511257,-0.00169713410812305,-0.00116578557804971
0.0166249715377344,0.00725805153771157,-0.000253545088640757,-0.000586865412057653
0.00755656504299794,0.01765826284733,-0.000142631200931305,-0.000291381970484176
-0.00175451383308154,0.0387628293484575,-0.00346265753922699,8.88493992634403e-05
-0.0145412032311076,0.0672558849913636,-0.00750745662463178,0.00104698768143392
-0.0188189337298707,0.0732022823124152,-0.00631486658310421,0.00168908377652836
-0.00851429682594941,-0.00640486089925174,0.000301328164726012,0.00082934230218198
0.00938928828457838,-0.121048782033726,0.00669546982806537,-0.000737927665664228
0.0169652497840516,-0.132752708486504,0.00915750182823645,-0.00161940283870428
0.0134273987450775,-0.0374581648074003,0.00454541853002304,-0.00170058271115897
0.0100036671180763,0.0585785661243563,-0.00680062022507134,-0.00117990442818199
0.000698987502801628,0.0958416471885702,-0.0139334657456972,-4.5680086173647e-05
-0.0161212272801502,0.0869014912292301,-0.00866533921035033,0.00110675630821653
-0.029455920356585,0.0656322730559806,0.000853658174048303,0.00117960236587219
-0.0369063180691323,0.0353060778519477,0.00494018140206091,-6.0663024422708e-05
-0.0374262475328697,-0.021690686248346,0.00457576708764683,-0.00147272459689426
-0.0224732958992155,-0.0965188473302019,0.00273104639057133,-0.0016479911816246
-0.00158965104239763,-0.143409844917184,0.000662976307400785,-0.000217400237202546
0.00571571710729554,-0.121096894286125,-0.00103797845601627,0.00198115550766744
0.00395172003352501,-0.0527218496453713,-0.00340522765654337,0.00381582762615612
0.000714118498198033,0.000731834248069885,-0.00682868338637448,0.00487400449944036
-0.0120299818574089,0.0209385164262518,-0.0089299364866633,0.00555022486622678
-0.0310729633145375,0.0253170597603959,-0.00757935135180878,0.00584373384592189
-0.0435208908386908,0.0144772541709079,-0.00262973072090443,0.00514010806512678
-0.0446430576018822,-0.0169019243098875,0.00608977752681149,0.00314967162441494
-0.0328844939865948,-0.0458333788283133,0.0130218046120097,-1.91058818065836e-05
-0.0132460002960826,-0.0533288222887744,0.0114099750962734,-0.00366405129329876
0.00297836569721163,-0.0494021174269046,0.00539208349459057,-0.00636866099745597
0.013156271957641,-0.0442333560692843,0.00199153644643662,-0.00707065793046232
0.0212205455965546,-0.0397517880538002,0.00201955559668159,-0.00602421162920108
0.0262337784508786,-0.0274696491566867,0.00322803619906729,-0.0044136839951815
0.0264911683972151,-0.00360319633362575,0.00418741945800208,-0.00303332844200879
0.0234572168069488,0.00849062166091982,0.00395918290175042,-0.00188322520349364
0.0165572362026785,-0.00494104119606589,0.00209644500517278,-0.000744394239224185
0.00251449025006906,-0.031478001505622,0.00187423691918099,0.000540997296725835
-0.0131703472086573,-0.0562308189387763,0.00490067344668859,0.00199192110694154
-0.0187550239973844,-0.0655195904395795,0.00656281700501361,0.00338965246315118
-0.0239568262286039,-0.055273368692263,0.00624555902201672,0.00400475344185396
-0.0377564366531298,-0.0307465991340395,0.00717383027216825,0.00319440433138443
-0.0409758261872051,0.0061488298838754,0.00796657497469233,0.00142354325927854
-0.032266819876349,0.0517415209792391,0.00323046902446978,-0.000174844741012773
-0.0280676103409654,0.0863327129130221,-0.00746753495224622,-0.000830652753705271
-0.0252302841822232,0.0824261854980455,-0.0130252150114669,-0.000526871716708307
-0.0200611972787391,0.0399068849281461,-0.00465267844633617,0.000120002298726744
-0.0165284336295133,-0.000852552027567788,0.00873027784657113,0.000290957771552829
-0.014242879620728,-0.0085452539574787,0.0149327345154659,-0.000342864243361935
-0.011966615404865,-0.00270960527430865,0.0130866052923186,-0.0012652592433401
-0.00755055047093472,-0.00759516218178201,0.00701217074211271,-0.00169786767787844
-0.00269075434844358,-0.0142975681002571,0.00241929593087295,-0.00145819841615829
-0.00363490128164284,-0.014670922520216,0.00123888758323934,-0.00111291025194977
-0.00815841229334177,-0.0160107783379141,0.000535530917243113,-0.00105646500981504
-0.00281226405631182,-0.0212307043294651,-0.000599747706350958,-0.00100307684600302
0.0203906852344034,-0.0350706377964556,0.000553388050463394,-0.00064586024360313
0.044091417421813,-0.0568363939045194,0.00566747808283869,-0.000162388822585699
0.0420412387224976,-0.0611060853773032,0.00783434507807556,4.18182607903742e-05
0.0217950786348769,-0.0280400058229439,0.0045983074731999,3.17369515274746e-05
0.00745861191300894,0.0264820975110458,0.00264056067964243,-1.1361694092779e-05
-0.00299094931011207,0.0701493194559239,0.00212823297422081,-0.000251073383466063
-0.0143625081214608,0.0883713071136106,0.00161034924893313,-0.000599940708216754
-0.0132505117282722,0.0826982747921463,0.00226962488755072,-0.00043980519670951
0.00322507583965566,0.063943177324406,0.00281568165182392,0.000459601614990689
0.0175463102862505,0.0473799534783589,0.00257510756839063,0.00129475230305374
0.0270984478812592,0.0244478217558269,0.00317620277063475,0.00136394490876789
0.0423261886499801,-0.00326568497711964,0.003608067864966,0.000911329195094495
0.0424474470480904,-0.00616137351018927,0.00149944335765092,0.000475837385064432
0.0104422649982753,0.00806122003754539,0.00101316067150862,0.00011878093213975
-0.0219210798181328,0.0098076212091841,0.00448340851687136,-0.000413433398918157
-0.0304836730399193,-0.000517615045173316,0.00705786987453585,-0.00102143992616083
-0.0274564543649653,-0.0101955302930465,0.00660602675180542,-0.00116205099053236
-0.0233062935753038,-0.0131474127784795,0.00440871653356875,-0.000601504052461933
-0.0166738773437418,-0.00847567958454051,0.00169966145801977,0.000283078888441378
-0.00704612429102109,-0.00219126485600189,-0.000529212481173817,0.00121542880830914
0.00166208367202112,0.00176033443762465,-0.00165174454217887,0.00222990160291735
0.00656802200354245,0.00456900522276373,-0.000492986162897007,0.00294253022777176
0.00966019084201026,0.00569514226847715,0.000676424780315306,0.00282785954336354
0.0125723846595128,0.00576175186235691,0.000260536722126612,0.00209589678603744
0.0158677588888942,0.00599075048799434,0.00142644096825439,0.00120460454769868
0.0187428184725531,0.00535119697728524,0.00373803065015078,0.000341688274927008
0.0170103322746141,0.00918642915392797,0.00459163939171493,-0.000469851342680048
0.0125951435790294,0.0231310410728555,0.00481438814984662,-0.00109946740548247
0.014128341207245,0.0437785014922162,0.00377111195492004,-0.00133744279336995
0.0247006786786439,0.0584372504582657,0.000426727712734482,-0.0013594727726753
0.0378363378779723,0.0363151032269351,0.000134985121644852,-0.00141393112258737
0.0441253671245133,-0.0220355357918983,0.00416945367458112,-0.00156714142487714
0.038806460347743,-0.0634556118258365,0.00744362460089053,-0.00169353614948893
0.0275021530820416,-0.0720323542233001,0.00914153322589313,-0.00130293601543138
0.0156243595361411,-0.0721877758523419,0.00998192613829669,-0.000345389159568468
-0.000367454545028137,-0.0604685885282549,0.00876115998203216,0.000581907309029053
-0.0136699281518153,-0.0330139417974347,0.00473641966191548,0.000963385817960558
-0.0138367675820599,-0.00833169577425724,-0.00174478935704841,0.000810654486630609
-0.0056909515781865,0.00883899958825577,-0.00987217833301917,0.000631854262477015
0.00277473187126579,0.0275369568876107,-0.0165323064152679,0.000941009794475656
0.00934589889115759,0.0430549222551381,-0.018016188372045,0.00167227465925421
0.0140238571734989,0.0387367617880009,-0.0115959080206351,0.00210045535282384
0.0143475770726425,0.0150683119759853,0.000941926358606834,0.00178953551199803
0.00927587396888373,-0.00131850135086299,0.0102225627102635,0.00106684151529482
0.00459689691526966,0.00477675328710458,0.010054244914193,0.000340963810635263
0.00142605277503251,0.0174475262326382,0.00584458913019555,-0.000331381652223461
-0.00539374206819614,0.0214798662394011,0.0047986274074814,-0.000847103474765253
-0.0126703924022658,0.0198393141018199,0.00455418536305769,-0.000664918117821304
-0.0118928839637932,0.0189644556078356,0.00234169023680153,0.000490156322939355
-0.00310393427375879,0.0202391543083727,-0.000179409065053803,0.00186615532142437
0.00222311146233189,0.0198759563184886,-0.00272743036831241,0.00245749316558633
-0.0018774149059686,0.0140069701683265,-0.00412229139608682,0.00192504909668163
-0.00873158406815116,0.00394309504771762,-0.00418861048795459,0.000709597688033377
-0.0124050586706044,-0.000256339373993129,-0.00475885820691551,-0.000497041262977197
-0.0103716210166906,0.00686756961139498,-0.00542833348996915,-0.00140926538740587
-0.00207943354189953,0.00945533607214871,-0.00560816642196949,-0.00209562956017002
0.00531116792781439,-0.000871215372473214,-0.00563618804368413,-0.0024046372288625
0.00258797495060923,-0.00921855970515759,-0.00477545908098669,-0.00199764025265795
-0.00618356215281412,-0.00907845108451108,-0.00177878599504204,-0.000958625068313541
-0.00892091905326729,-0.00871147832064403,0.00274551310685871,0.000113680619051554
-0.00354831953627772,0.000593407422049694,0.0049921912073892,0.000703100923099249
0.000412755782273542,0.0230531652247858,0.00339584615222814,0.000965745315193224
-0.0121220736162271,0.029948804988133,0.00182165276487001,0.00120274949532252
-0.0398160594729471,0.0169327379239769,0.00109276227815922,0.00140375767410186
-0.0575427090893827,0.0122085520913286,-0.00145152554904404,0.00153308061828653
-0.0535836183517205,0.0160368345239197,-0.00425999914563186,0.0016076928157606
-0.0391504800931156,0.00890081276913899,-0.00399314393063375,0.00156594242979867
-0.0225206426937181,-0.00181388451059259,-0.000732156980579076,0.00151350151563683
-0.00146656749080173,0.00245119216888296,0.00239682244587126,0.00163423927792733
0.0209251174152001,0.0200593301270688,0.00353102378885743,0.00156308160242846
0.0349539760238677,0.0270965816362623,0.00288411159641645,0.00106135793509431
0.0346312088594317,-0.00514487116480582,0.00158378842111826,0.000510828005283747
0.0191446228276339,-0.0572029106776019,0.00101099880426933,0.000217634346197726
-0.00159322941806716,-0.0981040824130998,0.000597600539289192,8.96156126045553e-05
-0.00692575447807064,-0.116814541026061,-0.000617348484305343,-0.00027786167100558
0.00833966991055399,-0.0784667666707044,-0.00109244459458258,-0.00108224556898288
0.0219248622163856,0.00475220860430027,-0.000608561682867526,-0.0019417293427929
0.0167270132194352,0.0641881957747862,-0.00225699855058437,-0.00240035594445511
-0.00136021265995454,0.0746897211222692,-0.00638546884045005,-0.00233865492745771
-0.017186985505089,0.0583658893079212,-0.00797118299482238,-0.00209306687598404
-0.0213847571192526,0.0357037622965352,-0.00346266937186308,-0.00214646240202301
-0.0164222166354971,0.0109526394833704,0.0042629087770792,-0.00217052545630482
-0.0108391586552993,-0.0142169467049634,0.00742545069977395,-0.00128186529106702
-0.00487190050894252,-0.033925045524569,0.0027677847171226,0.000886242159884173
-0.000164343706483421,-0.0415812646250394,-0.00205895662451889,0.00347240875916926
-0.00640878197649929,-0.0342855892172638,-0.00237375652501566,0.00476242411797811
-0.0148070453420878,-0.0221988479573348,-0.00040923537515153,0.00402783950196647
-0.00776037455501489,-0.021167556327748,0.00356379735482266,0.00198775660689211
0.0110657160155682,-0.023468063119583,0.00528731313668243,-0.000219703578968288
0.0270801166372873,-0.00981843601338183,0.000203941144933463,-0.00163047745040258
0.0365310351899304,0.00653545412788065,-0.00585455159022859,-0.00195020719884683
0.03839970666693,0.0047366064451266,-0.00752952864965159,-0.00168150180216886
0.0236326081765591,-0.00417406991604212,-0.00702371568484677,-0.0013253347932516
-0.00853134071159053,-0.0102603074132362,-0.0051290754559494,-0.00109135947996665
-0.0403730305725268,-0.0161063064200062,-0.00186094541059497,-0.00155051592914168
-0.0508148708508927,-0.0104904064879199,-0.00183733028536276,-0.00296860695994078
-0.0326656157602234,0.00762544174637232,-0.00540671457894919,-0.00443457847616833
-2.12060722905444e-05,0.0207414477162754,-0.00739061831152118,-0.00481801791215438
0.0221483031665272,0.0276100120659663,-0.00718804896753297,-0.0037851210912811
0.0233575326520256,0.0249032028235617,-0.00335691152373968,-0.00194412274408828
0.0118392681771423,0.010546794242235,0.00430319382997351,-0.000352805859246497
0.00318309539158434,0.00854708393695705,0.00842943070550106,0.000755751598971797
0.00783947137617654,0.0280471604576005,0.00659902637594489,0.00186280547398542
0.0210649660476606,0.0454234921500043,0.0032719797793189,0.00260966131400238
0.0342769325083126,0.0394903734422063,0.00203401056481894,0.00250531636872393
0.0456276160114377,0.0130645839513498,0.00320484822632064,0.00184930612735172
0.0468149952347589,-0.017712254099481,0.00329812744669886,0.000844796259315918
0.0258066394647769,-0.0374552134250299,0.0017480739167905,-0.000215051948597205
-0.0048383577718799,-0.0424451735445474,0.000449021256720873,-0.000752686681535839
-0.0208334773706356,-0.0412500011959553,-0.00212838707713595,-0.000721700986750139
-0.01890913161773,-0.0337857776860231,-0.00578612638564913,-0.000390450910428237
-0.012811857362944,-0.0122669562117049,-0.00876854213285524,7.48351395323595e-06
-0.0108941064049009,0.0172614380368334,-0.0125821650015992,8.31386616627946e-05
-0.0116475148863642,0.0408685208300582,-0.0172135295547611,-0.000158374865793706
-0.0182787989930543,0.0484496998813757,-0.0176478559470069,-0.000187812898254876
-0.0256563627734731,0.0304271288317395,-0.0102633115383114,-3.12117069040645e-05
-0.0155521444232518,-0.0122698049044849,0.00512752551392257,-0.000539612048736893
0.00833033332260225,-0.0365262501280117,0.0178057205027109,-0.00201601879848166
0.0219790611180277,-0.0105278808576032,0.0146833756095567,-0.00334325402065478
0.0219314899893701,0.0241543623997574,0.00356483885832245,-0.00325357794101505
0.0225532210365062,0.0332165613648224,-0.00297377788733451,-0.00166770863088724
0.0251424236618834,0.0324427188105817,-0.00537268560399203,0.000600104741426868
0.0233136816845532,0.0343690172633038,-0.00629789291207926,0.00263058841027816
0.0173367881478502,0.035732323616279,-0.00530055347008812,0.00381448311926926
0.013291165548526,0.0370535146680709,-0.00490394397615448,0.00402102237980433
0.0150100399071367,0.0396539535002029,-0.00652863065379327,0.0034491607198762
0.0175166841563681,0.0395724904080892,-0.00733824781853499,0.00212208520298789
0.0181541467300862,0.0341712462580829,-0.00574304832307393,0.000334420367944289
0.0180572521489973,0.0254709414830538,-0.00184894074619246,-0.00107298724315849
0.0126530710416684,0.0150995101533032,0.00217604037511331,-0.00194375459177159
0.0060583117957901,-0.000534345937262509,0.00436735933463465,-0.00258409987225499
0.00606983757146125,-0.0248036555981728,0.005505839051744,-0.00266953862333199
0.00861421824091305,-0.0579451568202566,0.00529801179565364,-0.00185821290830288
0.0126335397650196,-0.0922398691491566,0.00292722211637544,-0.000457965283789281
0.0170836249347947,-0.109029472555641,8.92630533579561e-05,0.0009356458153112
0.0127441193663271,-0.0956392056810623,-0.00129887157706075,0.00184998182443698
-0.0038563342349837,-0.0600910487182584,-0.0018604849328441,0.00203692094221823
-0.0191774269522101,-0.0249086429484593,-0.0031966425668896,0.00178292707758005
-0.0200513084479784,-0.0051904282504221,-0.00430256367499705,0.00171560136128552
-0.0145049775371397,-0.000825144755289747,-0.00448974094544582,0.00186552985330143
-0.00703415264139325,-0.00662860999985437,-0.00490392136083551,0.00178216096481275
0.00484243411639135,-0.0139548536380246,-0.00828352431932123,0.00142064275658021
0.0131071771573024,-0.0120611057260712,-0.0154738482027701,0.00131731280109273
0.0100674448952961,-0.00368250803343506,-0.022209532733531,0.00186217991902734
-0.00315527512307225,-0.00487323735701818,-0.0229013608920945,0.00278946573380773
-0.0148303481427512,-0.0144275018158079,-0.015400892147046,0.00331374747670441
-0.0171083097956399,-0.0154058953532602,-0.00573497058084269,0.00247304677104638
-0.0120220100392426,-0.00427986405505376,0.000120167296490125,0.000136968254284208
-0.00470227890862603,0.0178600976444463,0.00380194905984705,-0.0027683604337209
-0.00219113351639229,0.0385139152286839,0.00991084635672629,-0.00510025845031749
-0.000791288636128908,0.0268620871595315,0.0167540215205491,-0.00625751457654829
0.0126117246405796,-0.0192639558421205,0.0174761922456774,-0.00614118614795898
0.0342386080604793,-0.0726648083736061,0.01389656767232,-0.00428875181216638
0.0444282736995911,-0.112495389281988,0.0110283174293144,-0.000904350499898052
0.0364276596186027,-0.123008671100411,0.00692527710322318,0.00222222548389066
0.0200415723150031,-0.0928390033456072,0.00164937369149367,0.00379107335384336
0.00328188881925601,-0.0353945070857296,-0.00174584848482544,0.0039107603156762
-0.0105161162405702,0.0131028670823933,-0.00504253532141975,0.00314203243655105
-0.0246030956373306,0.0309107238376147,-0.0085453790038217,0.00216437605470642
-0.0446479643003389,0.0251021415493389,-0.00908331738750903,0.00138350371406125
-0.0592705884613301,0.0159107236342137,-0.00767897891710929,0.000771918182410634
-0.0551272763374845,0.0188804078294695,-0.00652787804966463,0.000249479226467006
-0.039769000402417,0.0265402813303954,-0.00684071785346755,-0.000108764811055434
-0.0316075254639915,0.0221116999180601,-0.0084992429503959,-0.000150991463006932
-0.0351777830135871,0.0184446888996306,-0.00971203288182356,0.000141002466317255
-0.038889129266981,0.0332011209356222,-0.00951336573449931,0.000601830175226619
-0.0333727610639482,0.036212143131394,-0.00690425960044529,0.0010299494874071
-0.0160072035323923,-0.00587496294038843,-0.000882878500820404,0.00120696563426608
0.0076564965474812,-0.072053072072642,0.00796363070361713,0.000634741640202277
0.0229281581027695,-0.10858146393411,0.0130659984528779,-0.00101117913220627
0.0200978259695904,-0.0824184277474771,0.00872354868102617,-0.00296490474774451
0.00409525256899907,-0.0180060880540468,0.00149778699976397,-0.00386986215293355
-0.0135811291107069,0.0377721136945845,-0.00120667295498995,-0.00351694945582616
-0.0228885778698181,0.0738604536219645,-0.00303773187783962,-0.00284467481525442
-0.0252129335303778,0.102104031074852,-0.00656685303691762,-0.00198820326173676
-0.0316761115342683,0.122608394006462,-0.00874003403702857,-0.000294412904754224
-0.0385973692433361,0.127336335818372,-0.00644516029412292,0.00185393444538082
-0.0324416948142207,0.0885079639444964,0.00340757930293508,0.00286415329251485
-0.0173528171637942,-0.0160093537799837,0.0152682969204994,0.00173856289923495
-0.00250663476692255,-0.112588377680166,0.0173958010674611,-0.000654215624191599
0.0113203083410674,-0.105308557419932,0.010529013219764,-0.00216911029163264
0.0163352373189916,-0.0296522719863943,0.00456875579170169,-0.00155874064945676
0.0102609035970845,0.017103877160708,0.00154240121777061,0.000164188711532166
0.00953356847109,0.0152708212644889,0.00021993008317907,0.00158978342588916
0.020770851374317,0.0057373161979643,0.00365980129195798,0.0023071570009287
0.0335678043612348,0.0139351051191184,0.00883654695227078,0.00191208340519871
0.0384374110662969,0.0296665730255404,0.00613090181044296,0.000104611332879154
0.0302392053348277,0.0303055191716212,-0.00175970161788565,-0.00220594063035537
0.0078050331172194,0.0161286690687551,-0.00398764185993082,-0.00353307253202828
-0.0184368469184588,0.00321536656085399,-0.000901716805577624,-0.00341679767451671
-0.0282508756191975,-0.0053356770307869,0.00112216491691288,-0.00226138951075537
-0.0190268162524334,-0.0114717829890117,0.00173285532710393,-0.000601813260268883
-0.00893645587594877,-0.00899522185993926,0.000618699663771079,0.000678047923908204
-0.0077768206083253,0.00319835923340811,-0.00431362296897653,0.000879345253771428
-0.0107999186594312,0.0164202627852097,-0.00874276683105902,0.000401489978604292
-0.0161094952474026,0.0271935290609158,-0.00884217505213845,-1.54202671250512e-05
-0.0261566994467373,0.0348169279527233,-0.00551020560226224,-0.000331816294412951
-0.0333951935487017,0.0350822536333091,-0.000855334704724995,-0.000749617930838014
-0.0376808305858211,0.0239800659593407,0.0043151721337668,-0.00142172665449919
-0.04599091541714,0.00601602960496559,0.0096580615701556,-0.00227330678789331
-0.0454970968242498,-0.00892575662223372,0.0118759146578575,-0.00259119228985865
-0.0287322042504933,-0.0175388894452295,0.0107261044100972,-0.00206407067977734
-0.00915233339099716,-0.0223007140368062,0.00916470621128103,-0.00128400330431167
0.00539568612989003,-0.025822112643297,0.00857906723682868,-0.000614323085545843
0.0194421755738058,-0.0282185159123194,0.00786204426262844,-4.59365354432656e-05
0.0305326827949026,-0.0285623007111756,0.00561564552726174,0.000491287808453689
0.0290611382007277,-0.0269698127283963,0.00253330448277804,0.00116924528804433
0.0188920003431502,-0.0380133314776171,-0.000404793540283133,0.00171350789306921
0.0131929008244942,-0.0747086799080553,-0.000744352403738761,0.00171446683500848
0.0138610729255337,-0.10678135472804,0.00126633913230181,0.00147839433295308
0.0150182032816692,-0.102858397809741,0.00168677754552091,0.00129296886359236
0.0174087895016328,-0.079198650180704,0.000818911548755782,0.000958715317796863
0.0197355980582305,-0.0565430438319202,0.000539992253154261,0.000302440519422216
0.0129812631508453,-0.0327447082141079,-0.000414613263635413,-0.000336979087154864
-0.00463651922834418,0.00703905980361236,-0.00329953503659915,-0.000350628072078015
-0.0235058637343781,0.0704235500752586,-0.00777778131998374,0.000191280950241145
-0.0311531528402556,0.125456662527875,-0.0109184466572314,0.000761823096913784
-0.0248091069141151,0.136611631025809,-0.00929678457985397,0.000856053888536855
-0.015453330087752,0.122554512972614,-0.005523310952766,0.000461614809501836
-0.0104686279237164,0.11374641195413,-0.00374970633985174,0.00031751134670734
-0.00839589437382967,0.10563160918885,-0.00313011308405027,0.000887125572059871
-0.00404113861832666,0.088383553189617,-0.00170435160528713,0.00144329717175401
0.0121121875246089,0.0556088764241231,0.00135354367377944,0.000995601785706609
0.0315968313555437,0.0093099083635734,0.00374188485757374,-0.000188486332570808
0.0305926383421355,-0.0141276663471945,0.00123453760256904,-0.00116450774008716
0.0107094209948116,0.0124734810338525,-0.00588683571636865,-0.00141704153405277
-0.00552087790172636,0.0534228964974432,-0.0116571979580719,-0.000971687933082079
-0.0110478497525554,0.0503112466872035,-0.0125830036042316,-0.000297556308950353
-0.00926065736700377,-0.0182489384547665,-0.00609433556445682,-0.000117795891108462
0.0067664209521536,-0.0859106965915806,0.00618091100164578,-0.00103879941095123
0.027412687294249,-0.0563372526895149,0.0106580147393941,-0.00285148144428982
0.024228565120158,0.0424484595807571,0.00479992407052843,-0.00390525429621675
0.00298504218399138,0.111802139629958,0.00116292242483331,-0.00245688253468103
-0.00763658764828129,0.121872263166901,0.00289914412426961,0.000888041068673636
-0.00330997985594915,0.105859529568994,0.00142087295024226,0.00408795433846753
0.0056744305737987,0.091416577060064,-0.00385839113383003,0.00588469856537272
0.00669615983654515,0.0729162076455977,-0.00413215618243377,0.00566988588706729
-0.0047698850243558,0.0374417839726443,-0.000575539116267998,0.00369147040517569
-0.011542194088762,-0.0231386274034589,0.00217248914036484,0.00115242856268441
-0.00499893714630165,-0.0855329276630175,0.00547184895064218,-0.000910802671963553
0.00474528870015107,-0.0933902013133052,0.00600511738582602,-0.001893599189756
0.0143329056967546,-0.0499902160319231,0.00347279534279448,-0.00163401312499402
0.0216664966237128,-0.0143633917849076,0.00314394008671502,-0.000533325503183563
0.0235110076794051,0.00523310774715247,0.00291524527468438,0.000719294924060512
0.0234012253970685,0.0286283654115065,0.00130226730047535,0.00139574740804754
0.0217825970002095,0.0310832881898078,0.00235145295890647,0.00119842338256583
0.0172327898104242,-0.00310760133551742,0.00528115859927172,0.000400030875278545
0.01268567173903,-0.030891625493729,0.0049985282246555,-0.000660619178511204
0.00768980686832839,-0.018636367334348,0.00140902176641979,-0.00162866610633904
-0.00123367670548198,0.0101738894339337,-0.000462517137750407,-0.00206763381179971
-0.00905229835398611,0.0195690659725403,0.00195056285689894,-0.00204079911983625
-0.00745926008833021,0.0121910829673256,0.00686788263106364,-0.00203916676955771
-0.0016593710124322,0.00703227364032173,0.00980019410159718,-0.00240147309332761
-0.00376818506477582,0.00596638911730379,0.00866723788758329,-0.00309043517454392
-0.00975751231027934,0.00558079535906966,0.00791773803979058,-0.00343255533277852
-0.00607689414148512,0.00667764846014345,0.00876996946807455,-0.00275875777415146
0.004584481131688,0.00554887968584203,0.00798266223536654,-0.00136034867254928
0.00790442750592914,-0.00946828947488709,0.00565869071064187,-7.15915747855874e-05
0.00140738370810482,-0.0348981122281549,0.00359968154224686,0.000889447368702711
-0.004710051599756,-0.0488720898898869,0.00233322723436136,0.00194022476857336
-0.00676131775035009,-0.0591152628538349,0.00331322559516946,0.00302520372695847
-0.00969137913272049,-0.0912571201896644,0.00800033730108458,0.00350915197378727
-0.0123852713942371,-0.130928248679446,0.0126070635098514,0.00326485534323009
-0.0110706595418471,-0.151832327446984,0.0138644085825459,0.00278326524246778
-0.00662171090963778,-0.151454217446183,0.0133694599856214,0.00240648493941222
-0.00230285014615094,-0.130716984934021,0.0111803892662609,0.00198890609903169
-0.00283840054765356,-0.0914920170956695,0.00759782177786698,0.00133684436603382
-0.00499151171897292,-0.0502355067038363,0.0051427033737719,0.000934102046136814
-0.0026697494940367,-0.0240903559179064,0.00341031426089177,0.00127554445647882
-0.00218104342138893,-0.0140061950556227,0.00068208931458282,0.00208623118172396
-0.00731294091550566,-0.00907065456338837,-0.00208444756468309,0.00270941870264191
-0.00827732788318866,-0.00180797283804433,-0.0033687530307671,0.00246932404566618
-0.00150780992772801,0.0118934336626448,-0.00461610418880531,0.00112206150603214
0.00759761813905253,0.0365926748565555,-0.00462094065843235,-0.000695090171182459
0.0208297158813696,0.0586230472769531,-0.000931676502734973,-0.00193582473492723
0.0372954623486081,0.0502168074085113,0.00414834738738035,-0.00245256606516363
0.0448017689476045,0.00881444171536069,0.00886809272092456,-0.0028738366861212
0.027736766587879,-0.038261853014911,0.0110547701750759,-0.00327716615089425
-0.0131988165098471,-0.0674290526480062,0.00888671510920511,-0.00343784297034044
-0.0455216265651294,-0.0695770390113988,0.00688422952035654,-0.00332927162043541
-0.0433634146705252,-0.0475046961755276,0.00587210157258725,-0.00281586351808788
-0.0168263102433743,-0.0179942375611844,0.00139698250383901,-0.00159224581492951
0.00660674623806577,0.00147916272278619,-0.00361148138955219,0.000743523361344476
0.00281647847275081,0.0109283495887894,-0.00633375658833237,0.00392537968196849
-0.0220310591006724,0.0135820428121967,-0.00918594782252907,0.00656761812591056
-0.034188281400173,0.00690296197259785,-0.0108250704701191,0.00754829536039919
-0.0185721529437599,-0.0040415609516989,-0.00891958375890666,0.00688258588441018
0.00530152143512085,-0.0147024249346962,-0.00498269923555451,0.00516123578462584
0.0196192391479322,-0.0225453435775853,-0.000979800665323194,0.00296362528190554
0.025823590253967,-0.0221061065732262,0.00106655065234036,0.000671557595885431
0.0229118192748362,-0.0205290887305532,0.00025886573085691,-0.00141807635573976
0.00935201170013697,-0.0326407785656056,-0.00145023733928282,-0.00296732240476662
-0.0028655593606835,-0.0527277604798751,-0.00247996737092225,-0.00361821747185045
-0.00150715543410453,-0.0572920931148256,-0.00312410326649884,-0.00342408082722434
0.00951162800595136,-0.03756907795465,-0.00477050122141388,-0.00277624036473744
0.0174193928652423,-0.011856080768234,-0.00781108659779577,-0.0019431971066067
0.0128495752426236,0.00558763324205558,-0.0109045096017892,-0.00108883396836135
-0.0078936609917261,0.0278598561357165,-0.0112659996027573,-0.00052120227226672
-0.0358923270523656,0.064277572429888,-0.0060467236047951,-0.000668056974860511
-0.0544513295202409,0.102381566578872,0.00118497688190974,-0.00119772984407527
-0.0590799574549226,0.126626838203903,0.00114300588400278,-0.00114662670623211
-0.0539351796084505,0.126613215009056,-0.00697309128071451,-0.000156898099724445
-0.0405045621645473,0.110668366820837,-0.0151067939916081,0.00121442456288038
-0.0254777911951691,0.0915889100269656,-0.018881363364127,0.00184361378255209
-0.0180935019501225,0.0607081186306065,-0.0169008319588603,0.00127229341141588
-0.0152984773167297,0.0141249354419777,-0.0111414780312888,0.000218944754792117
-0.0131109659869132,-0.0318485378389392,-0.00688450069145169,-0.000552249858808267
-0.0148392519388519,-0.0602010906209114,-0.00306282757777072,-0.000922716152591929
-0.00967703530063983,-0.0596818676579205,0.00145046604482998,-0.00107112602673704
0.012721645812708,-0.0419515155568417,0.00397440984689748,-0.0013063296603769
0.0397566944477708,-0.0537497523529762,0.00659916663215041,-0.00192228586007411
0.0539513740848051,-0.101158031356233,0.0117904555654951,-0.00272846402966557
0.0538942979919835,-0.120803213482825,0.0173522752439014,-0.00347978133512028
0.0538713310391604,-0.079431513631415,0.0169175011416668,-0.00404943707217423
0.0556291379330265,-0.0045243096050873,0.0062480681953057,-0.00393965946610831
0.0431352028341255,0.065776313740381,-0.00839237252133885,-0.00256045162559357
0.013512544939936,0.104407477365512,-0.0149377010074082,-0.000389283722580936
-0.0138374289011692,0.10948147582075,-0.0125149138001852,0.00108281268065784
-0.0245596340834173,0.096001900782554,-0.0087530418776231,0.0012769604443601
-0.027123130388203,0.0757157713496969,-0.00420455080554871,0.000971007043525547
-0.0342264845880264,0.0624317526179196,-0.00159275779627776,0.000950603147479877
-0.0411581845148075,0.0608941991674328,-0.00598754965640881,0.00141060573999427
-0.0363697863614977,0.0596560998880299,-0.0113894702854537,0.00191660294210877
-0.0202936837380809,0.0466148134841114,-0.0100271836422584,0.00185801118806578
0.00159606415081392,0.0170920769139347,-0.00112812996326721,0.00123893331787857
0.0214686407239674,-0.0135522467782366,0.00907074577500039,0.000351521648852743
0.0280613835001735,-0.019163574278362,0.0115196221422345,-0.00081440499944728
0.0193279128669782,0.00128627170740132,0.00676320266052974,-0.00223870666779455
0.00844095839701679,0.0262889204924522,0.00307054406940588,-0.0035384364406467
0.00767780072292459,0.0412288416460747,0.0045592364473248,-0.00415959330065097
0.0118342119357637,0.0454432580564473,0.00708254135491542,-0.00379148794624274
0.0158388868463008,0.0383777959718807,0.00699693667322479,-0.00263020796926322
0.0235287861736995,0.0108367469877854,0.00510873616797747,-0.00114320666614787
0.0319413361492004,-0.0183683712022555,0.00155271216375581,0.000359432799239405
0.035372347719547,-0.0143127511856606,-0.00257982921460359,0.00159379811782863
0.0330366176897182,-0.000128711803664692,-0.00227609446541551,0.00223335630688531
0.0247116333359404,-0.0118324381804556,0.00474605099434142,0.00201598223206963
0.0146373615159965,-0.0265551570875684,0.0114035174497711,0.000824829995878477
0.0122641508526334,-0.0195616624473943,0.0136035247387599,-0.000699850232559133
0.0155225081888531,-0.00244027309863402,0.0123699473661513,-0.00163333392261663
0.0126467892663108,0.0126927182586026,0.00630092816189331,-0.00141723367673229
0.00472172386935111,0.0207286492138691,-0.00144161718387158,-6.72120820505398e-05
-0.000611902688504038,0.021008950938721,-0.00554352420896217,0.0016185468960076
-0.0067208460381854,0.0130088718755397,-0.00512124296501015,0.00289498899415131
-0.0115107744302755,-0.00568370130288445,-0.000981427236661735,0.00352646069495473
-0.00763654075853513,-0.0192102509153305,0.00278844069711482,0.0035817115945382
-0.00359016270021004,-0.0168219935017268,0.00280556149944603,0.00330209191907481
-0.00978441716573229,-0.0127490593736746,0.00176877384559522,0.00268130123525224
-0.0191769569305309,-0.01280086261985,5.19247195199953e-05,0.00143611908883148
-0.0173599894677496,-0.00996543368931512,-0.00248376831746144,-0.000144666634010585
-0.00666224727010564,-0.00679690129282176,-0.00194349724068099,-0.00128516283795536
-8.26090867552393e-05,-0.0114612700471032,0.00114203233301098,-0.0015985683964165
0.00148244445135589,-0.0130794169993906,0.00383697274783896,-0.00143434371844331
0.00225151475684389,0.00289348584711094,0.00582283309829817,-0.00137178877118459
-0.00110151899894079,0.0233413509953705,0.00546887546926595,-0.00145298927909974
-0.0113711540645331,0.0351016805633738,0.00146851314326893,-0.00133637029057102
-0.0320947470201284,0.0420807908398379,-0.00407945769359441,-0.000648888384007423
-0.0620670070479298,0.0403544897545552,-0.00690003981284401,0.000446582184795249
-0.0804627942209782,0.0326580221069893,-0.00604150153503817,0.00147311067215455
-0.0729316176821556,0.0379238816213828,-0.0057522261194964,0.00244595685019686
-0.0498508961289746,0.0486741945519915,-0.00651459560780977,0.0034413233358861
-0.0280834974409733,0.0425901097204662,-0.00532846753030021,0.00412914052919579
-0.0154452133539505,0.0298762920990522,-0.00382675010945908,0.00398226323822442
-0.00885219776059544,0.0310423109219038,-0.0036286701276827,0.00312452866632716
-8.61226087790976e-05,0.0302381289109041,-0.00324183876624721,0.00227826020604361
0.0143145987939779,-0.0096830760490048,-0.00211320559974393,0.00170242809479771
0.0279521003744808,-0.0900921651131994,5.96239385805535e-05,0.00117607935864535
0.0299717106241733,-0.130844834159501,0.0016825435798767,0.000488660632477888
0.0241099038222413,-0.0699054901752852,-0.000263549816162333,-0.000381561470596632
0.0264260732208683,0.014303169992445,-0.00338409299712714,-0.00112349490874924
0.0271284548582218,0.0419205867128476,-0.00449014638515337,-0.00142565903107098
0.0108063310934907,0.0344422318963202,-0.00472326567246938,-0.00149818365910822
-0.00225847949270824,0.0151959427372147,-0.00328072800827079,-0.00169185387213995
0.00612303903960574,-0.024736177968505,0.00148339470080206,-0.00205601218829912
0.0156864617647236,-0.0739593477475898,0.00621609439456027,-0.00227442295498034
0.00171851938226356,-0.102846074781711,0.00632405604643377,-0.00171566647288333
-0.0250862640219474,-0.0970934502850877,0.00363957377531376,-0.000242349937422867
-0.0329500275403847,-0.0539918948942546,0.000665824339098981,0.00105106589347182
-0.0148444063941844,0.00868220022577776,-0.00303961240556207,0.00140494210465046
0.00493572344027875,0.0532075652632603,-0.00367734377509889,0.00171088265688862
0.0112486382189371,0.0525279993166075,0.00267163673550223,0.00260949623125318
0.0147889847688606,0.0151484351125098,0.0110109454932799,0.00298343627453829
0.0258511757370981,-0.00815827213643654,0.0124604540134712,0.00175788059316928
0.0376508754570785,0.0205605769694312,0.00621678745965595,-0.000201973975593705
0.0428468875646665,0.0588687603740877,-0.000187101378018854,-0.00141280027954452
0.0409439002693436,0.0428019327450156,-0.000293339551786986,-0.00160009808043244
0.0343110855194011,-0.0186646448141955,0.00444738447097411,-0.00157310145800043
0.0316799989307244,-0.070383942893227,0.00720526958818736,-0.00200942356703315
0.0343595901790826,-0.0886279310817683,0.00583357123330523,-0.00247811053415138
0.031533484735545,-0.0888601506807759,0.00320212762303625,-0.00229261406235462
0.0167615423776597,-0.0837625576777001,0.00158904707586812,-0.00187247558132342
-0.00885859957074374,-0.075490390598287,0.00102233818719037,-0.00178839616009589
-0.0306971913007855,-0.0645122112203246,-0.000513962022409286,-0.00152569455934038
-0.0305874346031737,-0.0497074868057126,-0.00283081538845232,-0.000452102469416462
-0.0153087782095537,-0.0290337702205886,-0.00485401455208092,0.00097137549460661
-0.000260660435646209,-0.00026966041100555,-0.00380356586369097,0.00167237318263319
0.0126394154014158,0.0331410126545706,0.000588940118344327,0.00117637572571088
0.0218164233897857,0.061267552714089,0.00150029460522948,-5.25990981887622e-05
0.0271177766828507,0.0700302194045628,0.00237067683764995,-0.00112468201809971
0.0391491144524172,0.0457910804446732,0.012127548974775,-0.00161159763958919
0.0590021441437292,0.00608356877629729,0.0218241817019032,-0.00165660750179402
0.0680243791037606,-0.0113218006838961,0.018144222023136,-0.00149315691272258
0.0571496929154492,-0.00625470996505786,0.00651611359058334,-0.00106841981377021
0.0369966928773746,-0.00483630815927164,0.000111755191612769,-7.36111224337179e-05
0.0155714399382578,-0.0152227055867106,0.00149014544015487,0.00113308502592069
-0.00565953145284424,-0.0247757979934197,0.00479836793205034,0.00163574970835346
-0.0189302379381069,-0.0257723352304626,0.00420787392761503,0.00127127652767159
-0.0170441632997694,-0.032235009390722,-1.37162031137866e-06,0.000668121593476217
-0.00676382626670705,-0.0659363712622643,-0.0013647721590091,0.000165835459908857
3.20953673012998e-05,-0.109206007168981,0.00257274782112879,-0.000413265574218375
-3.69429614966062e-05,-0.098697449282398,0.00548615431569414,-0.00102456663429399
-0.00403763704576953,-0.0252279028771647,0.0036709185168275,-0.00130894223070613
-0.00965823274691036,0.0470204128099684,7.32808322122473e-05,-0.00124900855373642
-0.0153176389318688,0.0803325987446857,-0.00319741668583767,-0.00088805281702593
-0.0186366671133058,0.0848625682143876,-0.00362030154669484,-0.000215026934647988
-0.0148989421047795,0.0784219105104684,-0.000436905972593587,0.000297533073961391
-0.00538042634007537,0.0689668592661906,0.00266734316878744,0.00024891867991988
-0.000477744432276513,0.0594690129547924,0.00309834616460726,-0.000118484251221376
-0.00197201052058573,0.0528711164615995,0.0017393192848561,-0.00035412611605924
-0.00406988474694269,0.0454478075406061,0.00072925963914473,-0.000263079656226119
-0.00597973967218557,0.033099523214523,-0.000635029169915865,0.000274170454491748
-0.00902810450989983,0.0194375172975866,-0.0013784664631335,0.00106059941712832
-0.0138775972942297,0.00934021883601889,-0.000509284154912544,0.00153083752955261
-0.0169743446900241,0.00456627728337255,-0.000667401871790037,0.0017588038483883
-0.0142895540029189,0.00269757239199397,-0.00170732966652571,0.00212386088284641
-0.0113695407116231,0.00429758740645954,-0.00348438255174242,0.00235923793649998
-0.0113761707121243,0.0127014835312942,-0.00677270545710605,0.0021896461883698
-0.00769285742868946,0.0247553646695671,-0.00919208549839783,0.00189673649896798
-0.0018337329357546,0.0318617697056453,-0.00951215956480828,0.0018067719408431
-0.00269085399206921,0.0276554739454473,-0.00821763107830182,0.00169351307526266
-0.00881896108146592,0.0176378380402413,-0.00665259698371528,0.00110549247701568
-0.00595496392587295,0.00774140347885877,-0.00584007492363005,0.00016022603071098
0.0179281265293017,-0.00536047045326733,-0.00220182551497155,-0.00059145506135669
0.0507996579140907,-0.0303758074478604,0.00207482908922854,-0.000860305411829078
0.0579018861551032,-0.0609125844068081,0.00294186187624233,-0.000978525347083181
0.0225689007652378,-0.0703756086517357,0.00284555022399633,-0.00136102762764817
-0.020436765927164,-0.0567371747364822,0.000942231934816851,-0.00168358237969842
-0.0326225440198083,-0.035316603844845,-0.00307190262017511,-0.00148962754142232
-0.0249465505667437,-0.0101968843600755,-0.00649789332991955,-0.000924504404462444
-0.0219861193661519,0.00909340254923491,-0.0074910734347436,-0.000387467076092614
-0.0255919742154693,0.0110787741837837,-0.0054434240561053,-0.000119767516615412
-0.0264741295664507,0.00439131087654445,-0.00347789725405456,-0.000108453624968341
-0.0232916858273159,0.00936787299188739,-0.00633828605792142,-0.000273963703075525
-0.0221269767936514,0.0285650413985163,-0.0157174598213022,-0.000174929189261525
-0.0221235136442099,0.0514730096924674,-0.0252876434921855,0.000628209579425933
-0.0150197312066519,0.0741456109079497,-0.0261638421727396,0.00170130108785141
-0.0027290198436294,0.0850496316775174,-0.0153283733776764,0.00234473856462352
-0.00116535102257352,0.0780889560312001,0.000898908981676286,0.00219852813665989
-0.0118991452972427,0.0612978340910166,0.00817515839536436,0.0011883165143289
-0.0161354625831371,0.0236475195821237,0.00503097518760823,-0.000374359771298071
-0.00947450861365443,-0.0229257036473157,0.000531775186488966,-0.00169567579533171
-0.00786461888570482,-0.0431686559022779,-0.00462453603426005,-0.00201765646076534
-0.0141501308082485,-0.0681290978253604,-0.00744564897024315,-0.00137865863964169
-0.0173272460351429,-0.128303300184468,-0.00271565657128355,-0.000486543419729429
-0.0156707402846837,-0.159306836519746,0.00356819116870154,-0.000145072421605768
-0.0128334306098419,-0.114366365723435,0.0036397641044268,-0.000578846382069053
-0.0078790067559757,-0.0431653681228451,-0.000796482322304192,-0.00119867529038992
-0.000536120016283441,0.00272746123749995,-0.00488428405765691,-0.00142525147991649
0.00605245621181235,0.0224204732272011,-0.00688456524363421,-0.00123785905955602
0.0110206070005454,0.026653897099435,-0.00767342826074948,-0.000881768690147101
0.0145837987095704,0.0206272321561453,-0.00776496977382503,-0.000482723707655322
0.0195181486191293,0.014446508837433,-0.0069542032338412,-0.000263905237865844
0.0283287334211438,0.0188802109967502,-0.00560574067363412,-0.00050577807722828
0.0307103309526551,0.0262849570579659,-0.00315100820603311,-0.00101104126683479
0.0177273901299951,0.0335150876994065,-0.000333827061735926,-0.00159887634897022
0.00480477995308466,0.0466599463804246,-0.000460390578948578,-0.00211172555618468
0.00648462676940192,0.0406967992459477,-0.00328453370999118,-0.00201312889830062
0.0122305962788756,0.00641965008755894,-0.00567623501987187,-0.00126876678590537
0.0116970828736306,-0.0213708908652432,-0.00718321302231656,-0.000330385844679998
0.00521109397774736,-0.0219384350103058,-0.00687283568621588,0.000497233874704829
-0.00161711384997474,-0.00538400101357652,-0.00401415278131058,0.00088122313922674
-0.00435907399341437,0.0106397249243194,-0.00186632659854196,0.000862875708741782
-0.00724200956759227,0.0156890191428497,-0.00264304952706796,0.000902691439608098
-0.00902964813629458,0.00651675084702295,-0.00432060701245655,0.00092139886315948
-0.00678529636658412,-0.0121019140344103,-0.00537377832081096,0.000370054596254518
-0.00529131949333743,-0.0101700261890945,-0.00634198280672168,-0.000556280405120051
0.00104642649375993,0.00828337430687635,-0.00469793233625844,-0.00103975844171545
0.0120714796123115,-0.044465991320274,0.00214056445503285,-0.00100512502524562
0.00946406202715925,-0.140472803818861,0.00909918701386499,-0.00107912934036654
0.000277639670793682,-0.122276294147817,0.0090113441085623,-0.0014365954526646
0.00780267519541979,-0.00325707526216111,0.00339441700622598,-0.00169637890307696
0.0253355037277863,0.0733994941821999,-0.000228044598107685,-0.00151958472276162
0.0347978418632327,0.0714529828457106,0.000917020803859997,-0.00087920594097404
0.033180909994369,0.0490509262088566,0.00444882713524903,7.93567020657439e-05
0.0203364391381471,0.0598805982520052,0.00446598864360905,0.00103403029221556
0.000330124690308145,0.114911282272097,-0.00413087095138021,0.00141995329946595
-0.016237047931893,0.173228839780211,-0.0154137478820903,0.00145990030961581
-0.0247301745418468,0.169958243442927,-0.0187675974987044,0.00180346969439482
-0.022497727123931,0.0787536748454323,-0.0108081333134313,0.00197336209077858
-0.00296089672245466,-0.0590542823976435,0.00462924657029255,0.00132892750204233
0.0236648932516818,-0.149324815831427,0.0171683966418771,-7.88508218734622e-05
0.0308552777201714,-0.132424531080011,0.0187562399353455,-0.00175708627009364
0.0181202872206643,-0.0712758759413799,0.0127253829748484,-0.0025791206950974
0.00362825707256907,-0.0502016098838812,0.00465189269050523,-0.00201604699783052
-0.00706104320936454,-0.0609928489712704,-0.00303017769564709,-0.00073824050962551
-0.0118686100406198,-0.0627740990492358,-0.0082205570491224,0.000518129777402551
-0.0105683752300632,-0.0446939346860425,-0.011525755481987,0.00149611317971208
-0.00805549153450912,-0.0188313880472008,-0.0139055133660269,0.0023442884082916
-0.00463998147834142,-0.00522245228455347,-0.00905774409494484,0.0028023491141006
-0.00609701365417315,0.00259101902824037,0.00259906953016711,0.00226726508167271
-0.0257503886541947,0.0214268743567823,0.0092517014399444,0.000960719535984545
-0.054255171782728,0.0388283259771495,0.00909483070642667,-4.60383956928305e-05
-0.0646835251908025,0.039773533795019,0.00680300338177636,1.34352979073672e-05
-0.0536523163018632,0.0283674280482597,0.004175568981036,0.000966448275019837
-0.033821771225756,0.0190038596905791,0.00050844826617173,0.00203241394555221
-0.0100275189235031,0.015220083221057,-0.00320174095645624,0.00220820783715223
0.00927369507756627,0.00932070911567831,-0.00173932151182403,0.00126070697870724
0.0149042481392697,0.00494754157890418,0.00191266785055332,-0.000204536027308808
0.0118674001861268,0.00745365139882159,0.00106611450000078,-0.00154130125285079
0.00903167754372991,0.00464957378032976,-0.00154288188559536,-0.00202425007376158
0.00656721246032626,-0.00747747886763015,-0.00134730589488794,-0.00148796462881924
0.00397465047585655,-0.0135249703219373,1.82832219385769e-05,-0.000896331120370327
0.00755944225227503,-0.0124761893068518,0.000305821776385367,-0.00106101998399763
0.0221848433029082,-0.0177351504152519,0.000299528006612958,-0.0015670013984673
0.032958112686163,-0.0284941637414317,0.00122044979313698,-0.00165569098274115
0.0195865796274079,-0.0376618430423832,0.00166777416138677,-0.00112759010886681
-0.00773031741416373,-0.0472620921297526,0.000954317254851532,-0.000132873650758852
-0.0251380649057142,-0.0550740666034326,0.000566292383692881,0.00103330228779896
-0.0299367930552723,-0.0518084763728758,-0.000632126542634078,0.00193687988093858
-0.0313016721747411,-0.033406448400808,-0.00262994327479659,0.00233212912691767
-0.0313924166869386,-0.0141955863612108,-0.0023886913846564,0.00229757835411604
-0.0269842948189267,-0.0100815523759986,0.00016237947705709,0.00180087449834674
-0.0178339503378404,-0.0101881923867198,0.00283877384408216,0.000768501531737027
-0.00952860842404988,-0.00580149115358708,0.00391726658600676,-0.000188292808019357
-0.00883919972962903,-0.00321830240164952,0.00284560578193537,-0.000307910794372845
-0.0170362165845111,0.00392772103387913,-0.000437129594435467,0.000270351305441837
-0.0248823867300714,0.0203256263345381,-0.00596931480491632,0.000810845007632079
-0.0271503756497918,0.0334760875721402,-0.0106628915293762,0.000914585147257875
-0.0283155350436584,0.0380111145254198,-0.0123709903845101,0.000766041197578004
-0.0271891086236968,0.0417415628287958,-0.0117442032428309,0.000401038845592235
-0.0251960610749892,0.0477247463856096,-0.0092670467066746,-0.000321690626921221
-0.0296016307634033,0.0517473690231637,-0.00673410949582857,-0.00109145856425563
-0.0323373259250601,0.052868673104828,-0.00573098395829034,-0.0015405875784634
-0.0237225167882937,0.0582780364378103,-0.00741480140550284,-0.00168546843287562
-0.0139897372655648,0.0627122476228691,-0.0113337749411778,-0.00180767378951947
-0.00837097816925363,0.0436078717025635,-0.010005187255026,-0.00217096008653917
0.00590678698995714,0.00120509806933465,0.00223745891335842,-0.00262298229811225
0.0298961158770341,-0.0316282764003571,0.0166060970670017,-0.0027051735604315
0.0404574974922382,-0.03118863950698,0.0185153152367876,-0.00193640676329555
0.0252756848092657,-0.0239470068027647,0.00881915221947813,-0.000382763285448432
-0.000979978294003408,-0.0376653744612183,-0.00016311320216476,0.00114751973766349
-0.0216796776125114,-0.0409410660240868,-0.0044092860161523,0.00206502696305974
-0.0294974002577078,-0.010710194758308,-0.00619086171875028,0.00258754557199134
-0.0221916479501114,0.026425014561875,-0.00644078826198785,0.00305211485579119
-0.00560813371570455,0.0427307842459422,-0.0049102060033911,0.00321262488171159
0.00503135217805118,0.0293867150250194,-0.00222347150425447,0.00251216654409287
0.0021419968955462,0.00241640613959652,-0.000228351808377452,0.000988060894272494
-0.00568239829805297,-0.0102374360901802,0.000745394256732732,-0.000449380806587314
-0.0112455781211218,-0.00871899000963711,0.00163943722142905,-0.00129491424298358
-0.0131031462389504,-0.00707671646891148,0.00188744205334912,-0.00193965075514715
-0.00788742281520901,-0.00661225774700763,0.00064587186865424,-0.00234387343403672
0.00434366126316213,-0.00566740775324456,-0.000180135270308113,-0.00201139088288512
0.0156855846102858,-0.00313640849537274,0.00171422158448153,-0.00116786877079533
0.0183137804326108,0.000812104143835701,0.00271585055740541,-0.000409793262967683
0.0140285499989015,0.0018583020456649,-0.00023184717733835,-0.000123494718061015
0.00929765959113357,-0.00559100963525509,-0.00380948170350242,-0.000148562233796208
0.00421056083367909,-0.0222582608148314,-0.0060656185347117,0.000205980476776028
-0.00147721306560385,-0.0372500121726866,-0.00803083362652123,0.00110722767350119
-0.00448239209477994,-0.0395599926002533,-0.0103548873935044,0.00210847275657441
-0.00468156922529964,-0.0402253285955349,-0.00936269247078045,0.00282790855916266
-0.00433189008699085,-0.0536541812492851,-0.00145813332155154,0.00305122306845473
-0.00374710012853488,-0.0607060488488521,0.00710970697161197,0.00244071162966756
-0.00230752568085688,-0.0434011622687639,0.00900479620290486,0.00102668586319301
-0.00551044198564124,-0.0152361485806864,0.00374215558038796,-0.000401151115634231
-0.0136655875512532,0.00793379239649294,-0.00295535899816292,-0.00132335153921456
-0.015014379599515,0.0205438046036625,-0.00325944774159481,-0.00177141326938632
-0.00155441882553968,0.0383370882165086,0.00149280297027185,-0.00183520145312889
0.0187872145830864,0.0716446119054841,0.00350447163167615,-0.001759818381671
0.0308110721327239,0.0971977226130397,-0.000733199830658895,-0.0016589512777649
0.0400799771113914,0.0946633894786797,-0.00511938669424672,-0.00151689965454913
0.0565681239394493,0.0614752572000608,-0.00270007562917678,-0.00149987033276845
0.0680030079434176,0.00705138142745398,0.00380030683069036,-0.00143683574336249
0.0671658986892658,-0.0263527341808716,0.00727875181582959,-0.000907486638304915
0.0620559490686211,-0.00452735248779518,0.00426982104293052,0.000222875304000698
0.0546113705436288,0.0411644362642751,-0.00407462537171952,0.00161131571640414
0.0429889392341984,0.0710146148228196,-0.0130314175451162,0.00260301017457329
0.0308763455849158,0.0741644851211835,-0.0152721080748512,0.0028174598110795
0.0196127522181233,0.049191017805204,-0.00962119898093747,0.00225207327672534
0.0117454756634671,0.0143053567264957,-0.00275240741258417,0.00104384303850256
0.0102974933313617,-0.0177459400831699,0.00192540374414796,-0.000336511272296975
0.0130665143726189,-0.0497214674004202,0.00494916058236541,-0.00135877148247895
0.0176965580798672,-0.0664567537927259,0.00428680727526951,-0.00172838704164314
0.0174402793069675,-0.0643131793856182,0.00374647026844978,-0.00114613883956621
0.0109331831305671,-0.0841147614790183,0.010954792389137,-0.00016019075896669
0.00637562079510817,-0.120795365383031,0.018788038985059,-5.73707386135599e-05
0.000590710768943514,-0.0912291711375955,0.016532540527212,-0.00103461978948305
-0.0169362323382772,0.0124131208917194,0.00799505560418866,-0.00180063639682759
-0.0380456530411727,0.102847395695859,0.00176637732191003,-0.00134764638021383
-0.0461096800150965,0.128101714937452,-0.00137415478786999,-0.000152982504434465
-0.0398259960174137,0.110765181150459,-0.00403292561697514,0.000904311549610995
-0.0232922774429323,0.090136880883665,-0.00494023657070247,0.00140119754474455
-0.00368037173154312,0.0797413136657067,-0.00528858763621989,0.00115295868040061
0.0068289625180498,0.0786323835099374,-0.00725444091064846,0.000201243168253251
0.00978375149019798,0.0713072077963715,-0.00637587020224919,-0.00111934652842771
0.0155733930094454,0.0505605709237298,-0.000950808451794311,-0.0021554148278799
0.0261636957789603,0.0317787216103106,0.00353850739311183,-0.00225367923936714
0.0341435586416795,0.0221234047802223,0.00484074845954842,-0.00134805031747807
0.030683856448902,0.0150773256987397,0.00449157184988923,-6.06844397481451e-05
0.0236356626154951,0.00776664077698113,0.00289514001517786,0.00100811596536927
0.0259373435872638,0.0034193536701216,0.000957388294471543,0.00180508825472966
0.0314306514362332,0.00359047702305925,0.000569389344583306,0.0023041939825822
0.0354429573714301,0.00234021619160774,0.00156956819657351,0.0023289519855846
0.0465908261948862,-0.0099643354360004,0.0023164932460831,0.00214173501415277
0.0551949574321311,-0.0376141248738291,0.00403938038696197,0.00231712137319707
0.0408915533194578,-0.0845145214510824,0.0104897942790434,0.00277206447672904
0.0145285886055515,-0.139757721292218,0.0186249295387935,0.00263795631578818
-0.00226675603831389,-0.178786546903463,0.0201313382027908,0.00136862597104264
-0.0111507975122629,-0.181963013096415,0.016868956475538,-0.000535410270125053
-0.0228989080985793,-0.131335848322508,0.0133711311434818,-0.00211695796835327
-0.0345192930034984,-0.0522237664371488,0.00757094427580275,-0.0027482133227271
-0.0347673039647113,-0.00218866149262728,0.00214294572087853,-0.00233356829131901
-0.0221265405785943,0.0055157664734284,0.00194399232114605,-0.00134353691714513
-0.00253413544966571,-0.00274479393055569,0.00393668455660851,-0.000591065335777797
0.0141765648463824,-0.00740189665062642,0.0035641583683274,-0.000330479926710795
0.0191134662663125,-0.00880598169724883,0.00266417120547424,-4.28134216849906e-05
0.0139546043091252,-0.0121373757823479,0.00303340117807579,0.000553072156272162
0.00436242854110903,-0.0117933985022532,0.00232998057449436,0.0011588492311193
-0.00714412536154718,0.00332333588962162,-0.00128474876289024,0.00147260982096564
-0.0139654522036409,0.0292230457634459,-0.00680482961554615,0.00166521756727948
-0.0121349239140532,0.0433162908206808,-0.00973242775783685,0.00197341928492553
-0.00906237826234777,0.0350898358029098,-0.00857216253365943,0.0021968019119254
-0.00993253104796433,0.0184127491874819,-0.00747573132221577,0.00207228170076615
-0.0115590742954867,0.00770242900024468,-0.00608283683712047,0.00169655324613686
-0.0114345478912372,0.00638190134332221,-0.00218024537198596,0.00124977525605454
-0.0141480901809439,0.00977819167244857,0.000101042630408653,0.000581905415608088
-0.0186456074438693,0.0118815915506262,-0.00177033484358983,-0.000368455999022549
-0.0149307568439387,0.0121231807331041,-0.00345476546262269,-0.000865235457145621
-0.00343869149921695,0.0103538660819942,-0.00353045115609988,-0.000226297993382782
0.00851908088610919,0.00179302417548213,-0.00478570438393156,0.000913938554309973
0.0180389589459957,-0.0186369376782505,-0.00482243933580381,0.00168635049001879
0.0234654756654008,-0.0589500059774391,-0.000627620497141511,0.00182076713432695
0.0235087260144764,-0.120746764836936,0.00565311186979551,0.00098934010377277
0.0179148827866588,-0.136583605636239,0.00780628127581669,-0.000583879673565896
0.0141917778697825,-0.0471818254362397,0.00360158382460942,-0.00187577873794694
0.0237117369521646,0.0656772927193463,-0.000173083467178733,-0.00253247458461514
0.0374120263275037,0.101449951305486,-0.000243360601633954,-0.00322770755929281
0.0311196614370098,0.0618843694812965,0.00241681347199971,-0.00411465677804339
0.00426832581094728,0.000423746788496146,0.0068244259340739,-0.00450264705077368
-0.0215876563627297,-0.041570546221285,0.00779633211588893,-0.00413475941948324
-0.040181793927507,-0.0485461349493363,0.00252233228853059,-0.0031850716826757
-0.0604296124812192,-0.0243582376765212,-0.00558654163663137,-0.00182558853504077
-0.0859938793879697,0.00363122593489469,-0.00969125474665956,-0.000211866819908882
-0.107125820212746,0.0122228154252458,-0.00714936324041547,0.00161864232077063
-0.110309470761364,0.0116368705029178,-0.00671648768827619,0.00323440179695799
-0.0964112221685331,0.0150747739004231,-0.0119883183662087,0.00385824952939149
-0.0745178782882223,0.0146886724669492,-0.0138424597154555,0.00324684630922262
-0.050529198824736,-0.0051832244190646,-0.00826864995951834,0.00193060960401416
-0.0222883229330808,-0.0292498267941937,0.000738443512675029,0.000530201863107562
0.013955367434291,-0.0257334424318266,0.00931843788572858,-0.000974877455339653
0.0456584555178835,-0.0106571582277364,0.0138917170593969,-0.00255555838807181
0.0530807977128601,0.00187585201211907,0.0113467506167305,-0.00360994023085261
0.0371967042404102,0.0270330855779184,0.00532278223251611,-0.00373298507184037
0.018885178206411,0.0531532043107715,0.00429455393874477,-0.00302025119066396
0.0121069442369417,0.0583567216337003,0.00777364976801403,-0.00186661183204891
0.0192936239907329,0.0461319662580568,0.00842049949971057,-0.000773594043199198
0.0354018868007223,0.0352347496809232,0.00624217014816171,-0.000185211417345121
0.0368071611753211,0.0330752186476211,0.00407396416188559,-0.000110844404092852
0.00823182133453271,0.027333792082147,0.00191232097055976,-0.000222926568288408
-0.0254614173717864,0.0132763322122959,0.000324154472905808,-0.000226676055652246
-0.040499105463327,0.00810807944373465,-0.00179059678803225,6.63374856793117e-05
-0.0435464662636273,0.023435862216723,-0.00447508936436591,0.000563243077148065
-0.0387564282842396,0.0475315105097331,-0.00644022724800086,0.000950471454240891
-0.0257821140687935,0.0589974196941494,-0.00882086493073784,0.00101006037175403
-0.00715213982071388,0.0426834914452225,-0.00984935395408838,0.00076557460077574
0.0195403843337443,-0.00762051226763616,-0.00358023466704153,0.000311435576228943
0.0405132248995209,-0.0579366148081354,0.00710027242827457,-0.000391683617014073
0.0374958768438854,-0.0487166374105573,0.0104231981687668,-0.00139142631029286
0.014670642951359,-0.00320957577562821,0.00942653207249602,-0.00230042373195913
-0.0139386418777468,0.00361482307610871,0.0156616204747638,-0.00279696706505071
-0.0347656716917718,-0.0147232874370329,0.0210843733845051,-0.00326407809658462
-0.038236431962347,-0.00382767851146888,0.0148331667593769,-0.00353259047020825
-0.0211361083545051,0.0196862204139967,0.00664319607472809,-0.00277807102244227
0.00895726505499878,0.0213627182302879,0.00789360086402114,-0.00121748196375499
0.0352334035557606,0.0179070581035411,0.0130306499943978,0.000278594687197341
0.041897095382285,0.034469099075631,0.0112759194560113,0.001389980870778
0.0248079681735149,0.0595100435853469,0.00245319349668593,0.00213873747400529
0.00278036563716367,0.0719464499063925,-0.00490533487618139,0.00264439100404523
-0.00798353315791537,0.0688033815831651,-0.00529442511767163,0.0030447125232114
-0.0100506212439201,0.0602399518742761,-0.00260784000316972,0.00311365656796685
-0.00217632699156381,0.0582706023699547,-0.00262490355228522,0.00290510958560576
0.0135109087302148,0.0658542989169567,-0.0048631046328185,0.00318008497205954
0.0246673157041229,0.0761762167961681,-0.00610866811216215,0.00395832139749892
0.0280657317941101,0.0788911618871725,-0.00508669101034334,0.00447767306308049
0.0245300569468367,0.0682381080052884,-0.00212340817936678,0.00453672387232422
0.0127625506064003,0.0477906687208801,0.00102777204215131,0.00418399862721429
0.00298480047516597,0.0243014256339893,0.00290323346013367,0.00305714876119093
0.00856366062665356,-0.00070328553319491,0.00508937821737688,0.000978257687097829
0.0261437867330974,-0.0226602542061216,0.00687263532517337,-0.00156333809226147
0.0393871035730999,-0.0342858686142297,0.00661339042241899,-0.00410741751776654
0.0374373276445268,-0.0318046065558918,0.00600860440161723,-0.00606303287843824
0.0267314276392779,-0.0209331632294581,0.0035435459426903,-0.00654875301976644
0.0167820344819501,-0.0190249115388787,-0.00158700428493924,-0.00512193617373837
0.00817961798278897,-0.0343447107389933,-0.00455630314640222,-0.00230663708003916
0.00189616596697546,-0.0579919610352025,-0.00356048560562456,0.000362505523318724
-0.00430641937620845,-0.0738561478211284,-0.00108539002299585,0.00160164970432803
-0.0126676991046592,-0.0720697659891979,0.000351277579633291,0.00119480916941015
-0.0190808443707162,-0.0456915825369238,0.000239513182196401,-0.000208035369583138
-0.0230485217232848,-0.00561877699225818,0.00200816447573801,-0.00114043630418511
-0.0279259537897832,0.014923422715251,0.00423318962243346,-0.000357024791914042
-0.0334178540346921,0.0166391379150375,0.00097181239670582,0.00179180838896524
-0.0296387316212014,0.0230167075749403,-0.00469551464523336,0.00427407918347606
-0.0114342462052067,0.0315765494061737,-0.0068427161811845,0.00631030607048613
0.00277355771164425,0.0208086106771016,-0.00486903163812303,0.00705977814363812
0.000318705189712106,-0.018230138328499,-0.000911390553853779,0.00590003367955808
-0.00187660933133097,-0.0486691201987451,-0.00158420405902509,0.00292597070948447
0.00332389072151713,-0.0411213124593003,-0.00899369555876564,-0.000483835258551423
0.000204867034134377,-0.0233881441417633,-0.0154544547655236,-0.00255316717309511
-0.0146020243765432,-0.0228347404389236,-0.0170358608188131,-0.00285449406696386
-0.0244375338433876,-0.0343692803357411,-0.0157061346454015,-0.00188789728711452
-0.00897549430980604,-0.0539171643295246,-0.00662907558655982,-0.000470536450601241
0.0229139665603811,-0.090683034564382,0.0092281905970913,-0.00012227377575292
0.0354479927717713,-0.112707809035002,0.0145574958531506,-0.00138415186723231
0.0217326307800459,-0.0858724712429466,0.00656309953668823,-0.00259392516735953
0.0113031437868272,-0.0502783518455948,0.00128027968003669,-0.00257294525894693
0.0150454760815247,-0.0433029794409144,0.00148940017407432,-0.00209828402591487
0.00768137834949944,-0.0530534676475997,-0.0008692101822076,-0.00219528529419245
-0.0156825760255368,-0.0513175158313426,-0.00513803443782978,-0.00284386799029545
-0.0275165377774852,-0.0204529363860177,-0.00842368777555912,-0.00322461659911016
-0.0159727536390261,0.026697733379407,-0.00860968233058893,-0.00247707204731659
0.00825711875353954,0.0718847771241972,-0.00344684838521626,-0.0007599360609662
0.0304356223772031,0.107124024430358,0.00209591315847389,0.000371647509004963
0.0388054723596011,0.124265406012341,0.00551524340888609,-6.06609588135313e-05
0.0289699004982267,0.110501759580776,0.0108300503951177,-0.00122951390941058
0.0110728149500555,0.0531199725666282,0.0171092375019973,-0.00175867382284102
-0.000633515280829992,-0.0261525675185504,0.0178704250782121,-0.00152058983077033
-0.00447244906127046,-0.0799002483467759,0.0109984846479973,-0.00126618041374713
-0.00502888882590175,-0.0918658588581153,0.00342058114167437,-0.000873271250048917
-0.00516989496200321,-0.0764472886535492,0.000417664827548639,-9.75722406831945e-06
-0.00736251213314646,-0.0445755915372189,0.000281717400483782,0.0008190503449074
-0.0113108739293763,-0.00803028267939325,-0.000570693100038442,0.00107306952225724
-0.014479289125316,0.0172221821982674,-0.00287105980158351,0.000849318673552643
-0.0182924834298331,0.0277610259603762,-0.00343075773671881,0.000497410294958268
-0.020498722423878,0.0317313816817058,-0.00187662473413697,-3.04162548259062e-05
-0.0137915682780627,0.035291407077731,-0.00110200360191978,-0.000821280302797523
0.000439693389343757,0.0395213185637676,-0.00190326842468119,-0.00156408817786158
0.012003395463428,0.0434077026868103,-0.00193597046890457,-0.00174874253664272
0.0156123414285002,0.0419863786808729,0.000395591251595208,-0.000937548797039973
0.0183851247655299,0.047779896981219,0.00205379145193717,0.000450791813401228
0.0252679835726137,0.0693352353021761,0.00188399447701023,0.0014905520540548
0.027872518621972,0.079057356272009,0.00255204937353018,0.00203808866980633
0.018261153114395,0.0720954846340408,0.00244743315866599,0.00232158920385734
0.000598911011597269,0.0682936014331435,0.000432422956969871,0.00226179648041702
-0.0113908996826992,0.0623393793981057,-0.000496506396802949,0.00165161071734902
-0.00600936856983437,0.0475829473471081,0.000244939276777047,0.000445628486972957
0.00847373997549369,0.0321304859851079,0.00296372878077353,-0.000798807588861146
0.0137948684749328,0.0218559205581193,0.00554824821769512,-0.00164355226694658
0.00817335653957682,0.0198351436136672,0.00390550586585779,-0.00207737840812547
0.00318104064800409,0.0270958240884694,4.60592953365081e-05,-0.00160025756150436
0.00478441395399574,0.0430578168737318,-0.00164547226198949,1.56805094786938e-05
0.00686178507071957,0.0416831998786396,-0.000326017255188809,0.00172746108428775
0.00624691420421984,-0.0357665547171657,0.00448817339215908,0.00229041494180737
0.0029436764219575,-0.154292566820237,0.0140986646941057,0.00153914138949157
-0.00919798193129192,-0.182397532851087,0.0218570978783755,-2.15349802850197e-05
-0.0243783224957278,-0.102974483264148,0.0202069007020202,-0.00170930415381526
-0.0273898906055973,-0.0158667738798302,0.0115819353532575,-0.00241221804088562
-0.0159991156284738,0.0279733414404467,0.00189669902043706,-0.0012522814995163
-0.00508184400559654,0.0434538503994498,-0.00485549977318632,0.00142258157272009
-0.0095178105756747,0.044577217504277,-0.00916059986769587,0.00402041036680904
-0.0224268191130375,0.0391350803686123,-0.0133520533292233,0.00516017437410933
-0.0272240487005083,0.0325864170947156,-0.0172804593641289,0.00498981256475998
-0.0198014989093196,0.0193946288328556,-0.0179781649896005,0.00447102535141557
-0.00395014190069426,-0.000509966070433092,-0.0124525764738732,0.004023985903318
0.0143269099704858,-0.0198837730734147,-0.00256451963091395,0.00328256854718265
0.0245740421757505,-0.0303044691369519,0.00447145122705908,0.00200592768185017
0.0233713622345152,-0.0270400525180209,0.00365082518831429,0.000359674483106691
0.0154147552044064,-0.0223432164349498,-0.00107111074211777,-0.00136935832710589
0.00472017977931005,-0.0289349348342867,-0.00475209916066172,-0.00235502811066439
-0.00420949285796051,-0.0391561882511023,-0.00811312257698878,-0.00177679504977006
-0.00775308805524479,-0.0421861910322216,-0.0117245188317012,-0.000204555327339849
-0.00485372295090596,-0.0456975681421413,-0.00868852654979299,0.000877841766756775
-0.0044795258527227,-0.0605012605759324,0.00263140446041047,0.000614135034850651
-0.0152676456742539,-0.0703302339447821,0.00971038484193855,-0.000795030766549846
-0.0246249666780897,-0.0604230145065642,0.0076666095462132,-0.00218008428646996
-0.0216256226870452,-0.0395089486401778,0.00230378234605041,-0.00223243624338389
-0.0176392163653502,-0.00862589859144244,-0.00263878634553382,-0.00110233467771511
-0.0274054064105364,0.0179452947474489,-0.00606795328883943,4.13982954670634e-05
-0.0503583679520126,0.0183533291407219,-0.00829032743267645,0.00052012869774453
-0.0716911582478927,0.00708567435404515,-0.0093925813258462,0.000278732105640274
-0.0749108534278295,0.00116872315483914,-0.00687078604263382,-0.000529802610225983
-0.0565702680913894,-0.00165389927735447,0.000510941698490646,-0.0015357332586149
-0.0307687086238612,-0.000640131248193947,0.00547759434871908,-0.00213740531368905
-0.00303627241611797,0.0144054726604007,0.00212659098832978,-0.00195866581756797
0.0321569724401303,0.0422356528028399,-0.00383465531918154,-0.000984155278759243
0.0557805915893813,0.0615525184745173,-0.0057775830235945,0.000492306503332401
0.0506182799275548,0.0595798367248881,-0.00566051624385673,0.00195146150205297
0.0333948106340587,0.0309880190150536,-0.00561187522897088,0.00301788754559951
0.0212344332854418,-0.0325541260246405,-0.00260150090264204,0.0033497962182727
0.0137377765529829,-0.132025054749151,0.00344294565150352,0.00257589019909404
0.00941132024731669,-0.209815071235743,0.00864969416513008,0.000886615373325007
0.0173521890784775,-0.195515983330459,0.0101451370108872,-0.000970878239134236
0.0339153039855949,-0.12313887573939,0.00778474598115795,-0.0024636599089737
0.034021543539207,-0.0515212228811553,0.00246585297277005,-0.00341933702492663
0.011887210280728,0.00415589854644394,-0.00471244324029161,-0.00360439136647244
-0.0118093756473468,0.0359985719939037,-0.0109741892594487,-0.00294772635417732
-0.0249367546565779,0.0433967756368065,-0.0140090703645084,-0.00181920346823175
-0.028909713432251,0.039883837891445,-0.0137975735483631,-0.000588724193893394
-0.0244676662667078,0.037546177024458,-0.0108398905941609,0.000757035480448721
-0.015575772032803,0.0367030800869314,-0.00761714515785086,0.00199790465240705
-0.00713711573151996,0.0398454077965037,-0.00750551705533752,0.00232611709619664
0.00109166862540399,0.0482368411867984,-0.00623872501797947,0.0015223558025023
0.00877339702505598,0.0479258144812085,0.000463955080785999,0.000169686424164683
0.014814561386378,0.025334774761864,0.00725741659358882,-0.00156987467971281
0.0206259089540483,-0.00620208949848359,0.00891737592762113,-0.00345059895404706
0.0286884021683328,-0.0256618806941,0.00485148089538078,-0.00431636887749831
0.036837630808391,-0.026875923562759,-0.00151577627812464,-0.00355698084512036
0.0363444130052966,-0.0196978616129469,-0.00633478553522936,-0.00189807571845672
0.0195314665831395,-0.0178452093423795,-0.00880428985935553,-0.000459254807057825
-0.0079845999561159,-0.0210362899303025,-0.00738189403072177,0.000368951159369015
-0.023688373559509,-0.0258976566394827,-0.00218733569575431,0.00109288814994394
-0.01166692618793,-0.0316579045906084,0.00357342766686425,0.0020475076130382
0.0116651188485199,-0.0289125676102858,0.00550953467291329,0.00288239926780478
0.0216207629227789,-0.0143566456969014,0.00223161784062616,0.00275091992782527
0.0169420950154134,-0.00678248291178545,-0.000796509069806775,0.00138685442234966
0.00608408694030406,-0.0162655898478095,-0.000879650306417872,-0.000105149437676272
-0.00331997493999471,-0.028663316250664,-0.000847579878343846,-0.00079898584214032
-0.00431041163817695,-0.0407970729059305,0.000368318687224198,-0.000728311308470934
0.00176292345069662,-0.0546885201813032,0.00485751985734861,-0.000336460776877023
0.0106444081403053,-0.0550475901864278,0.00664554246819152,-0.000431235351323631
0.0189768767690205,-0.0424131976285973,0.00186429420220038,-0.00104188328587024
0.0211870577672465,-0.0365130254328499,-0.000803514932070551,-0.00121608764661445
0.0141264728239958,-0.036197000760473,0.00454395241912804,-0.000763199330416238
-4.59789370072794e-05,-0.0265195846080884,0.0103661165950354,-0.000595021667851091
-0.0143583280923695,-0.00899833547977399,0.00798156384320938,-0.0012868051919353
-0.0231749205462228,0.00896420282992524,-0.000239737104507975,-0.00190461163831904
-0.0247666072775268,0.0256235682597497,-0.00583963472499046,-0.00104615293399107
-0.0176940282166417,0.038858813718061,-0.00564081374267193,0.00106640379657488
-0.00370513710930674,0.0465595984698336,-0.00288406587886289,0.00291169596386788
0.0120656468793793,0.0427379273956584,-0.00134441860792835,0.00354619309216174
0.0228483978109131,0.0236705529139342,-0.00160437223074245,0.0029108321399473
0.0226172742214057,4.17224624674091e-05,-0.00166620937616099,0.00164344138801789
0.0119055230340363,-0.013407777717016,-0.000136871337665641,0.00072601538481062
-0.00375584351207171,-0.0152516259411075,0.00183527916394759,0.000283038985677048
-0.0168763911029009,-0.011183078660655,0.00186684728479906,-0.00015525908182908
-0.0218929860789032,-0.00518534335262357,-0.000562116900736674,-0.000537654856309833
-0.0203877236428087,-0.000220575077818919,-0.00366883485196582,-0.000562230580594695
-0.016166188024604,0.00891696488872813,-0.00613791897939911,-0.000219765665029102
-0.0139972461892265,0.0330950460206739,-0.0100471544901113,0.000123338491836942
-0.0149925864501049,0.0623114462884921,-0.0143224814086956,0.000120699468138954
-0.0133422921837928,0.0678221961233487,-0.0127791323162734,3.99202300116712e-05
-0.00569114073838766,0.04417792034219,-0.00476758826377752,0.000439531099274642
0.00253903643105616,0.0190036149723028,0.00172140914073795,0.00144407817529912
0.000111642756352847,0.0225520569871084,-5.62421854165621e-06,0.00236286716100811
-0.0106799048639188,0.0569938648484037,-0.00657992807149532,0.00235279019631462
-0.0117706256209401,0.0941485220963816,-0.0113983982820146,0.00150602616691743
0.000781487721905119,0.105879010660049,-0.0113935283678054,0.000685085285074515
0.0137775293231246,0.0881221244176303,-0.00901401972320201,0.000308283144526817
0.0224684861500146,0.058177900695332,-0.0081849304983371,0.000259343676980432
0.0269048290202636,0.0240019675763847,-0.00549563443076436,0.000572567301166905
0.0284711848691055,-0.0202900666159401,0.00157641570245554,0.00078138634132007
0.0333206386078593,-0.0439071707132452,0.00736168239353919,6.43686875629992e-05
0.0396512667802123,-0.0332317112422157,0.0104869443616582,-0.00144017407435035
0.0388045844299793,-0.0425580148326133,0.013871929258644,-0.00272352762175781
0.0205021336654301,-0.0694562051452465,0.0144784685698441,-0.00300668851418675
-0.0159576716419237,-0.0460833580914383,0.00859670152736498,-0.0021251922045353
-0.0496044089737085,0.0386083330953121,-0.000103962577871309,-0.00050735174847216
-0.058406206102095,0.114432366413627,-0.0035377478171327,0.000836450885735411
-0.0430539536446468,0.108543684797597,-0.00221759394368447,0.00108363657413964
-0.015807603108276,0.0490960925485662,-0.00287659084292435,0.000486607955353495
0.0124436193087646,0.0100056259223554,-0.00466037921509719,0.00015931676281542
0.0267478900634377,-0.00464355162826059,-0.00373936962279728,0.000626059308140493
0.0160955604521749,-0.0107883942000719,-0.0028811976612385,0.00118586545851155
-0.00511984416491021,0.00889146801980456,-0.00551589907180328,0.00132464934872305
-0.0139438310313281,0.0457408715967268,-0.00840841608476209,0.00130300762480674
-0.0123379289379555,0.0634000877882473,-0.00941807092621628,0.00116417533696622
-0.0099102187884629,0.0597321707830676,-0.00929735175346056,0.000662824778274122
-0.00449746285586437,0.055144764654698,-0.00736254517493491,-0.000130072824149794
0.00545351093775264,0.0555159249938766,-0.00343519866179839,-0.00102656422358565
0.0168208354232996,0.0532092557584488,0.000359475739992426,-0.00175617072136865
0.0243855176926373,0.0264103986651749,0.00511264764283628,-0.00187341402041602
0.0178023631024511,-0.0178826196281012,0.0128786444179652,-0.00168613394102685
-0.00762059184749011,-0.0317917933409479,0.0177685378350835,-0.00206572814483677
-0.0367234152008751,-0.0153853964865866,0.016586469610883,-0.00288631574943281
-0.0475007496489855,-0.00939936196575575,0.0148028179728014,-0.00328318345527507
-0.0335696197691621,-0.02498770726422,0.0156358119743894,-0.00309385500227775
-0.0125248295628341,-0.0475698357072106,0.0155404978264173,-0.00280764981208812
-0.000943493311296135,-0.0625173671855721,0.0114638945872044,-0.00232809922689194
0.00287614772408739,-0.0666992328112343,0.00709352959762632,-0.00130311290297967
-0.00115522645995747,-0.0661892312317666,0.00617142671264078,-0.000261692478300989
-0.0112394792524272,-0.0667524022381308,0.0058176005371083,0.000311484282854459
-0.0177506130414545,-0.0651607349796556,0.00358628765388415,0.000649454673361909
-0.01940693352397,-0.0632681358456316,0.0023140273807182,0.00103999532124643
-0.0206765740799867,-0.0691489802760753,0.00354886719905413,0.00161672430286926
-0.0224437719464514,-0.0770142006067025,0.00429663139356093,0.00206748839245785
-0.0223099183975714,-0.0787692645622408,0.00449442308097044,0.00198840175239905
-0.0178829780178778,-0.0741535716706169,0.00581172280731416,0.00160902707954239
-0.0123953738045344,-0.0619446476842477,0.00676730073882824,0.00114617132603939
-0.00820638519868964,-0.0388325531422446,0.00698215577415636,0.000600524431973353
-0.00244644186578472,-0.00454909397238432,0.00696650259491182,0.000212055173171291
0.00427951147194644,0.0311558785269311,0.00634707911620377,4.49920911860537e-05
0.0108144329136354,0.0511157739259227,0.00508275909885593,2.6828640471376e-05
0.0154966040463897,0.0532813312983325,0.0029485004129901,0.000199852338271555
0.0137932188063076,0.0521252791890519,0.000691370958452557,0.000291213453581978
0.00517462437531325,0.0509525877455882,-0.000546230210038624,0.000136480860941134
-0.00689729822515669,0.0363844590957199,-0.000224869426080561,0.000142397551964297
-0.0143743431505175,-0.0011855323242002,0.0043878395429465,0.000554381333489533
-0.0110874977224948,-0.0306808239900989,0.0088373237852891,0.000990928889870676
-0.00757107641497745,-0.0209299631897031,0.00435202621519122,0.000985772171311489
-0.011470361051553,0.00185522157069019,-0.00226255642488475,0.000579044285397906
-0.0139258042774848,0.0108559893989111,-0.00290099081139497,-0.000170135429930624
-0.0113470161470369,0.00147554211022034,-0.00381308388711139,-0.00104109455809003
-0.00491219340702559,-0.0237158471186784,-0.00777205831280922,-0.000954603263355008
0.00399081396977189,-0.048547436920057,-0.00961820250225363,0.000465542741774595
0.00994415776981558,-0.0716434586681685,-0.00694924238217174,0.00190267710449878
0.00992955015432507,-0.0821111212343607,-0.00249312510808174,0.00218682651427426
0.00359403682257651,-0.0612205812533644,-0.000163258547787117,0.00161058266781314
-0.011637142733202,-0.0319314447554805,0.000389041023048835,0.000844391131889385
-0.0270489562136044,-0.0119552645522742,0.00106391807651582,6.71822306724078e-05
-0.0302500873713267,-0.00601977899855542,0.00201907462543552,-0.000482013934952213
-0.0302708916380536,-0.0121557906555028,0.00229884480907055,-0.000704489002622706
-0.0324369569318877,0.00201457467313736,4.64747308615405e-05,-0.000699113065253822
-0.0317242199925025,0.0454017392135136,-0.00470186463192904,-0.000122074839489533
-0.0309552590835099,0.0930943402893847,-0.00878422113225384,0.0011809610769888
-0.0333594907399416,0.131245198036127,-0.011320516564307,0.00252990755381736
-0.0424601614068822,0.16799152588663,-0.0145061897260151,0.00305664668974516
-0.0620181590800431,0.208897933260795,-0.0152119588116525,0.00259142269303177
-0.079047652440414,0.206483797143132,-0.00943430773983128,0.00137681718987795
-0.0693259046968229,0.103733968985905,-0.000347069925828336,-0.000560396482645058
-0.0388998933954983,-0.0386232236464468,0.00695892196695126,-0.00285608055683659
-0.0135539956518229,-0.112845672065545,0.00872463084795708,-0.00460803290297756
0.00363921172207378,-0.128719954509459,0.00578940732872944,-0.005130174621099
0.0261710565259435,-0.115048229404577,0.00305329834852832,-0.00437061988739413
0.0541283730292599,-0.0540941746257845,0.001547364512019,-0.00260750720029686
0.0652582066223272,0.0154352901676447,9.01743538818042e-05,-0.000475609836391751
0.046623694414632,0.0446049126046595,-0.000397847657185054,0.00114542991614486
0.0153535464395911,0.0458668804653552,-0.000777954880955188,0.00184474223662226
-0.00376503484153379,0.0546558416622622,-0.00374581491281237,0.00175791812143666
-0.00396032627878042,0.0779942178806522,-0.00923087233224433,0.00135877193058055
0.00816198319903897,0.0939110823794117,-0.0106183858759632,0.000963453133562692
0.0209412398560917,0.0872905507994259,-0.0032185092173532,0.000364138371993235
0.0227740406143103,0.0642340143702168,0.00344230122059829,-0.000682289999172941
0.0109225969520932,0.0397241617075345,0.00156061600804704,-0.00189028641981805
-0.0104530811219272,0.0224368735919073,-0.00280464258006592,-0.00260363876107748
-0.0253674455477824,0.0150381666849797,-0.00387915035960572,-0.00244570883195108
-0.0226813937592448,0.0112953260561511,-0.00474937924147601,-0.00175254041051829
-0.0169263167958842,-0.00213578883900299,-0.00787908862042932,-0.00102365762517301
-0.0181254917595975,-0.0260544697418332,-0.00725373401350736,-0.000400231865679705
-0.0141158715201337,-0.0550335223199204,0.00187062038309067,-0.000370734104594475
0.000271685926837649,-0.0863222447943947,0.0137024638850926,-0.00147005202731857
0.0122056870450904,-0.103863131831228,0.0191297893260242,-0.00309635843135381
0.0142297776226155,-0.0910436337982175,0.0187364266521721,-0.00382611830043878
0.0139238148628417,-0.0570360473731603,0.0164839721331025,-0.00323032243167472
0.0239718569813102,-0.024564502025893,0.0118308166012009,-0.00201555575257795
0.0457237750874687,-0.00452755797917664,0.00643478012216174,-0.000560343804197064
0.0631844063561012,-0.00229974406071763,0.00380250861566386,0.000922825803010558
0.0652415058221278,-0.0144205017155962,0.00262459401417557,0.0019796849516987
0.0565568377377751,-0.0209962359537111,-0.000541851035371909,0.00262964841930897
0.0471805040963256,-0.0217516689364604,-0.00219913907786926,0.0031881360766467
0.0438700574568246,-0.032884538836607,0.00194567150747831,0.00344433820851228
0.0435809527346383,-0.0450845708924806,0.00732101556844136,0.00317398138230179
0.0402794746857696,-0.0386556800572357,0.00586222670023445,0.00260075639208457
0.0360045783784843,-0.0202678641137802,-0.00086048857458378,0.00191922915663803
0.0330670135543069,-0.0153826718749196,-0.00350464960143788,0.000973032209023592
0.0289895295698554,-0.0288374819502459,-0.00152975055195164,-4.5371542319662e-05
0.0234901513194119,-0.0375013358651365,0.00117252340493462,-0.00084349906854317
0.0160250041813491,-0.0294670065304138,0.00276161258251291,-0.0018940611542823
0.00623962451486157,-0.018166980097622,0.000815183657183107,-0.00304565122621932
0.00125742782222183,-0.010667539889893,-0.000770255244520155,-0.00331659839716504
0.00477099431960088,0.00141909119261098,0.00083927016241742,-0.00256085785613742
0.00955397011193881,0.014653960415414,0.00215626077188702,-0.00138086165836174
0.0108687966854799,0.0144002590626009,0.00108464866375143,-0.000245824821362547
0.00983069338971385,-0.00162055737713906,-0.0023744104288226,0.000580219422077782
0.00684115223478796,-0.0227190899691175,-0.00384582009304684,0.00136799192857608
0.00375508932378916,-0.0417407200250256,0.00133003357405568,0.00273643297379123
0.00434438728480166,-0.0514575495946102,0.00923729483625218,0.00413879198317518
0.00739199679119314,-0.0366436500720482,0.0103793603538308,0.00415534942584547
0.00592524211503391,-0.00320270527601846,0.00221320199239607,0.00261005968165368
-0.00200327365308295,0.0118974869540533,-0.00752343724534021,0.000836845968982903
-0.00625536174686467,-0.0025735275388171,-0.0100247847067602,0.000184308231452891
-0.00110141695693804,-0.0170874585941248,-0.00326886686357434,0.00086287802664148
-0.000852115509013485,-0.0158934368279528,0.00564442679852207,0.00201956213929013
-0.015836784632355,0.000104335909228176,0.00769064778750719,0.00268890111545991
-0.0300028041436644,0.0318597638952584,0.00310138377803838,0.00216234456292615
-0.0261641110389701,0.0679743131096984,-0.00139415652629439,0.000633122329166524
-0.00615172429360343,0.0836119486978544,-0.00200541976072516,-0.000605987686009648
0.0176671368908763,0.0642559906426827,0.000917283740389551,-0.00118816659731799
0.026958835531003,0.0188633292062397,0.00287330669997782,-0.00182646536797623
0.012785133440618,-0.00854299954883567,-0.000685767824184053,-0.00226021829274521
-0.00496980984552506,0.0218372626557138,-0.00741990906500433,-0.00185447847705062
-0.00260738774818096,0.0760529768906382,-0.0104106282945032,-0.00104842089627816
0.0128542972303062,0.0988278159839658,-0.00799159021526383,-0.000608155339327899
0.0243876155623541,0.0805164904791534,-0.00456409996238157,-0.000512585363062335
0.0291995165241929,0.0420883751898086,-0.00129996968860227,-1.68843125762589e-05
0.0211723730127647,-0.000514586685367621,0.00272319808618001,0.00106143699526545
0.00253189841110882,-0.0443756921316264,0.00506909576834499,0.00217848986784792
-0.00266464896030969,-0.0720157730254374,0.00470417808426026,0.00287770339212812
0.0054896088818839,-0.0654269652654702,0.00436129590184123,0.00282046649366196
0.00436387395451279,-0.0346737598777172,0.00402263144963052,0.00189299917987549
-0.00328214367387843,0.00196653950918071,0.0024004969233384,0.000487088762075119
-0.00538161732880427,0.0351951410729584,0.000452218626096476,-0.000526641437755058
-0.00338950661544741,0.0572315088563887,-0.00261372010456373,-0.000755307891324197
0.00576805076550476,0.064695305264417,-0.00527279415800477,-0.000461137589789085
0.0226903365102471,0.0616742202074618,-0.0052529393145054,2.69870805925863e-05
0.0343690100202656,0.0550337788912502,-0.00588137482513406,0.000288832355699268
0.033694358941201,0.0521870655330146,-0.0081442902176325,0.000239095420005915
0.0266143695994375,0.0498342249297516,-0.00926535616581805,7.83844920097204e-05
0.0223139626384122,0.0402055616322104,-0.00863246372015347,-7.13186264606702e-05
0.0236272033484393,0.0266636777185816,-0.00455151039969165,-0.000155500247409838
0.0260294962755161,0.01713706270173,0.00181694891894923,-0.000531763294792576
0.0263198097440794,0.0166069468187507,0.00324808090725844,-0.00132740020869514
0.0192399283433939,0.0193777400200797,0.000327358940415845,-0.00192503911880619
-0.00272710285620419,0.0133271955263861,0.000457537352335122,-0.0017593895373658
-0.0369795284909512,1.88119360458247e-05,0.00442451922290929,-0.000813507481532986
-0.0662707854998418,-0.0127581475862453,0.00825806868894279,0.000179340178536778
-0.0678320092053857,-0.0235147630324383,0.00917153807581349,0.000523199822684513
-0.0421701921061102,-0.0308016127289327,0.00679719237801731,0.000507069064477261
-0.0143199023268707,-0.027053007149217,0.00386473317475247,0.000799604685649772
0.00215494516418926,-0.0064718024385467,0.00125068737591629,0.00148340047701605
0.0111723272091261,0.0119384479225112,-0.00264672171203141,0.00206365245975843
0.0138771028553996,0.00610602087692037,-0.00483735306790201,0.0020473743091607
0.0119832892811619,-0.0185842611216055,-0.00383599861530878,0.00128648943545834
0.00972739941407608,-0.0453429735711558,-0.004244099064347,4.88162649799756e-07
0.00456745377412691,-0.0615264614659773,-0.00735870476164877,-0.00109989236103576
0.000890678161204663,-0.0609369601466199,-0.0085928005288142,-0.00107423474070032
0.00750763954244079,-0.0449946406841817,-0.00792676423447766,-0.000134774637558177
0.0179485574600742,-0.0254226988869209,-0.00870496378233687,0.000167480882738792
0.0135701722908422,-0.0152855415625448,-0.00610196448425023,-0.000879976063641898
-0.0104978324638955,-0.00779237149921498,0.00087421269356171,-0.00224077744374447
-0.0323429774327807,0.00351868166270494,0.00617253679623859,-0.00257729456792898
-0.0355622617704842,0.00597999231431479,0.0101173067052639,-0.00187677312193636
-0.030601679284971,-0.000395464692689237,0.0121310181922729,-0.00152433461105314
-0.0305883254361804,-0.00572609460399182,0.009680941961918,-0.00191237253469139
-0.0329298310446908,-0.00323165544835832,0.00474666303979645,-0.00165146312408634
-0.0293874729015965,0.0108966083224422,-1.31282419760428e-05,-4.03018521319626e-05
-0.0206704944888872,0.0241215215786366,-0.00416220985104002,0.0019012803194095
-0.0148133812610673,0.0230704375578825,-0.00703833494184007,0.00307735831579134
-0.0135198277333341,0.00771128981127943,-0.0044436658784254,0.003347847543766
-0.0124927619227054,-0.0133232049836352,0.00312038281366727,0.00280866091769633
-0.010064615681002,-0.0231858827633762,0.00714549978660808,0.00149303375672094
-0.00779496789474233,-0.0155841161372099,0.00525071811307802,0.0002124220314686
-0.00797133949403541,-0.00549807170430583,0.00210285535677264,0.000140557711032635
-0.00806465888032422,-0.00533258095382285,0.00112087007725377,0.0010513744204755
-0.00408170542588583,-0.0111207970856869,0.00269925759116912,0.00168356127899273
-0.00182466407396197,-0.0154503645572359,0.00396312868175321,0.00119107463590283
-0.00752829356108585,-0.0170556554605699,0.00441091690627913,-0.000537125896657758
-0.0122873243790617,-0.0169946033266941,0.00491592237057373,-0.00281029389581124
-0.0103345089974558,-0.0154864346961283,0.00375419786142715,-0.00450330934471627
-0.00889557251589317,-0.0129368406196902,0.00189259814057281,-0.0049841803717658
-0.00946670453232712,-0.0116078152904343,0.00162464538047112,-0.00423840675435446
-0.00951510052066563,-0.0130225704422342,0.00149658724608187,-0.00261688517896062
-0.00787369931801628,-0.0141899717640239,0.00102166586292332,-0.000981124943873536
-0.00504049716025776,-0.0124407581572105,0.00119101966835747,9.81816461907677e-05
-0.000283198931890426,-0.00940892875778414,0.00221537894539995,0.000658903133453168
0.01104124614172,-0.00690876593104024,0.00337655206489986,0.00104172988671627
0.0249211913654268,-0.00448523945928501,0.00205367014002824,0.00169383678575847
0.030875720232732,-0.00102841553483047,-0.00107568646113664,0.00252925368237539
0.0271374072692447,0.00347361303452278,-0.00272008327155148,0.00304201620343823
0.0229251537384102,0.00611749405343473,-0.0030889380382699,0.00281070588771071
0.0222882435471454,0.00275444036181808,-0.003240745482968,0.00188955859485569
0.0166801514571895,-0.0126100567461898,-0.000685187647251893,0.000734973173309987
0.00729043747353867,-0.0339557739171811,0.0039382636430828,-0.000425344950237125
0.00328804379908577,-0.0413596580882754,0.0033756105747144,-0.00131172333818361
0.000453088461493723,-0.0337724386041136,-0.0013866775676507,-0.00142342488067805
0.00309580578539902,-0.0209707368445658,-0.00246075560679455,-0.000772579293040461
0.019041490168985,-0.00443701443186993,-0.00160977635873547,9.01034426605968e-05
0.0296962529742368,0.00775886244489474,-0.00521308299464755,0.000532882023510521
0.0213080743395358,0.00599310685441741,-0.00921169353574753,0.000451267183674395
0.00815068153214286,-0.00734619214036901,-0.00585783330294973,-4.63481804919949e-05
0.00396887478234632,-0.0267834511668645,-0.00129299961595423,-0.00110529046131881
0.00791205745885885,-0.0450361974886171,-0.00327557783130257,-0.00206168922198483
0.00842974229430697,-0.0488810253755585,-0.00733282574088964,-0.00191437745001864
-0.00643959819257139,-0.0362503801703394,-0.00730820920056656,-0.000868417154435738
-0.0254709634910729,-0.0187262472084302,-0.00347412310341979,8.8586920982523e-05
-0.0322866186831803,-0.00383531573710749,-0.00147923112434018,0.00023057548431129
-0.0308511685915919,0.00851180690277342,-0.00362725508771556,-0.00016702963217527
-0.0268677806962861,0.022534888674646,-0.00557219675923884,-0.00023291880033673
-0.0199508914447996,0.0359894429920828,-0.00647683190911418,0.000117335316295661
-0.0112384041037853,0.0351387902782154,-0.00787026822140842,0.000434093073758582
-0.00629813552828119,0.0091726509535198,-0.00817753814372906,0.000781027773122192
-0.00931238965696917,-0.0234426471289755,-0.00865872512494663,0.00130180143301765
-0.0187491565982861,-0.0217885201773665,-0.0102019685143319,0.00163266077013405
-0.0348550976680194,0.0110816719950113,-0.00966558586325763,0.0014564713535171
-0.0484457500083098,0.0379294426711838,-0.00683700038078471,0.000593275990460652
-0.0428461033388008,0.0561501407805822,-0.00491103171189525,-0.000940434868727264
-0.0223437836404389,0.0621438140797405,-0.00506819602257413,-0.0024915340420437
-0.0050914205268387,0.0425216528280043,-0.00664038976476818,-0.00338429577421961
-0.0001809869977972,0.0163947379352615,-0.00661459636455107,-0.00317066385104595
-0.000723225122729106,-0.00347270479437289,-0.00333489966063841,-0.001832292039487
0.00429135633436317,-0.0326407343614896,-0.0019904480820926,-0.000155758210869642
0.0182431080548548,-0.0870368511415168,-0.00151154680788671,0.00126603649074888
0.0401277510107081,-0.117397067676912,0.00283424685210982,0.00208164281230502
0.0556359540292768,-0.0650139158212575,0.0068596066021982,0.0018295890307947
0.0524010816815935,0.00275612751066674,0.00855251396422307,0.000679516088773492
0.0319859388711715,0.00316308325297542,0.00936431874234708,-0.000704024797188088
-0.000449636161155495,-0.0327818819907348,0.00796482671433556,-0.00153538476150367
-0.0338458643396486,-0.0368989001297194,0.00434913332117698,-0.00133493704021623
-0.0581247420466901,-0.00309013401489387,0.00099295046484621,-0.000730148161355816
-0.0643986312418063,0.0312731623981407,-0.00229232354819303,-0.000708100638682467
-0.0511331061582487,0.0499289454018578,-0.00545407926559653,-0.00109560578410459
-0.0320820075762411,0.0571318401211363,-0.00423046741149947,-0.000847922076503504
-0.0166879370747085,0.0589995359495256,0.00249981497919735,0.000243581536435805
-0.00539763215340997,0.0621768840449181,0.00821436884983188,0.00113302019154806
0.00167849657385253,0.0715731324871333,0.00568073292981755,0.0011458234947589
0.00525886175596155,0.0860514074214136,-0.00107010300612584,0.000751627585911863
0.00207038351528507,0.0960348957110772,-0.00172538329319767,0.000474174270323841
-0.00803920386475086,0.0899675142797804,0.00426383485371949,8.1222237681072e-05
-0.0150285970985187,0.0728437527506139,0.00778640505744085,-0.000726912651654011
-0.0120552387973124,0.0578031673356678,0.00508480907925328,-0.00159548547021452
-0.0132218408688813,0.0452089952131691,0.000989570538544629,-0.00204931737703769
-0.0306981918847411,0.0335767847512201,-0.000880414622304051,-0.00188136400821675
-0.0453331379969042,0.0279867880591378,-0.00142229177411968,-0.00128066824687225
-0.040199982773261,0.028222872782252,-0.00115938387053256,-0.000865659202259011
-0.0226352292112289,0.0221243106240441,0.00210677968880864,-0.00108950849258715
-0.00318380827083541,-0.00736896731958563,0.00738615287723763,-0.00175781168848897
0.0167853162223722,-0.0652743796655521,0.0119356573618507,-0.00198070142906948
0.0361653555419199,-0.112225466118277,0.0133158866323004,-0.000950934747828056
0.0452472352320287,-0.0935259661526594,0.0116481639547007,0.00097745486944099
0.0425154054545436,-0.0257257407192909,0.01101339333718,0.00267998641498293
0.0406839282270083,0.0311695729111793,0.00945409793206618,0.00348224446639614
0.0453463217372551,0.0553618706599171,0.00424706479445647,0.00346276900043771
