0.023291,-0.024533,-0.0096104,0.0058723
0.026615,-0.0079131,-0.018448,-0.0046766
0.030383,-0.00099053,-0.016094,-0.010348
0.032919,-0.010344,-0.0028444,-0.011191
0.023582,-0.012525,0.0017858,-0.010764
-0.00062306,-0.0069573,-0.0040398,-0.010786
-0.01498,-0.018309,-0.00056966,-0.010288
-0.010024,-0.034401,0.011034,-0.0093327
-0.0015378,-0.03078,0.0088529,-0.0090323
0.006493,-0.014193,-0.007676,-0.0094207
0.011708,-0.0094767,-0.01558,-0.0098419
-0.0019436,-0.01349,-0.014908,-0.010713
-0.023954,0.0017628,-0.01649,-0.012164
-0.024279,0.023339,-0.011733,-0.010931
-0.0047671,0.020373,1.0772e-05,-0.0033391
0.012817,0.0035699,0.010938,0.0085197
0.015894,-0.0028607,0.014134,0.018009
0.014662,0.0051653,0.0059606,0.020932
0.027333,0.010525,-0.001264,0.018606
0.059374,0.0014403,0.0014719,0.013659
0.090551,-0.0056757,0.0069037,0.0065619
0.085757,0.0014446,0.0066392,-0.002073
0.050094,0.018507,-0.00016938,-0.010401
0.017824,0.034953,-0.0037378,-0.01704
-0.0022677,0.031628,0.0029508,-0.022094
-0.015248,0.011343,0.010819,-0.026238
-0.016902,-0.0019223,0.011756,-0.028792
-0.0093877,0.003495,0.0073942,-0.02797
-0.0041318,0.018469,0.00026948,-0.022763
-0.01693,0.024902,-0.0041131,-0.014354
-0.051612,0.018159,-0.0031049,-0.0056922
-0.082134,0.0058729,-0.0014156,0.00080573
-0.089619,-0.002466,-0.0011804,0.004475
-0.078631,-0.0021742,-0.002096,0.0059343
-0.047332,0.00089835,-0.0014318,0.0066404
0.020759,-0.0019421,0.0033023,0.0081149
0.099394,-0.011604,0.0067064,0.01172
0.10372,-0.017864,0.0039172,0.018381
0.031729,-0.013951,-0.0035663,0.025586
-0.01342,-0.0054646,-0.01189,0.027683
0.0024749,0.0031481,-0.013728,0.022181
0.025928,0.0080872,-0.0055707,0.011805
0.021868,0.0045508,0.0049451,0.00040342
-0.0042994,-0.0029634,0.0090358,-0.0093448
-0.026407,-0.0044942,0.007939,-0.015773
-0.019601,-0.0022851,0.0093634,-0.017862
0.007804,-0.0061557,0.014352,-0.015777
0.023306,-0.013374,0.01641,-0.011833
0.018581,-0.011844,0.012943,-0.0087014
0.010399,0.00074904,0.0069983,-0.0065901
0.0088957,0.011214,0.00088132,-0.0036479
0.011728,0.013602,-0.003328,0.0015028
0.010778,0.014612,-0.0062534,0.0086981
0.0083342,0.017933,-0.0091204,0.016379
0.018428,0.020645,-0.0089576,0.021945
0.036778,0.016877,-0.0060477,0.023593
0.046023,0.005059,-0.0024657,0.022126
0.040206,-0.009392,-0.00036611,0.019652
0.020459,-0.016913,-0.0033497,0.017466
-0.0030722,-0.01525,-0.0076129,0.015497
-0.01227,-0.014603,-0.0033576,0.012449
-0.0040064,-0.019012,0.0086295,0.007186
0.008011,-0.01652,0.015492,0.00026966
0.014795,-0.0028629,0.010859,-0.0061176
0.015608,0.012539,-0.00099837,-0.0099492
0.009692,0.02036,-0.01127,-0.01117
-0.0030787,0.014178,-0.01222,-0.011104
-0.02049,-9.7727e-05,-0.0077627,-0.01084
-0.031625,-0.011295,-0.003957,-0.010481
-0.022734,-0.01723,9.9132e-05,-0.0097078
-0.001244,-0.016142,0.0019607,-0.0085543
0.014545,-0.003906,-0.00092675,-0.00703
0.02021,0.012583,-0.0034928,-0.0050838
0.021435,0.02115,-0.0019097,-0.0029113
0.022154,0.022724,0.00052663,-0.00067287
0.02023,0.022269,0.001215,0.0015536
0.01265,0.019599,0.00033211,0.0033087
0.0033367,0.014594,-0.00084838,0.0038873
-0.0023499,0.0045394,-0.0015851,0.0031932
-0.0048351,-0.010219,-0.0024412,0.0018676
-0.0060873,-0.020194,-0.0028531,0.0007757
-0.0066812,-0.020006,-0.0034658,0.00051549
-0.0068309,-0.01588,-0.003196,0.00070647
-0.0073155,-0.015131,-0.0016912,0.00063957
-0.0082625,-0.019878,-0.0021354,0.00028179
-0.0091072,-0.027404,-0.0034007,-0.00024784
-0.0090661,-0.033491,-0.0032118,-0.00078612
-0.0091674,-0.033831,-0.0015522,-0.001064
-0.0086094,-0.026068,0.00062252,-0.0012031
-0.0062779,-0.014512,0.0025126,-0.0014174
-0.0052235,-0.0019378,0.0036231,-0.0015874
-0.0054461,0.011949,0.0021557,-0.0015197
-0.0051165,0.022815,2.9635e-05,-0.0011936
-0.0029037,0.021175,-0.00075164,-0.00086075
-0.0013769,0.0039867,-9.2411e-05,-0.00054882
-0.0046976,-0.01746,0.0023409,-0.0001577
-0.0091488,-0.030096,0.0032426,0.0001967
-0.0079299,-0.029307,0.0021112,0.00039311
-0.00055201,-0.016941,0.0025913,0.0003619
0.0097975,0.0054333,0.0052885,0.00045683
0.027917,0.031173,0.0077154,0.00080166
0.060424,0.04208,0.0073179,0.0011817
0.087758,0.030922,0.0059295,0.0017753
0.077009,0.010942,0.0086903,0.0025411
0.040046,-0.011392,0.015272,0.0029765
0.017357,-0.036359,0.020355,0.0026991
0.016136,-0.058111,0.021208,0.0019669
0.014719,-0.07494,0.022585,0.0014022
0.0024623,-0.08627,0.029888,0.0010177
-0.010965,-0.093071,0.037484,0.00042809
-0.025791,-0.10872,0.038144,-2.5131e-05
-0.039389,-0.12844,0.033818,9.5545e-05
-0.030503,-0.11697,0.025592,0.00055249
0.0030499,-0.073302,0.015199,0.0023553
0.042431,-0.039695,0.016847,0.0072757
0.071874,-0.045154,0.036134,0.013315
0.08183,-0.070003,0.040669,0.015303
0.065634,-0.061796,0.0054948,0.011921
0.024016,-0.018371,-0.030302,0.007036
-0.031798,0.019299,-0.028462,0.002868
-0.087294,0.051279,-0.0074677,-0.0027095
-0.12276,0.10344,0.010066,-0.011891
-0.12331,0.14391,0.026394,-0.023718
-0.10327,0.13185,0.036251,-0.033415
-0.078397,0.10687,0.021041,-0.033667
-0.028255,0.087444,-0.0087849,-0.0209
0.047681,0.041237,-0.020661,-0.00050959
0.091995,-0.026281,-0.013403,0.017633
0.07885,-0.06959,-0.0065646,0.026956
0.056256,-0.046813,-0.0048718,0.02609
0.06276,0.013765,-0.0055116,0.017359
0.080076,0.030662,-0.0074282,0.0057164
0.081651,-0.017165,-0.0063557,-0.0034252
0.060825,-0.071232,0.0015147,-0.0074944
0.024487,-0.083526,0.0096284,-0.0078072
-0.016371,-0.061194,0.0092389,-0.0067197
-0.05657,-0.029112,0.0037084,-0.005378
-0.086324,0.00098403,-0.0022439,-0.0044488
-0.10331,0.027587,-0.0092809,-0.0042208
-0.11386,0.05323,-0.012793,-0.004985
-0.11825,0.073797,-0.010207,-0.0074413
-0.1194,0.078102,-0.0071614,-0.010939
-0.11963,0.071512,-0.0096173,-0.012816
-0.11726,0.071547,-0.019978,-0.010665
-0.10174,0.075002,-0.028394,-0.0049819
-0.060127,0.071732,-0.028019,0.0014084
-0.010679,0.06308,-0.029396,0.0065124
0.017997,0.045645,-0.032756,0.0099243
0.022878,0.029255,-0.032818,0.010942
0.016801,0.03139,-0.035032,0.0093593
0.016781,0.038438,-0.036296,0.0065564
0.027472,0.035641,-0.03022,0.0036227
0.037362,0.031214,-0.020425,0.00086723
0.03623,0.031319,-0.013459,-0.0011242
0.017748,0.031612,-0.012331,-0.0016904
-0.01405,0.030663,-0.016466,-0.00083919
-0.039071,0.035248,-0.021453,0.0008939
-0.048801,0.041326,-0.022917,0.0023358
-0.049697,0.040342,-0.021514,0.0020269
-0.043447,0.036371,-0.017191,-0.00063003
-0.03271,0.031523,-0.010238,-0.0049841
-0.023143,0.023921,-0.0040323,-0.0092112
-0.017358,0.015255,-0.0010688,-0.011344
-0.015935,0.0068816,-0.00041084,-0.01006
-0.022494,-0.0014703,-0.00016605,-0.0054922
-0.033522,-0.0082514,0.00048967,8.6019e-05
-0.038684,-0.011064,0.00041682,0.0041815
-0.039379,-0.010709,-0.0012049,0.006089
-0.035624,-0.0090561,-0.0016322,0.0063284
-0.020583,-0.0080202,-0.00024253,0.0054422
-0.0015418,-0.0086715,0.00051277,0.0039484
0.0053344,-0.0093036,0.00026704,0.0024271
0.00064694,-0.0085064,-3.7266e-05,0.0012666
-0.0017664,-0.0069498,-0.00023032,0.00043289
-6.0901e-05,-0.0050318,-0.00030471,-0.00033782
0.0020567,-0.0023581,-0.00031491,-0.0011271
0.0070066,-0.00075696,-0.00061341,-0.0018035
0.010249,-0.00080675,-0.0012396,-0.0022855
0.0055857,-0.00040112,-0.0011917,-0.0024621
-0.0013481,-0.00064837,-0.00033551,-0.0021573
-0.0045384,-0.0011958,0.001098,-0.001563
-0.0043687,-0.00027477,0.0019724,-0.0010185
-0.0020621,0.00066376,0.0015663,-0.0007487
0.00022544,0.001386,0.0014122,-0.00066335
0.0027343,0.0016276,0.0020144,-0.0002864
0.0061932,0.00042985,0.0033464,0.00032212
0.0097211,-0.0016812,0.0042092,0.00071599
0.012668,-0.003075,0.0029454,0.00093054
0.01263,-0.0026231,0.0019039,0.0010646
0.010879,-0.0017248,0.0029937,0.0010498
0.01085,-0.0017545,0.0039679,0.00098142
0.010995,-0.0018965,0.0045183,0.0009649
0.010594,-0.0018405,0.0048034,0.00089756
0.012671,-0.0016611,0.0040337,0.0007707
0.012517,-0.0013536,0.0031203,0.00077306
0.0057468,-0.0015909,0.0026525,0.0008022
-5.7962e-05,-0.0019578,0.0020292,0.0004925
0.0011662,-0.0020701,0.0016761,7.4965e-05
0.0068701,-0.0021002,0.0022142,0.00011754
0.01119,-0.0026059,0.0023595,0.00042691
0.012186,-0.0034737,0.0024695,0.00069475
0.011681,-0.0036347,0.0032329,0.0009427
0.010788,-0.0040999,0.0035855,0.0011332
0.010501,-0.0050603,0.0029827,0.0013525
0.010574,-0.0046271,0.0020719,0.0015194
0.010294,-0.0046988,0.0022354,0.0013834
0.01073,-0.0066372,0.0036142,0.0010909
0.011544,-0.0081125,0.003311,0.00096007
0.011436,-0.0079602,0.0017885,0.00086706
0.010762,-0.0064644,0.0022467,0.00067466
0.010405,-0.0054527,0.0035799,0.00066283
0.0111,-0.0055772,0.0045454,0.00074273
0.011965,-0.0063672,0.004429,0.00060853
0.010953,-0.007578,0.0037595,0.00055248
0.0090753,-0.0087712,0.0043189,0.00061235
0.0083004,-0.012018,0.0057616,0.00047978
0.0070133,-0.015897,0.0057666,0.00034287
0.0059639,-0.017746,0.0042727,0.00017097
0.0077256,-0.021554,0.0058433,-0.00038416
0.011131,-0.025422,0.010356,-0.0011715
0.014134,-0.023186,0.01249,-0.0016009
0.015034,-0.016104,0.010051,-0.0012582
0.013753,-0.0088823,0.0036664,-0.00012528
0.012205,-0.010066,0.0015949,0.0013346
0.014541,-0.026622,0.0166,0.0018099
0.018886,-0.046827,0.041841,-3.4353e-05
0.017578,-0.050212,0.048324,-0.0035917
0.011873,-0.029973,0.01984,-0.0052831
0.005836,0.00745,-0.019806,-0.0013604
0.0126,0.042656,-0.032403,0.0081449
0.040454,0.054675,-0.010623,0.019308
0.057342,0.038315,0.021427,0.025896
0.037192,0.0095969,0.034879,0.023246
-0.0022014,-0.014307,0.02542,0.013753
-0.027175,-0.034028,0.019145,0.0052281
-0.01636,-0.038799,0.025443,0.0016187
0.0040636,-0.025704,0.02974,-0.00047541
-0.010173,-0.015386,0.028885,-0.0043839
-0.034157,-0.0019887,0.019345,-0.0089738
-0.0080043,0.021715,0.002038,-0.012909
0.050868,0.027334,-1.0129e-06,-0.017081
0.060572,0.0019083,0.01591,-0.021337
0.0048187,-0.041725,0.026182,-0.022931
-0.036328,-0.084402,0.02603,-0.020316
-0.030122,-0.079564,0.016835,-0.015939
-0.021353,-0.016783,0.0028684,-0.012528
-0.027845,0.034842,0.0037347,-0.0096464
-0.016189,0.02951,0.014315,-0.0050674
0.043641,-0.00015261,0.01043,0.0037789
0.1014,-0.008438,-0.0032434,0.017355
0.091647,0.0016846,-0.0049506,0.031128
0.052045,0.0026339,0.0055708,0.038305
0.058074,-0.0049958,0.013821,0.035516
0.088804,-0.0036007,0.012429,0.025029
0.062354,0.00097633,0.0011723,0.012216
-0.0086084,-0.0046496,-0.010429,0.00042152
-0.055441,-0.001059,-0.011515,-0.010417
-0.078319,0.021872,-0.0043077,-0.020787
-0.088485,0.027589,0.00022112,-0.029353
-0.080075,-0.0016717,-0.0022615,-0.033507
-0.066571,-0.032963,-0.0036102,-0.032407
-0.050971,-0.042895,0.0002792,-0.028596
-0.031034,-0.045497,0.00041383,-0.024967
-0.012148,-0.051357,-0.0081806,-0.02141
0.0080094,-0.053105,-0.015621,-0.016214
0.02715,-0.050298,-0.015249,-0.0094321
0.030501,-0.041337,-0.013031,-0.0030059
0.015672,-0.0055349,-0.015897,0.0018118
0.0035294,0.052553,-0.0224,0.0053989
0.003898,0.078115,-0.02452,0.0082849
0.0052153,0.045494,-0.021248,0.0098731
0.0034767,0.00081266,-0.01759,0.0093219
0.0031686,-0.0073402,-0.015688,0.0071868
0.0014199,0.023648,-0.0159,0.0049803
-0.0080417,0.0533,-0.016489,0.0033352
-0.022263,0.044268,-0.01674,0.0015248
-0.032396,0.015407,-0.018535,-0.00096051
-0.035701,-0.00036035,-0.021033,-0.0032778
-0.034808,-0.006762,-0.021798,-0.0044274
-0.031148,-0.014552,-0.020951,-0.004301
-0.026565,-0.017269,-0.018489,-0.003366
-0.023384,-0.013123,-0.016181,-0.0021441
-0.021127,-0.0083998,-0.016177,-0.00081792
-0.019417,-0.0042337,-0.015785,0.00064359
-0.018835,0.00082109,-0.013956,0.0020572
-0.018633,0.0071813,-0.012965,0.00332
-0.018276,0.012003,-0.012788,0.0046284
-0.017701,0.01454,-0.01114,0.0059741
-0.016678,0.017764,-0.0093219,0.0071386
-0.015943,0.021763,-0.0092973,0.0079706
-0.015324,0.024287,-0.0085493,0.0084633
-0.013786,0.024627,-0.0074513,0.008771
-0.012162,0.025069,-0.0067849,0.0090017
-0.011388,0.026107,-0.0056313,0.0089718
-0.010972,0.026036,-0.00462,0.0086946
-0.010709,0.025412,-0.0043822,0.0086368
-0.010653,0.025157,-0.0049584,0.0088297
-0.010245,0.023996,-0.0043977,0.0088098
-0.0094754,0.022024,-0.0033716,0.0084156
-0.0086926,0.021817,-0.0027007,0.0078426
-0.0078644,0.021885,-0.0011171,0.0072971
-0.0071506,0.019996,0.00051616,0.0068943
-0.0058378,0.017787,0.00049198,0.0066404
-0.0032976,0.015736,-0.00096738,0.0063867
3.1964e-05,0.012987,-0.0011266,0.0061079
0.0014095,0.010209,-0.00011891,0.0058932
0.00060908,0.0074327,0.00035759,0.0057208
0.0010565,0.0051794,0.0011872,0.0054748
0.0025551,0.0043778,0.0026451,0.0050783
0.005142,0.0021856,0.0043237,0.0046519
0.0069994,-0.0019721,0.0064596,0.0041321
0.0069937,-0.0041882,0.0064972,0.0032738
0.007046,-0.0020132,0.001803,0.002313
0.0050087,-0.0012976,-0.0021294,0.0018099
0.0034354,-0.0087521,0.0011657,0.0016651
0.0055057,-0.019928,0.0090271,0.0014072
0.0083644,-0.027696,0.013253,0.0011522
0.010841,-0.019417,0.0081507,0.0011482
0.01168,0.0062308,-0.0023587,0.0018452
0.011026,0.01469,-0.007743,0.0035134
0.016263,-0.0077038,-0.0017105,0.0044548
0.025808,-0.023136,0.0045468,0.0024571
0.018241,-0.010288,-0.0097733,-0.0021863
-0.0015645,0.0095569,-0.026895,-0.0071279
-0.0027364,0.010146,-0.0097045,-0.010459
0.0091536,-0.014166,0.024143,-0.012442
0.013093,-0.035693,0.035521,-0.014451
0.013569,-0.030054,0.025536,-0.016099
0.017394,-0.014833,0.010443,-0.014989
0.017054,-0.0065952,-0.0027017,-0.0097168
0.012894,-0.0018115,-0.0063296,-0.0023378
0.01796,0.0010242,0.00038197,0.0037469
0.030847,0.005717,0.0059862,0.0072615
0.037946,0.013826,0.00039313,0.0079524
0.03307,0.01205,-0.0084578,0.0054452
0.019453,-0.0088504,-0.0052431,0.0012689
0.0058783,-0.034809,0.0090915,-0.0020436
0.00082541,-0.046254,0.019877,-0.0038543
-0.0039076,-0.039611,0.01578,-0.0050103
-0.03467,-0.026522,0.0028012,-0.0059799
-0.083311,-0.026012,-0.0051739,-0.0067645
-0.10615,-0.043395,-0.0021035,-0.0075796
-0.09998,-0.056072,0.007462,-0.0089256
-0.08729,-0.048165,0.013776,-0.011109
-0.044261,-0.029223,0.014549,-0.012698
0.061048,-0.013097,0.016705,-0.011463
0.15574,-0.0014815,0.019297,-0.0074784
0.13569,0.013657,0.011258,-0.0028744
0.049202,0.017566,0.00033494,0.00083124
-0.0048577,-0.011158,0.0034347,0.0033983
-0.023126,-0.050242,0.014664,0.0041076
-0.020673,-0.066949,0.01992,0.0025261
-0.0034668,-0.063418,0.018342,0.00027614
-0.0062824,-0.056339,0.017942,-0.0011525
-0.04123,-0.045362,0.019034,-0.0019282
-0.061157,-0.024593,0.018085,-0.0025499
-0.031744,-0.014726,0.017663,-0.0027051
0.016125,-0.036458,0.018425,-0.0015024
0.043275,-0.070629,0.01841,0.00077328
0.047662,-0.075579,0.017294,0.002547
0.02713,-0.015012,0.012036,0.0028506
-0.016218,0.10911,-0.00021542,0.0020959
-0.052711,0.20497,-0.013432,0.001391
-0.061591,0.17057,-0.018958,0.001286
-0.050011,0.059484,-0.017211,0.0015318
-0.040512,-0.005425,-0.013792,0.0019812
-0.045614,-0.012864,-0.0078929,0.0024668
-0.052338,-0.011845,0.00035184,0.0021815
-0.044866,-0.012688,0.0038489,0.00070491
-0.021822,-0.0033688,0.001942,-0.00097148
0.008077,0.0089249,7.4058e-05,-0.001659
0.034404,0.010102,0.00026872,-0.0013417
0.047308,0.0065872,0.001316,-0.00048434
0.045139,0.00584,0.0011781,0.00060751
0.036247,0.0077265,-0.00010036,0.0014335
0.021275,0.015176,-0.00064814,0.0021389
0.0043389,0.026611,-9.483e-06,0.0031367
-0.00048315,0.035515,-0.00064852,0.0034488
0.0072267,0.040031,-0.0029439,0.0024593
0.013569,0.044287,-0.0053203,0.0013602
0.012083,0.047951,-0.0082235,0.0011937
0.015492,0.048408,-0.010303,0.0018788
0.031574,0.051125,-0.01112,0.0027646
0.044613,0.059373,-0.012581,0.0033084
0.042341,0.065505,-0.014114,0.0035714
0.030668,0.064064,-0.014206,0.0036901
0.017755,0.05791,-0.013614,0.0035298
0.0077705,0.050952,-0.013976,0.0029654
0.0035829,0.045121,-0.01517,0.0021003
0.0049391,0.040547,-0.016026,0.0012683
0.0084027,0.035768,-0.015919,0.00079214
0.011284,0.030481,-0.014601,0.00097789
0.015077,0.025779,-0.012801,0.0017429
0.018945,0.021435,-0.011822,0.0021913
0.020485,0.018268,-0.011368,0.0015532
0.020762,0.015355,-0.0098422,6.7818e-05
0.019567,0.011679,-0.0082056,-0.0015696
0.018003,0.0099528,-0.0079033,-0.0026877
0.018245,0.0079773,-0.0069619,-0.0029811
0.021226,0.0029848,-0.005594,-0.0027895
0.024724,-0.002301,-0.0058366,-0.0026018
0.02565,-0.0055319,-0.0057919,-0.0025605
0.026553,-0.0069331,-0.0038056,-0.0024198
0.027655,-0.0079451,-0.0016587,-0.0021005
0.026392,-0.010303,-0.0013404,-0.0016792
0.025639,-0.013767,-0.00093013,-0.0010312
0.025985,-0.015674,0.0020021,-0.00035285
0.025918,-0.017463,0.0051004,-8.2059e-05
0.026059,-0.019866,0.0066734,-0.00011832
0.023589,-0.017549,0.0035308,-8.1014e-05
0.018631,-0.012957,-0.0036665,0.00035193
0.016375,-0.015873,-0.004554,0.0015639
0.017198,-0.023682,0.00056772,0.0030563
0.018158,-0.027545,0.0022091,0.0035771
0.018385,-0.030648,0.0012878,0.0027189
0.015913,-0.038125,0.0042639,0.00086223
0.0089217,-0.041894,0.010016,-0.0017855
0.0012682,-0.026451,0.0064738,-0.0050992
0.0020921,-0.0043622,-0.0034129,-0.0074084
0.01086,-0.0071086,0.00022542,-0.0064231
0.011342,-0.023809,0.0069578,-0.0035479
0.002808,-0.013544,-0.0039313,-0.0023274
-0.0028755,0.020698,-0.019422,-0.002606
-0.0060472,0.028003,-0.014383,-0.0022833
-0.0056256,-0.0028287,0.0094516,-0.002188
-0.001592,-0.027847,0.020795,-0.0037585
0.0023851,-0.030207,0.0092845,-0.005374
0.0051255,-0.025743,-0.0051017,-0.0047368
0.0024394,-0.020889,-0.00986,-0.0016478
-0.0025081,-0.023527,-0.0014677,0.002584
0.0029877,-0.035085,0.013777,0.0054471
0.01321,-0.04009,0.021312,0.0047849
0.013388,-0.028999,0.014049,0.0011059
0.011809,-0.0054282,-0.0013844,-0.0026892
0.015648,0.010816,-0.0096675,-0.0040072
0.017028,0.0077117,-0.005613,-0.0036627
0.019666,-0.0015699,0.0042007,-0.0039332
0.024948,-0.013087,0.010078,-0.0039988
0.015461,-0.021881,0.0057299,-0.0015909
-0.010152,-0.0087863,-0.0044097,0.0023391
-0.030098,0.013911,-0.013916,0.0050908
-0.032377,0.012808,-0.01739,0.006796
-0.028461,-0.0057958,-0.01395,0.0095442
-0.028473,-0.013456,-0.0082207,0.013941
-0.013747,-0.013885,-8.6553e-05,0.01918
0.019995,-0.021747,0.0082865,0.023234
0.030716,-0.029511,0.01124,0.022934
0.0081612,-0.028528,0.0072645,0.017272
-0.0084731,-0.020909,-0.00019511,0.0079609
-0.0027082,-0.0084253,-0.0043811,-0.003297
0.018099,0.0023311,-0.0014594,-0.015472
0.034918,0.0058979,0.0050196,-0.026981
0.019469,0.0054438,0.0069899,-0.034199
-0.027191,0.0043773,0.0056991,-0.033788
-0.071298,0.012183,0.0069335,-0.026847
-0.087122,0.028447,0.0073546,-0.017808
-0.067349,0.032846,0.0077114,-0.010183
-0.011313,0.023494,0.012738,-0.0053634
0.046829,0.017033,0.016762,-0.003596
0.075303,0.015328,0.013778,-0.0030143
0.083938,0.01366,0.007082,0.00011092
0.062675,0.01652,0.0020137,0.0070033
0.0027308,0.023785,0.00076588,0.015714
-0.054015,0.02758,0.0018266,0.024076
-0.069332,0.02085,-4.3846e-05,0.02985
-0.06179,-0.0033353,-0.0070979,0.031223
-0.062858,-0.039875,-0.01169,0.027946
-0.042566,-0.066697,-0.0088911,0.020886
0.017965,-0.07287,-0.0061676,0.011125
0.057493,-0.067951,-0.0097541,9.8065e-05
0.060302,-0.054035,-0.014173,-0.0096245
0.068557,-0.024187,-0.0092777,-0.016288
0.076549,0.0151,0.0030296,-0.021099
0.06909,0.038251,0.010049,-0.025784
0.061453,0.025457,0.0085708,-0.029486
0.056916,-0.0091465,0.0066373,-0.029923
0.040993,-0.036168,0.0063538,-0.026355
0.01554,-0.045969,0.003056,-0.02009
-0.0032214,-0.037204,-0.00069674,-0.013088
-0.022711,0.0030975,-0.00027454,-0.007049
-0.05603,0.061835,2.2426e-05,-0.0027242
-0.084649,0.087709,-0.0027572,0.00061171
-0.090753,0.059432,-0.0064748,0.0041338
-0.083035,0.014144,-0.014129,0.0077952
-0.081289,-0.013042,-0.024839,0.01058
-0.084969,-0.024724,-0.027145,0.011922
-0.073324,-0.023758,-0.018905,0.011863
-0.045457,-0.0059308,-0.012401,0.010734
-0.014445,0.0097856,-0.011684,0.0092235
0.020766,0.0049532,-0.009655,0.0078554
0.061312,-0.009711,-0.0049605,0.0066665
0.089733,-0.016133,-0.0019392,0.0057714
0.088365,-0.01196,-0.0034084,0.0056555
0.064032,-0.012029,-0.005761,0.0068654
0.037516,-0.024609,-0.0042319,0.0093737
0.015507,-0.028747,-0.005625,0.012146
-0.0095444,-0.0053378,-0.017723,0.013745
-0.032678,0.029187,-0.030665,0.013314
-0.040382,0.044127,-0.029167,0.010646
-0.039646,0.031877,-0.019889,0.0056667
-0.043971,0.012281,-0.013804,-0.0013748
-0.051038,0.0023408,-0.0055023,-0.008919
-0.056153,0.0035799,0.00072904,-0.014274
-0.06048,0.008852,-0.00066917,-0.014971
-0.060421,0.0060531,0.0020402,-0.010697
-0.053624,-0.0038009,0.01031,-0.0039526
-0.05378,-0.0092174,0.011888,0.0027382
-0.064342,-0.010318,0.0032434,0.0088291
-0.064531,-0.00060265,-0.012154,0.014378
-0.050217,0.020702,-0.028314,0.018706
-0.040402,0.02699,-0.032782,0.020536
-0.039651,0.019313,-0.024949,0.018706
-0.027808,0.018296,-0.016703,0.013787
-0.00054881,0.019734,-0.0090016,0.0075081
0.0089413,0.015107,-0.00017052,0.0011253
-0.0035839,0.0011678,0.00689,-0.0038066
-0.0029133,-0.007771,0.010846,-0.0064708
0.0081946,-0.0017533,0.010043,-0.0076043
0.0062648,-0.0022181,0.0078584,-0.0071789
-0.0030937,-0.015721,0.011396,-0.0042773
-0.0054206,-0.02605,0.016419,-4.5732e-05
-0.0034119,-0.018271,0.0084968,0.0023676
-0.001764,-0.00014358,-0.0074914,0.0021586
0.0073818,-0.0031321,-0.0086434,0.0016745
0.015662,-0.027101,0.0045653,0.0020818
0.0059662,-0.046383,0.016261,0.0019569
-0.01004,-0.045432,0.021163,6.9306e-06
-0.012786,-0.017771,0.01485,-0.0031201
-0.0044611,0.017237,0.0013977,-0.0055554
0.006375,0.028446,-0.0058682,-0.006453
0.01698,0.0052899,-0.0045725,-0.006492
0.02411,-0.036007,0.0010163,-0.0063704
0.02352,-0.06169,0.0056207,-0.0061084
0.014242,-0.053001,0.0061597,-0.0042269
0.00066488,-0.017562,0.00275,0.00073962
-0.010808,0.021625,-0.0019397,0.0066444
-0.015521,0.03383,-0.0045872,0.0092081
-0.010104,0.014254,-0.0054145,0.0066024
0.0031733,-0.0085465,-0.0030027,0.00044672
0.01382,-0.018014,0.00089753,-0.0064873
0.016038,-0.015753,0.0023417,-0.012036
0.014882,-0.0052994,0.0027382,-0.015078
0.013529,0.0072576,0.002802,-0.015504
0.0097585,0.018597,0.001351,-0.014032
0.0066632,0.02298,-0.00062804,-0.012036
0.0094662,0.021816,-0.0035607,-0.010692
0.015774,0.021724,-0.007239,-0.010025
0.022409,0.013384,-0.0068524,-0.0095522
0.028884,-0.0043922,-0.0025077,-0.0089485
0.033307,-0.016804,0.001056,-0.0072017
0.037201,-0.019092,0.0027341,-0.0033658
0.042118,-0.018508,0.0037318,0.0015098
0.040806,-0.012958,0.0040069,0.0054012
0.0239,0.0076061,0.0018577,0.0080228
-0.0038031,0.031983,-0.0014912,0.010505
-0.023348,0.043797,-0.0045708,0.012913
-0.028554,0.041692,-0.0071932,0.014099
-0.028003,0.022053,-0.0077348,0.013353
-0.021945,-0.0037265,-0.0045136,0.011033
-0.0027772,-0.00088991,0.0018904,0.0078891
0.020641,0.028501,0.0052803,0.0038835
0.018054,0.047869,0.0029695,-0.001845
-0.010475,0.054462,0.0010874,-0.0086921
-0.027481,0.054679,0.00079697,-0.013989
-0.019779,0.03359,-0.0048536,-0.015521
-0.004658,0.00072923,-0.013374,-0.013158
0.0017818,-0.027006,-0.012327,-0.0087756
-0.0028572,-0.057579,-0.0029558,-0.0050461
-0.009585,-0.077226,-0.0015373,-0.0037698
-0.0099824,-0.057188,-0.012108,-0.0045241
-0.0016136,-0.00092139,-0.019424,-0.004724
0.012401,0.071465,-0.01627,-0.002292
0.034699,0.11353,-0.0078806,0.001993
0.062356,0.080212,0.00091922,0.0060271
0.074816,0.011139,0.0043636,0.008747
0.068048,-0.029896,0.0030823,0.0097805
0.053358,-0.034043,0.0036685,0.0087163
0.037706,-0.019056,0.0076718,0.0053816
0.027052,-0.0043093,0.0096147,0.00071954
0.017133,0.00037212,0.0055364,-0.0025496
0.001256,-0.0023951,0.0011772,-0.0021915
-0.018421,-0.0092715,0.0030262,0.00077067
-0.036775,-0.019566,0.0093616,0.0032691
-0.050383,-0.02587,0.012877,0.0035712
-0.06493,-0.021513,0.0066628,0.0025874
-0.082809,-0.0087796,-0.0055812,0.0020891
-0.085689,0.0068875,-0.0083373,0.0030682
-0.061866,0.015759,0.0015704,0.0054386
-0.02879,0.016193,0.0063483,0.0078995
-0.0037201,0.017187,-0.005122,0.0088705
0.010616,0.016226,-0.018757,0.0080697
0.01304,0.0091956,-0.019032,0.005843
0.010938,0.0041369,-0.010079,0.0016433
0.015369,0.0013647,0.002587,-0.0048486
0.025158,-0.0018366,0.013201,-0.011312
0.03566,-0.0041986,0.012754,-0.013073
0.044184,-0.010321,0.0036417,-0.0076855
0.047702,-0.026959,-0.0022887,0.0019736
0.04641,-0.048393,0.00075839,0.010149
0.041136,-0.05734,0.0054138,0.012414
0.030067,-0.04681,0.0022051,0.0092922
0.014923,-0.027842,-0.0063905,0.0059341
0.0012958,-0.0088604,-0.010521,0.0063294
-0.011201,0.011877,-0.0077832,0.0088923
-0.025981,0.028976,-0.0034296,0.008577
-0.041097,0.036775,-0.0015067,0.0029213
-0.052024,0.036417,-0.0014301,-0.005143
-0.052297,0.028881,-0.0041502,-0.011266
-0.037428,0.022048,-0.0094095,-0.014092
-0.013369,0.018557,-0.0099419,-0.013742
0.0065446,0.0083908,-0.0039733,-0.010276
0.0072432,-0.0059083,0.00031731,-0.0048429
-0.0072542,-0.017784,0.0010339,0.00094235
-0.013695,-0.028038,0.0062242,0.0049599
-0.0079156,-0.032915,0.01251,0.0050072
0.0060967,-0.025235,0.0083893,0.0023574
0.02525,-0.012026,3.7679e-05,0.0016895
0.033111,-0.0027266,-0.0026983,0.005313
0.023456,0.0072896,-0.0033444,0.010437
0.0093473,0.010971,-0.0050933,0.012801
0.0015626,0.0086848,-0.0053285,0.011235
-0.0023441,0.013371,-0.0016695,0.0072412
-0.0049992,0.015327,0.0010543,0.00224
-0.0023085,0.0091267,0.0013235,-0.0025264
0.0063653,0.007453,0.003227,-0.0062343
0.0099066,0.0077887,0.0020432,-0.0088048
0.00044685,-0.0006778,-0.0047077,-0.010897
-0.0093362,-0.014323,-0.0086031,-0.013387
-0.009841,-0.026772,-0.0066547,-0.015996
-0.0086738,-0.041558,-0.0057334,-0.017222
-0.007679,-0.055376,-0.0054787,-0.015261
-0.0024328,-0.052117,-0.00078794,-0.0099017
0.0048298,-0.031598,0.0056486,-0.0031932
0.0090295,-0.0098252,0.0094596,0.0021588
0.0072218,0.0093029,0.0091099,0.004631
0.0031868,0.027859,0.0067356,0.0049531
0.0030671,0.038184,0.0067163,0.0047764
0.0041103,0.038492,0.0062969,0.0045735
0.0037476,0.035135,0.00067909,0.0037453
0.0048737,0.026279,-0.0050115,0.0021953
0.0024872,0.010787,-0.0049353,0.00066811
-0.0058304,-0.0049264,-0.0018731,-0.00069754
-0.01149,-0.020621,0.0014105,-0.0029993
-0.011424,-0.036681,0.0049074,-0.0069949
-0.0086999,-0.044663,0.0074679,-0.011723
-0.0038018,-0.042578,0.0092288,-0.01503
-0.00052371,-0.034339,0.009613,-0.014258
-0.0055816,-0.025483,0.0079623,-0.008098
-0.025304,-0.022859,0.0075423,0.0011143
-0.054126,-0.02119,0.0074192,0.0091363
-0.061672,-0.015908,0.0027962,0.01362
-0.043728,-0.013763,-0.0012596,0.01451
-0.036925,-0.013343,0.0013896,0.011994
-0.044994,-0.0035276,0.0063422,0.0065733
-0.014278,0.014829,0.0084468,0.00010076
0.062702,0.021707,0.0071807,-0.0050506
0.095705,0.0038298,0.0052426,-0.0075004
0.052031,-0.02218,0.0043223,-0.0074961
0.0012439,-0.036499,0.0036485,-0.0063107
-0.020979,-0.040207,0.0038163,-0.0051885
-0.025055,-0.038178,0.0050363,-0.004743
-0.020402,-0.031184,0.0056295,-0.0046345
-0.018721,-0.02011,0.0049012,-0.0038317
-0.017215,-0.0010913,0.0041497,-0.0017018
-0.0066621,0.027695,0.0038446,0.0014189
0.0056929,0.051705,0.0039708,0.0046389
0.012481,0.055936,0.0056022,0.0073729
0.014169,0.043431,0.0069163,0.0094147
0.013131,0.02662,0.0054702,0.010086
0.011866,0.015982,0.002402,0.008867
0.0078558,0.014075,0.0017702,0.0064813
-0.0065932,0.015482,0.0055073,0.003936
-0.025739,0.014152,0.0099313,0.0017016
-0.033875,0.010229,0.0089447,-7.2757e-05
-0.033338,0.0066917,0.0036275,-0.0013746
-0.026045,0.0034642,0.0043421,-0.0024901
0.0017316,0.0025793,0.010634,-0.0038934
0.044635,0.0071248,0.011807,-0.0051161
0.069727,0.010603,0.0066523,-0.0047493
0.062125,0.0039831,0.0029946,-0.0022625
0.043938,-0.010755,0.0044747,0.0016276
0.038711,-0.021596,0.0054699,0.0066039
0.050465,-0.018459,0.0023521,0.011713
0.068434,-0.01213,0.00046593,0.014163
0.078845,-0.017774,0.0031822,0.012586
0.072574,-0.02546,0.0057213,0.0087405
0.048677,-0.02648,0.0061686,0.0052472
0.017344,-0.028417,0.0066146,0.0032957
-0.017832,-0.022487,0.0032899,0.0025198
-0.060456,0.004495,-0.0049561,0.0024439
-0.093834,0.051313,-0.0097793,0.0024037
-0.098901,0.11605,-0.0097433,0.0012128
-0.079695,0.15102,-0.0092837,-0.0012563
-0.043095,0.10904,-0.0058339,-0.0033668
-9.3641e-05,0.038128,0.00068209,-0.0037453
0.039874,-0.0052497,0.0055753,-0.0032764
0.077398,-0.021699,0.0049019,-0.0035255
0.092327,-0.030243,-0.00026097,-0.0038122
0.076439,-0.043571,-5.6999e-05,-0.0025252
0.0565,-0.058457,0.0049541,-0.00054509
0.046711,-0.062103,0.0025198,-0.00058531
0.046414,-0.051768,-0.00048912,-0.0030441
0.047497,-0.043438,0.0066389,-0.0048743
0.038275,-0.04377,0.012116,-0.0038533
0.022759,-0.042792,0.006574,-0.00043026
0.010045,-0.033808,-0.00431,0.0040937
-0.0015687,-0.010118,-0.014979,0.0077277
-0.017826,0.015565,-0.015841,0.0088242
-0.034776,0.030132,-0.0089149,0.0073312
-0.041972,0.046786,-0.011763,0.0047742
-0.036951,0.058374,-0.014695,0.0034326
-0.030835,0.050518,-0.0048507,0.0033768
-0.031852,0.031943,0.0057063,0.00219
-0.0337,0.013597,0.010122,-0.0011798
-0.03351,0.00043674,0.010391,-0.0051421
-0.029182,-0.010174,0.0073272,-0.0078916
-0.015928,-0.022669,0.0025936,-0.0087717
-0.0025578,-0.035968,-0.0030988,-0.0079895
0.0026018,-0.051398,-0.0062269,-0.0061574
0.0012532,-0.061934,-0.0058901,-0.0034157
-0.00062383,-0.06337,-0.0067804,-5.0313e-05
0.0019764,-0.06619,-0.0079664,0.0017581
0.00081582,-0.067082,-0.0088104,-9.8082e-05
-0.011629,-0.065805,-0.0042899,-0.0045753
-0.024664,-0.066268,0.0076735,-0.008457
-0.026078,-0.054142,0.014278,-0.009304
-0.018637,-0.02583,0.010724,-0.0068096
-0.013768,0.0097771,0.0037347,-0.002325
-0.014677,0.049355,-0.002738,0.0020915
-0.014672,0.087821,-0.0051991,0.0050931
-0.011703,0.12174,-0.00088208,0.0060625
-0.0041876,0.14259,0.0054186,0.0048487
0.0068571,0.14232,0.0080061,0.0028079
0.0087345,0.12852,0.0081163,0.0015864
-0.0056837,0.10566,0.0094653,0.0012341
-0.033571,0.078596,0.012004,0.00096055
-0.057203,0.0547,0.011055,0.00016533
-0.055258,0.033052,0.004164,-0.0015131
-0.039817,0.014675,-0.0013932,-0.0034067
-0.029349,-0.0047755,0.0038792,-0.0039221
-0.015108,-0.028997,0.015626,-0.0025608
0.014307,-0.043056,0.017979,-0.00032001
0.042187,-0.037931,0.0044214,0.0018634
0.042828,-0.037208,-0.0097583,0.003701
0.019477,-0.057445,-0.010105,0.0048949
-0.0045517,-0.062165,-0.0044717,0.0048732
-0.015709,-0.015793,-0.01072,0.0038296
-0.018276,0.043487,-0.027631,0.0030485
-0.015054,0.051044,-0.029628,0.0027457
-0.0074805,0.019139,-0.011615,0.001346
-0.0050227,0.01166,0.0019895,-0.001339
-0.0070397,0.036741,0.0036312,-0.0018928
-0.0021434,0.057378,0.0058364,0.0025786
0.0086824,0.061099,0.010426,0.0092782
0.015051,0.057276,0.012849,0.012181
0.01864,0.056095,0.011307,0.0085632
0.023418,0.066759,0.0015923,0.0010663
0.020936,0.082587,-0.013662,-0.0062067
0.013306,0.079841,-0.020086,-0.010857
0.011605,0.053816,-0.010224,-0.011648
0.013802,0.026561,0.0030477,-0.0085439
0.0092075,0.013625,0.0081271,-0.0038564
-0.0039336,0.0069855,0.0065965,-0.00098065
-0.011374,0.00316,-0.0040588,-0.0011023
-0.0062662,0.010264,-0.019495,-0.0023995
0.0034667,0.015636,-0.020856,-0.003294
0.0086228,0.010755,-0.0096313,-0.0048307
0.0071635,0.0090721,-0.0056948,-0.0065767
0.0068781,0.013004,-0.0093912,-0.0047306
0.01225,0.0092943,-0.0066452,0.001607
0.015154,-0.0071985,0.00084553,0.0081764
0.0094213,-0.03055,0.0026426,0.010768
0.00024175,-0.05034,-0.0010858,0.0093001
-0.0059392,-0.049068,-0.0059357,0.0067077
-0.0035629,-0.033514,-0.0075471,0.0057637
0.0046613,-0.029768,-0.0035229,0.0069513
0.0063599,-0.035443,0.00128,0.0085627
0.0020862,-0.033227,0.0017066,0.0090742
-0.0010982,-0.024876,-0.0023267,0.0082317
-0.002845,-0.019572,-0.0067614,0.0055924
-0.0058792,-0.015129,-0.0063199,0.00011308
-0.014146,-0.0025526,-0.0022431,-0.0080682
-0.023207,0.019824,0.0015561,-0.017352
-0.025886,0.038189,0.0033574,-0.025874
-0.020415,0.034805,0.0039508,-0.031558
-0.0088768,0.0049437,0.0030025,-0.032805
0.0014913,-0.037255,-0.0012902,-0.029801
0.0088247,-0.073644,-0.0055883,-0.024172
0.019608,-0.088118,-0.0051322,-0.017835
0.03063,-0.072238,8.8995e-05,-0.012034
0.032871,-0.044551,0.0058039,-0.0065358
0.0273,-0.027793,0.0084816,-0.00051321
0.016404,-0.024734,0.0080624,0.0062134
0.0013692,-0.030019,0.0071332,0.013724
-0.0094419,-0.035404,0.0076955,0.021229
-0.0075712,-0.038397,0.0098221,0.026237
-0.0020549,-0.041815,0.008438,0.026612
-0.010653,-0.040761,0.0014739,0.02182
-0.03413,-0.02981,-0.0018316,0.01292
-0.054764,-0.014428,0.0037138,0.0027863
-0.051398,-0.0078899,0.013412,-0.0053994
-0.024299,-0.0172,0.018941,-0.010025
0.0025443,-0.039852,0.016238,-0.011318
0.011978,-0.050506,0.0054031,-0.010644
0.014677,-0.028192,-0.0097082,-0.0089787
0.025777,-0.00578,-0.01453,-0.0067902
0.039236,-0.00050103,-0.0054752,-0.0054056
0.046529,0.011225,0.003788,-0.0057495
0.046421,0.020878,0.0097159,-0.0064671
0.040574,0.011003,0.015022,-0.006218
0.03316,-0.0050843,0.0080267,-0.0054856
0.024816,-0.021665,-0.0085209,-0.0039766
0.017373,-0.047117,-0.0091113,-0.00068183
0.018141,-0.061874,0.0035525,0.0030741
0.025415,-0.048961,0.0068908,0.0060634
0.02487,-0.028329,0.00185,0.0099428
0.010157,-0.016137,0.00076366,0.015557
-0.010498,-0.0077095,0.00085859,0.0203
-0.025075,0.0075173,-0.0015066,0.020715
-0.030687,0.021085,-0.0015551,0.016068
-0.036703,0.0122,-0.0022085,0.0088475
-0.043447,-0.01586,-0.0043769,0.0024781
-0.046575,-0.036034,-0.0041085,-0.00089877
-0.04483,-0.032625,-0.0039441,-0.0012294
-0.028528,-0.022532,-0.0046795,0.0003201
0.0087841,-0.020188,-0.0063008,0.0024895
0.055743,-0.018289,-0.006561,0.0036144
0.07901,-0.012776,-0.0022247,0.0017062
0.064485,-0.0033803,-0.00072899,-0.0029782
0.038522,0.0084709,-0.0040741,-0.0070864
0.022048,0.012841,-0.0020929,-0.0075843
0.020952,0.008275,0.004372,-0.0038017
0.021247,0.006938,0.0081642,0.0031349
0.00082547,0.023918,0.007799,0.010729
-0.030124,0.07102,0.0020155,0.0168
-0.050295,0.11976,-0.0030472,0.020076
-0.048239,0.11306,-0.0024365,0.019381
-0.018672,0.057567,-0.0017999,0.014977
0.018016,0.006159,-0.0028828,0.0089157
0.026559,-0.021138,-0.0075199,0.0030189
0.0032012,-0.031408,-0.017431,-0.0016098
-0.020669,-0.043178,-0.024657,-0.00434
-0.017953,-0.060734,-0.020669,-0.0062396
-0.011146,-0.061647,-0.0093469,-0.0090725
-0.036441,-0.042897,-0.0032781,-0.012495
-0.062044,-0.029439,-0.0031095,-0.014447
-0.056354,-0.031202,-0.0019267,-0.013533
-0.061278,-0.031634,0.00075846,-0.010302
-0.085885,-0.014513,0.0015422,-0.0064695
-0.064725,0.012963,-0.00068011,-0.0026738
-0.00079213,0.030719,-0.0016605,0.0016029
0.023523,0.033427,-3.8288e-05,0.0056102
0.0090387,0.024064,0.00066051,0.0074974
-0.00082631,0.0074666,-0.0019668,0.0069283
-0.010806,0.0062391,-0.01068,0.0046695
-0.00044534,0.026747,-0.020419,0.0013254
0.04163,0.036489,-0.017424,-0.002534
0.068848,0.024693,-0.003723,-0.0064353
0.052118,0.014805,0.0048807,-0.0086959
0.014453,0.013659,0.0046779,-0.0079267
-0.0082254,0.012341,0.0044606,-0.0057434
-0.0082424,0.0068781,0.0059455,-0.0043976
-0.0041503,-0.0014258,0.0045994,-0.0043048
-0.0095694,-0.0057089,0.0013806,-0.0042565
-0.018013,0.00015915,-0.0019705,-0.0026714
-0.023687,0.0097797,-0.0040854,0.00027563
-0.031593,0.010033,-0.0043251,0.0028688
-0.040121,-0.00303,-0.0061723,0.0041051
-0.038261,-0.02324,-0.0086844,0.0037547
-0.021893,-0.036909,-0.0082631,0.0020514
-0.0014842,-0.038146,-0.0058556,0.00039905
0.012573,-0.034458,-0.00069142,0.00021883
0.023063,-0.028562,0.0055193,0.0010047
0.034703,-0.017956,0.006257,0.00080825
0.040825,-0.0040003,0.001178,-0.0011364
0.0314,0.0046093,-0.002314,-0.0041452
0.012868,-3.1495e-05,-0.0017085,-0.007885
-0.0001973,0.00079079,-0.0037049,-0.011007
-0.013143,0.044159,-0.0091737,-0.010639
-0.035023,0.11276,-0.01234,-0.0058971
-0.051183,0.1321,-0.011258,0.000696
-0.04827,0.084408,-0.008472,0.0057451
-0.036892,0.029345,-0.010041,0.0079792
-0.025129,0.0049619,-0.017679,0.0084679
-0.011945,-0.0015099,-0.022873,0.0084271
0.004031,-0.010939,-0.015662,0.0076957
0.027275,-0.025765,0.0039041,0.0047756
0.04628,-0.035297,0.024891,-0.0013
0.046639,-0.034335,0.036463,-0.0088158
0.038156,-0.023025,0.030629,-0.013783
0.029992,-0.0079492,0.011902,-0.012511
0.014829,0.0017272,-0.0021706,-0.0053348
-0.003367,0.0044079,-0.00554,0.0028042
-0.012451,-0.0021365,-0.0048471,0.007974
-0.015883,-0.017016,-0.0023988,0.010346
-0.018206,-0.025487,0.0020273,0.010962
-0.022148,-0.0013305,-0.0085039,0.010696
-0.026039,0.040381,-0.030534,0.011364
-0.020577,0.052168,-0.029241,0.012846
-0.014768,0.046783,-0.0082369,0.011907
-0.016592,0.045633,0.0049232,0.0067856
-0.011541,0.036908,0.0019804,-0.00049836
0.0037129,0.030317,-0.010432,-0.0060586
0.01225,0.022979,-0.014197,-0.0076043
0.0053393,0.0050975,-0.0039919,-0.0070743
-0.0076152,-0.006356,0.0057199,-0.0075008
-0.016496,-0.0026361,0.0040694,-0.0084678
-0.015928,0.010505,-0.00326,-0.0079145
-0.0059651,0.020906,-0.0022844,-0.0066804
0.0032684,0.021509,0.0051434,-0.0069082
0.0043508,0.017654,0.0058047,-0.0074841
0.0012031,0.012403,0.00018546,-0.0054238
-0.0023276,0.0050003,-0.0025699,0.00012
-0.010181,-0.007165,-0.00041779,0.0068043
-0.022724,-0.022605,0.0022469,0.011335
-0.03029,-0.032146,0.0017297,0.012416
-0.025028,-0.032499,0.00034512,0.010861
-0.01033,-0.024782,-4.998e-05,0.0082674
0.0090366,-0.012966,-0.0004743,0.0058922
0.032561,-0.010095,0.0013458,0.0039674
0.052023,-0.022635,0.0079079,0.0015426
0.052192,-0.041483,0.01207,-0.0022088
0.036467,-0.049389,0.0054865,-0.0055788
0.026799,-0.039891,-0.0027819,-0.0061672
0.029136,-0.024456,-0.0033785,-0.0047771
0.032009,-0.010785,0.00061102,-0.0043885
0.021059,0.0070655,0.0062005,-0.006272
0.0026909,0.035775,0.0079258,-0.0087967
0.0058339,0.057231,0.0016352,-0.0093385
0.030259,0.043425,-0.0037306,-0.0065056
0.04472,0.0062977,0.00060195,-0.0014082
0.032023,-0.012193,0.0055393,0.0035283
0.0045936,-0.00064485,0.0017045,0.0074225
-0.018319,0.01715,-0.0028677,0.010472
-0.025482,0.032306,-0.00018302,0.012257
-0.017021,0.039113,0.0082035,0.013102
-0.0071264,0.018408,0.01577,0.014374
-0.010945,-0.026405,0.012273,0.017104
-0.030321,-0.064821,-0.002778,0.020737
-0.040631,-0.062077,-0.01494,0.022295
-0.028542,-0.024595,-0.01316,0.018225
-0.0089262,0.0052237,-0.00031643,0.0076426
0.017307,0.01228,0.014208,-0.0069085
0.04311,0.0076312,0.019767,-0.02099
0.040575,0.0053684,0.013805,-0.030453
0.014838,0.0078783,0.0074283,-0.034429
0.003886,0.0042612,0.007026,-0.035931
0.019116,0.00022738,0.0066304,-0.036984
0.038236,0.0027503,0.0042885,-0.035209
0.041062,-0.0017027,0.0063717,-0.027887
0.027994,-0.01258,0.012016,-0.016059
0.015752,-0.0080605,0.011424,-0.0029004
0.014095,0.019417,-0.0026717,0.0098869
0.010773,0.067428,-0.024359,0.022415
-0.00080111,0.12766,-0.030443,0.033378
-0.011094,0.15563,-0.013852,0.038956
-0.018805,0.12114,0.0016531,0.036187
-0.021875,0.06067,0.0051646,0.026565
-0.01455,0.012283,0.0060832,0.015003
-0.015023,-0.030704,0.0043687,0.0054839
-0.032379,-0.073336,-0.0012787,-0.0011441
-0.042716,-0.094342,-0.0023045,-0.006331
-0.042096,-0.087989,0.0026527,-0.012056
-0.041214,-0.068691,0.0034749,-0.019396
-0.03324,-0.031381,-0.0072019,-0.027353
-0.014427,0.020429,-0.021041,-0.032612
0.0059166,0.04279,-0.021123,-0.032694
0.020989,0.018583,-0.0073318,-0.028376
0.030122,-0.0092651,0.0030378,-0.021591
0.026036,-0.0047962,0.0018281,-0.013961
0.0071937,0.022295,-0.0040873,-0.0076695
-0.010028,0.036744,-0.0040425,-0.0045119
-0.016211,0.024358,0.0025283,-0.0044216
-0.016012,0.010501,0.0036865,-0.0058489
-0.012548,0.012438,-0.0031873,-0.0061163
-0.0081767,0.019891,-0.011663,-0.0027494
-0.0089299,0.018213,-0.016415,0.0038685
-0.013881,0.0062285,-0.014011,0.010354
-0.016551,-0.0074739,-0.0076739,0.014327
-0.016082,-0.01954,-0.0021414,0.016734
-0.012832,-0.029276,-0.00031234,0.018558
-0.0069777,-0.033959,-0.0020204,0.01866
-0.0003595,-0.030359,-0.0042595,0.016477
0.0031044,-0.017999,-0.0066011,0.013025
0.00037811,-0.0024059,-0.0090212,0.0090805
-0.005233,0.0089268,-0.0094308,0.0053455
-0.011664,0.011212,-0.0057125,0.0027255
-0.019931,0.00452,0.00099735,0.00095717
-0.025296,-0.0037765,0.0046897,-0.0009134
-0.022388,-0.0069189,0.0034071,-0.0027903
-0.013536,-0.004078,0.0014848,-0.004486
-0.0032351,0.0022721,0.00087453,-0.0062601
0.0044701,0.0033381,0.0017665,-0.0072156
0.0045404,-0.0075028,0.0032053,-0.0061359
-0.00075229,-0.022073,0.0025054,-0.002289
-0.0064246,-0.034919,0.0026995,0.004443
-0.011324,-0.0452,0.0090987,0.011592
-0.012826,-0.04514,0.01957,0.015484
-0.0084998,-0.036105,0.026125,0.014998
-6.2414e-05,-0.023495,0.022676,0.011962
0.0068279,-0.011429,0.013186,0.009303
0.0098311,-0.010429,0.010536,0.0087468
0.011105,-0.015172,0.017749,0.0094377
0.013699,-0.013226,0.021574,0.0092254
0.016099,-0.00079272,0.012193,0.0072858
0.0076527,0.01854,-0.007682,0.005149
-0.010485,0.019755,-0.023395,0.0042533
-0.02264,0.0053454,-0.022679,0.0041036
-0.022018,0.023854,-0.012664,0.0035188
-0.013238,0.066525,-0.0040969,0.0015588
-0.0085373,0.060721,0.0042523,-0.0014444
-0.019468,0.0013567,0.013856,-0.0036657
-0.046836,-0.048643,0.020874,-0.0038612
-0.077558,-0.062974,0.0233,-0.0032326
-0.091147,-0.062726,0.022342,-0.0041307
-0.076234,-0.061407,0.018589,-0.0062441
-0.030623,-0.045443,0.015254,-0.006374
0.050566,-0.023427,0.02083,-0.0031437
0.1477,-0.023173,0.030542,0.00056683
0.18913,-0.025886,0.020806,0.0016019
0.14115,-0.0077172,-0.010413,0.00074021
0.07197,0.0076372,-0.026937,0.00074129
0.034738,0.00067451,-0.012821,0.0015243
0.011022,-0.014391,0.0048088,0.00069474
-0.010196,-0.022859,0.0088628,-0.0021045
-0.018176,-0.026248,0.0087865,-0.0052152
-0.018634,-0.022336,0.0077816,-0.0072144
-0.023971,-0.010946,0.0057062,-0.0071802
-0.027989,-0.0028616,0.0071881,-0.0048546
-0.022628,0.00044876,0.0064056,-0.0012138
-0.011679,0.0049221,-0.0013283,0.0019501
0.0038774,0.010972,-0.011131,0.0035169
0.022979,0.012742,-0.015283,0.0036315
0.035135,0.0068038,-0.0088025,0.0022746
0.033244,0.00048086,0.0019801,-0.0010818
0.020955,0.0021704,0.0071944,-0.005467
0.0081039,0.012522,0.0064153,-0.0085204
0.0028777,0.026266,0.003301,-0.0087802
-0.00098184,0.035925,-0.0014071,-0.0062957
-0.013641,0.035559,-0.0053223,-0.0022631
-0.029629,0.024872,-0.0072195,0.0013063
-0.038221,0.011776,-0.0096774,0.0028585
-0.033796,0.0012244,-0.010387,0.0023491
-0.01323,-0.0096798,-0.0065705,0.00071323
0.014624,-0.017234,-0.0018486,-0.00082423
0.034365,-0.014175,-0.000123,-0.0014106
0.041058,-0.0044816,-0.0012396,-0.0010715
0.038327,0.0038441,-0.0026115,-0.00021317
0.031959,0.0062654,-0.0013498,0.00078781
0.027727,0.0017069,0.0018269,0.0015223
0.027049,-0.0070609,0.005538,0.0017427
0.023082,-0.014257,0.0098314,0.0015104
0.011445,-0.01169,0.0098926,0.0009473
0.0045325,0.00054297,0.0075794,0.00084999
0.011449,0.0054671,0.011595,0.0023646
0.019215,-0.0049425,0.011713,0.0048541
0.013345,-0.011816,-0.0019091,0.0064799
-0.014548,-0.009961,-0.0093956,0.0063181
-0.054458,-0.014028,0.0046384,0.0035035
-0.073833,-0.020733,0.023662,-0.0031135
-0.071606,-0.012918,0.020976,-0.011693
-0.076841,0.009025,-0.0082373,-0.016216
-0.090119,0.022484,-0.035837,-0.011841
-0.095682,0.024553,-0.035326,-0.00064933
-0.095144,0.034663,-0.01562,0.010401
-0.090299,0.04389,0.0016556,0.015928
-0.065278,0.032145,0.011423,0.015161
-0.016992,0.010392,0.016696,0.010457
0.019478,-0.0037424,0.015281,0.0048788
0.023075,-0.011268,0.0091538,0.0011173
0.021898,-0.015536,0.0059521,-0.00083863
0.026465,-0.016058,0.0064763,-0.0041591
0.018837,-0.018187,0.0072409,-0.010054
0.019665,-0.023544,0.0076842,-0.015566
0.045602,-0.025552,0.0076428,-0.01751
0.052785,-0.01957,0.0057622,-0.01492
0.01984,-0.0090986,0.00061638,-0.008524
-0.0089848,-0.0035622,-0.0068922,-0.00044367
-0.010504,-0.0061024,-0.0099882,0.0076642
-0.010579,-0.0088611,-0.003318,0.015526
-0.02377,-0.0047788,0.0056291,0.021618
-0.03404,0.0065367,0.006396,0.023776
-0.025918,0.019504,0.002088,0.021924
-0.0044401,0.026576,-2.9093e-05,0.016829
0.013987,0.026282,0.0012075,0.0085887
0.023194,0.018907,0.0015305,-0.0018035
0.028202,0.0099415,-0.0030954,-0.011571
0.030467,0.0013182,-0.0048923,-0.017939
0.029147,-0.011287,0.0018817,-0.020038
0.022938,-0.015246,0.0047653,-0.01931
0.011826,-0.0087229,-0.00019264,-0.018621
0.001775,-0.013012,-0.0020032,-0.019342
-0.0022274,-0.030207,0.001327,-0.019626
0.0036409,-0.041417,0.0080178,-0.017448
0.021298,-0.042944,0.01634,-0.011871
0.036413,-0.050773,0.019718,-0.0016915
0.031874,-0.065941,0.016913,0.012036
0.017432,-0.062765,0.012302,0.024875
0.013291,-0.029732,0.0065117,0.033619
0.019798,0.012566,0.0031425,0.037819
0.020241,0.048659,0.0050349,0.03642
0.0075399,0.075333,0.0041701,0.028192
-0.0030706,0.081193,0.00051276,0.014533
-0.00070966,0.066875,0.00089068,-0.00088916
0.0062084,0.062129,-0.00089356,-0.014164
-0.00065425,0.081285,-0.0090657,-0.02318
-0.02028,0.088468,-0.015856,-0.027786
-0.0328,0.056131,-0.017014,-0.027883
-0.040515,0.0075368,-0.014317,-0.024058
-0.041993,-0.034622,-0.0070756,-0.019362
-0.016739,-0.05633,0.0021027,-0.016474
0.028416,-0.052991,0.009055,-0.015131
0.070358,-0.050773,0.015812,-0.014012
0.086848,-0.051797,0.012976,-0.011855
0.059474,-0.038883,-0.0049218,-0.0075386
0.0049997,-0.02366,-0.015924,-0.0019452
-0.042596,-0.011624,-0.0080448,0.0020676
-0.063228,0.0033547,0.0054399,0.0027826
-0.057041,0.018663,0.0098638,0.0012911
-0.048229,0.041569,0.0014468,0.00037771
-0.049974,0.06805,-0.0094414,0.0019432
-0.048909,0.070098,-0.011494,0.0052082
-0.043044,0.047655,-0.0089322,0.0085372
-0.040235,0.02686,-0.0088683,0.011313
-0.037432,0.018296,-0.0084201,0.012548
-0.032178,0.017059,-0.0068588,0.010896
-0.021442,0.015768,-0.0070533,0.0066328
-0.0030003,0.013631,-0.009219,0.0012248
0.012561,0.014316,-0.012199,-0.0040325
0.014786,0.017346,-0.011636,-0.0082134
0.0055047,0.017732,-0.0051994,-0.011079
-0.004022,0.012351,0.0010072,-0.012926
-0.0066319,0.0033382,0.0018761,-0.013689
-0.0050279,-0.0090083,-0.00061964,-0.012348
0.0015031,-0.023212,0.0012442,-0.0082848
0.010432,-0.031251,0.0066081,-0.0030408
0.0087241,-0.020366,9.7607e-05,0.0009929
-0.0038652,0.012673,-0.014858,0.0026786
-0.012387,0.038799,-0.018467,0.0022555
-0.011553,0.031847,-0.01148,0.00060633
-0.0084539,0.0021176,-0.0043533,-0.00091265
-0.0069796,-0.028775,0.0019769,-0.00079812
-0.0067724,-0.029159,-0.0046893,0.0013548
-0.0064869,0.0076094,-0.026422,0.0051621
0.00086018,0.033528,-0.030692,0.0098793
0.012476,0.024369,-0.0084428,0.013054
0.018074,0.0057681,0.012453,0.01232
0.017314,-0.0021655,0.01621,0.0088228
0.015987,-0.0033392,0.011051,0.0060392
0.019255,-0.0078125,0.008921,0.0060038
0.023179,-0.017353,0.011296,0.0077579
0.019346,-0.027302,0.012713,0.009087
0.00012036,-0.031265,0.0085969,0.0090091
-0.024001,-0.025176,-0.00035438,0.0081814
-0.029512,-0.015789,-0.0046246,0.0076613
-0.020178,-0.014606,0.0013731,0.0075838
-0.0080335,-0.020867,0.0091856,0.0073153
0.0096661,-0.028087,0.012983,0.0066156
0.031529,-0.029038,0.012794,0.0056556
0.05017,-0.015606,0.0085349,0.0047702
0.050803,0.0029108,0.004062,0.004662
0.032902,0.011525,0.00071876,0.0057149
0.020186,0.012022,-0.0014733,0.0070253
0.011707,0.0079204,0.00067637,0.0068082
-0.01703,-0.0020694,0.0066427,0.0041148
-0.061321,-0.013138,0.014702,5.3507e-05
-0.086864,-0.012618,0.022332,-0.0031552
-0.079991,0.0082798,0.024807,-0.0036679
-0.046699,0.039152,0.018638,-0.00042728
0.011013,0.061331,0.0062234,0.0060504
0.071568,0.061392,-0.0027365,0.012389
0.086363,0.031503,0.0015309,0.014722
0.043334,-0.010024,0.012289,0.012648
-0.0030688,-0.03386,0.014673,0.0087417
-0.0069809,-0.042307,0.014674,0.0050013
0.038743,-0.051638,0.0184,0.0015241
0.10931,-0.071256,0.020666,-0.0011851
0.15336,-0.097831,0.024178,-0.0026127
0.13182,-0.10535,0.026981,-0.0042184
0.058402,-0.074252,0.01862,-0.0076542
0.0016982,-0.031129,0.0052853,-0.011849
-0.0048977,-0.021012,0.0031515,-0.014284
0.0029484,-0.028302,0.0079498,-0.015013
-0.010049,0.0094878,0.0041969,-0.014448
-0.04875,0.097415,-0.0083929,-0.010354
-0.090102,0.15673,-0.012688,-0.0023566
-0.11118,0.13917,0.00013302,0.0057417
-0.11161,0.095615,0.015573,0.0099869
-0.094223,0.076411,0.015769,0.0092993
-0.062065,0.055876,0.0049474,0.0058954
-0.021697,0.0010244,-0.0015154,0.0028997
0.026822,-0.066804,-0.0049741,0.00099097
0.082108,-0.1163,-0.0071302,-0.0009676
0.12125,-0.12969,-0.0010775,-0.0038501
0.11573,-0.10095,0.0083038,-0.0076948
0.069338,-0.052935,0.0099567,-0.012314
0.017497,-0.015277,0.0047177,-0.017769
-0.009,0.00085387,0.0035338,-0.022859
-0.0089742,0.00022894,0.0092328,-0.0246
-0.0015352,-0.0056285,0.012747,-0.020746
-0.0045439,-0.0031557,0.0058023,-0.012072
-0.020434,0.017105,-0.010866,-0.0015623
-0.033518,0.040652,-0.019391,0.0072102
-0.030491,0.041649,-0.0052307,0.010308
-0.022688,0.030669,0.0091886,0.0059808
-0.023721,0.03616,0.00046413,-0.0022855
-0.027162,0.05324,-0.01791,-0.0088107
-0.025128,0.051189,-0.024189,-0.010626
-0.019517,0.019654,-0.014787,-0.0083014
-0.0081778,-0.0159,0.0011124,-0.0046514
0.0089411,-0.033047,0.014323,-0.0025751
0.012644,-0.023225,0.0099546,-0.0029365
-0.0087359,0.0068791,-0.014353,-0.0040589
-0.033911,0.017733,-0.028573,-0.0031673
-0.041079,-0.0017073,-0.020493,0.00016396
-0.037147,-0.019265,-0.011061,0.0035117
-0.031858,-0.025379,-0.0095935,0.0050196
-0.024741,-0.013559,-0.014412,0.0047732
-0.01957,0.017983,-0.021403,0.0037252
-0.014659,0.036986,-0.019168,0.0023921
-0.005088,0.026829,-0.0079431,0.00088645
0.0017704,0.0076514,0.00086172,-0.00049308
8.4212e-05,-0.00087698,0.0022905,-0.0014511
-0.0026898,0.0010554,0.00015171,-0.0014574
3.4348e-05,0.0069405,-0.00034689,-2.9503e-06
0.0050759,0.0092611,0.00050655,0.0024633
0.0083268,0.0011212,0.0016331,0.0045721
0.0095012,-0.0081056,0.00096273,0.0050897
0.0092845,-0.0061544,-0.0057068,0.0043948
0.0095282,0.00048531,-0.01094,0.0041353
0.011301,4.5833e-05,-0.0060717,0.0047075
0.012005,-0.0048248,0.0014448,0.0053104
0.01227,-0.0069697,0.0042278,0.0056074
0.015936,-0.0087959,0.0018522,0.0054316
0.020245,-0.012602,-0.003114,0.0048337
0.02136,-0.012978,-0.0049177,0.0044931
0.018103,-0.010378,-0.0027957,0.0051065
0.0101,-0.014156,-2.3243e-05,0.0062429
0.0021835,-0.021509,0.00078179,0.0063728
0.001464,-0.022088,-0.00082418,0.0049707
0.0096015,-0.02,-0.00014481,0.0031945
0.020878,-0.020387,0.0023382,0.0019621
0.027082,-0.018711,-6.0034e-05,0.0014326
0.027942,-0.013428,-0.005767,0.0014959
0.025326,-0.012213,-0.0066587,0.0017507
0.017548,-0.020656,-0.00056063,0.0020674
0.0075924,-0.022273,0.0027475,0.0019821
-0.0005346,-0.010252,-0.0010675,0.00091135
-0.0014974,-0.0086138,-0.00091432,-0.00050272
0.005163,-0.013965,0.0022945,-0.0015264
0.012244,-0.0017096,0.00076154,-0.0022349
0.015485,0.014168,-0.00027011,-0.002399
0.01248,0.0096827,0.0016667,-0.0015464
0.0096294,-0.011661,0.0051362,-0.00023372
0.013467,-0.03218,0.0081215,0.00070292
0.018975,-0.037991,0.0090566,0.001392
0.02873,-0.031511,0.010885,0.0024224
0.048904,-0.025727,0.016791,0.0041507
0.068675,-0.023433,0.02469,0.0062253
0.073132,-0.013015,0.025191,0.0074
0.064613,-1.847e-06,0.019165,0.0063458
0.052187,-0.0027675,0.017025,0.0026162
0.0367,-0.00866,0.017266,-0.0032912
0.022347,-0.0072852,0.020559,-0.0099359
0.013957,-0.00011054,0.024529,-0.014481
0.0003757,0.037071,0.011773,-0.013533
-0.021441,0.081935,-0.010246,-0.0063677
-0.030179,0.067049,-0.014398,0.0027594
-0.019374,-0.0010117,-0.00033409,0.007554
-0.01492,-0.060474,0.010074,0.0056751
-0.042802,-0.083674,0.0082198,0.00083104
-0.098733,-0.074233,0.0014949,-0.0015045
-0.13537,-0.047176,-0.0028644,0.00020634
-0.12288,-0.029311,-0.0028834,0.0031368
-0.086703,-0.031823,0.00051143,0.0043771
-0.03651,-0.036274,0.0092893,0.0028642
0.039372,-0.021124,0.018578,-0.0012877
0.11047,0.014224,0.016821,-0.0063341
0.11814,0.055398,0.0061949,-0.009691
0.062319,0.07595,0.0019596,-0.010242
0.0062964,0.057012,0.006208,-0.0093173
-0.013132,0.023494,0.0044315,-0.0093347
-0.017334,0.0078012,-0.0066761,-0.010942
-0.043493,0.0045994,-0.015682,-0.011831
-0.089422,-0.00075499,-0.016699,-0.0089984
-0.11407,-0.0023551,-0.013668,-0.0021498
-0.09451,0.0087384,-0.009427,0.0058334
-0.056765,0.014967,-0.0027646,0.011473
-0.025151,-0.0059666,0.0055516,0.012845
0.010485,-0.038104,0.012906,0.010284
0.0172,-0.050044,0.013198,0.0059709
-0.027754,-0.030295,-0.0013189,0.0025448
-0.062979,0.012051,-0.023869,0.0014635
-0.055103,0.062508,-0.031639,0.0021487
-0.023508,0.10738,-0.019321,0.0026768
-0.0027123,0.1151,-0.0058994,0.0013353
-0.017915,0.074327,-0.0039606,-0.0023224
-0.046618,0.030546,-0.01471,-0.0073445
-0.059047,0.017788,-0.033045,-0.011643
-0.058332,0.012237,-0.042953,-0.012903
-0.057854,-0.010524,-0.031841,-0.010996
-0.05888,-0.030771,-0.01349,-0.0083048
-0.05648,-0.027835,-0.0069771,-0.0058566
-0.049735,-0.010229,-0.0096691,-0.0027652
-0.037934,0.010725,-0.011547,0.00081584
-0.012054,0.025085,-0.0088108,0.0038155
0.034822,0.025011,-0.0029131,0.00559
0.073409,0.021487,-0.00018361,0.0058607
0.062386,0.029707,-0.010101,0.0047736
0.021991,0.040413,-0.025586,0.0030689
0.0024158,0.04044,-0.026335,0.0010533
0.005104,0.039082,-0.014588,-0.00079938
0.0054523,0.037188,-0.0039788,-0.00032672
-0.00042459,0.025606,0.0013481,0.0036564
-0.0056998,0.012236,0.0014581,0.0086343
-0.0079573,0.0097738,-0.0013635,0.011227
-0.0083208,0.019963,-0.0080982,0.010459
0.0052812,0.024339,-0.010689,0.0072245
0.040995,0.0059969,0.0034706,0.0026947
0.064147,-0.01834,0.019502,-0.0021267
0.046143,-0.014795,0.0087434,-0.0055903
0.014612,0.019308,-0.017495,-0.0056903
0.0063427,0.041608,-0.024608,-0.0032902
0.018121,0.038932,-0.018433,-0.0023452
0.028603,0.028865,-0.013553,-0.0045732
0.029714,0.011111,-0.0016035,-0.0080615
0.020061,-0.004389,0.01262,-0.011241
0.0066648,-0.0066433,0.013919,-0.013632
0.0012452,-0.0043502,0.0065206,-0.01336
-0.0049206,-0.0046902,0.0056584,-0.0077466
-0.017623,-0.0078082,0.0095833,0.0029808
-0.022983,-0.012607,0.0046529,0.014439
-0.018408,-0.0067167,-0.0080314,0.021955
-0.010805,0.014637,-0.014646,0.024201
0.0043738,0.02577,-0.0076307,0.021766
0.032502,0.01133,0.0072375,0.015631
0.050769,-0.0072426,0.013194,0.0078864
0.040869,-0.011139,0.0052456,0.00092103
0.028952,-0.0076406,-0.0035219,-0.0032737
0.033803,-0.0099995,-0.0035619,-0.0030967
0.043727,-0.017643,0.0015041,0.0014471
0.046209,-0.023057,0.0058437,0.0075598
0.034374,-0.027646,0.011421,0.010267
0.012409,-0.029474,0.011193,0.0062359
-0.0047691,-0.020634,0.0010822,-0.0024241
-0.013279,-0.0022112,-0.0049051,-0.010575
-0.022249,0.011198,-0.0029494,-0.016025
-0.027229,0.0086979,0.0013047,-0.019858
-0.020792,0.0031171,0.0051424,-0.022487
-0.009498,0.0036582,0.0066713,-0.022962
0.0030017,0.0089099,0.0072626,-0.02092
0.016704,0.0209,0.0091545,-0.016776
0.024703,0.028541,0.009369,-0.011207
0.026274,0.020997,0.0066311,-0.0061109
0.02385,0.0079266,0.0047264,-0.003069
0.015029,-0.00028976,0.0031553,-0.00076002
0.0086879,-0.0052041,0.0019694,0.0035061
0.011262,-0.008638,0.0022371,0.01081
0.017049,-0.01335,0.0035291,0.01927
0.020301,-0.020925,0.0035825,0.025333
0.015261,-0.021762,-0.0017259,0.026474
0.003046,-0.019069,-0.0066588,0.022928
-0.0067272,-0.028729,-0.0029428,0.017051
-0.0093791,-0.043299,0.0035008,0.010897
-0.0040977,-0.043661,0.004423,0.0050529
0.0093512,-0.027529,0.0029433,-0.00077572
0.024309,-0.008343,0.0033104,-0.0068407
0.03114,-0.00092023,0.0085058,-0.012846
0.022372,-0.0055706,0.015901,-0.018338
0.0032431,-0.01178,0.016279,-0.023063
-0.0085275,-0.0020674,0.0086735,-0.026149
-0.0066523,0.034102,-0.0018297,-0.026305
0.0011898,0.064952,-0.007638,-0.022923
0.0018187,0.059591,-0.0058333,-0.016427
-0.010592,0.04221,-0.0013061,-0.008157
-0.023994,0.033065,0.0022748,0.0002902
-0.028831,0.013662,0.0040978,0.0077814
-0.027285,-0.019037,0.0076127,0.013819
-0.024236,-0.040256,0.012131,0.01783
-0.018658,-0.040262,0.011057,0.018883
0.00051921,-0.030744,0.0080467,0.016997
0.025295,-0.021461,0.0074361,0.013678
0.026813,-0.012913,0.00020468,0.010295
0.0091367,-0.0036211,-0.01058,0.0074851
0.003633,-0.00028381,-0.0088101,0.0055036
0.012549,-0.0091987,0.0014456,0.003653
0.021139,-0.016946,0.0065001,0.0012233
0.029987,-0.0086958,0.0042643,-0.0016588
0.034593,0.0027243,-0.0012806,-0.0048769
0.026652,-0.00057476,-0.0039775,-0.0078965
0.015119,-0.011953,-8.0422e-06,-0.00955
0.0097972,-0.011754,0.0056083,-0.0087884
0.0056924,0.0028747,0.0051384,-0.004625
-0.00090643,0.015646,0.00019125,0.0030103
-0.010219,0.016393,-0.0022737,0.012035
-0.020994,0.012345,-0.0025946,0.018813
-0.026417,0.013086,-0.0064561,0.020387
-0.029387,0.014746,-0.012309,0.016694
-0.037216,0.0088209,-0.01147,0.01015
-0.044157,0.00018007,-0.0040193,0.0034246
-0.034198,-0.00195,0.0023856,-0.0017797
-0.0057169,0.0011715,0.006971,-0.0051644
0.014403,0.0088219,0.009844,-0.0077309
0.011882,0.020133,0.0095813,-0.010637
0.01376,0.028113,0.0093943,-0.013423
0.027646,0.030944,0.011985,-0.013859
0.024869,0.028306,0.017133,-0.010589
0.0041134,0.024099,0.019246,-0.0044437
-0.010666,0.03195,0.012862,0.0031578
-0.0069982,0.057168,-0.00047586,0.010486
0.017075,0.076742,-0.010909,0.015106
0.051996,0.059848,-0.0064634,0.015771
0.060788,0.016273,0.0052666,0.013609
0.028639,-0.028997,0.0088348,0.010262
-0.0014188,-0.065098,0.0048783,0.0059968
-0.00076803,-0.076115,-0.0054729,0.00074365
0.010598,-0.062328,-0.021137,-0.004315
0.0070156,-0.04716,-0.029533,-0.0079164
-0.0082828,-0.048512,-0.019337,-0.010554
-0.016064,-0.067143,0.0070191,-0.013854
-0.01422,-0.075482,0.02621,-0.017695
-0.012239,-0.051242,0.022762,-0.018913
-0.010834,-0.016251,0.010459,-0.014559
-0.0085087,0.0022017,0.0002421,-0.0054152
-0.0054159,-0.0014938,-0.0047371,0.0042164
0.0060859,-0.016457,0.00083915,0.0099343
0.025003,-0.024489,0.010603,0.010781
0.037566,-0.020416,0.014679,0.0088398
0.041976,-0.01098,0.013268,0.0062216
0.04295,0.0014202,0.010052,0.0039547
0.039283,0.018052,0.0071586,0.0024994
0.027694,0.032199,0.0048567,0.0016185
0.0090293,0.035898,0.0019643,0.00076247
0.002802,0.031624,-0.0011929,-0.0004289
0.01765,0.025669,-0.0022296,-0.0018762
0.02848,0.020658,-0.00095346,-0.0028009
0.018699,0.014587,-0.0023329,-0.0027927
-0.00045877,-0.00094664,-0.0060291,-0.0022971
-0.0042192,-0.029997,-0.0045718,-0.0018982
0.015376,-0.060044,-0.0012798,-0.0020351
0.037605,-0.072596,-0.0037677,-0.0027129
0.036308,-0.071675,-0.0078921,-0.0032923
0.0071996,-0.074703,-0.010759,-0.0033884
-0.022635,-0.077395,-0.013402,-0.0034517
-0.029391,-0.067514,-0.01029,-0.0032624
-0.016349,-0.040912,-0.00097515,-0.0016873
-0.0012019,-0.0099782,0.0048003,0.001215
0.011404,0.00013223,0.0025187,0.0037604
0.029878,-0.012038,-0.0036757,0.004807
0.031611,-0.027463,-0.01093,0.0051698
-0.002981,-0.028687,-0.018964,0.0059029
-0.040425,-0.017931,-0.024427,0.0068513
-0.048198,-0.014312,-0.018038,0.0072524
-0.037161,-0.012516,-0.0026121,0.0060785
-0.019285,0.00021655,0.0080674,0.0025028
0.021554,0.016572,0.013369,-0.0025402
0.059037,0.034239,0.014618,-0.0062342
0.037592,0.048547,0.0068327,-0.0067689
-0.014041,0.050363,-0.01042,-0.0042289
-0.035231,0.040331,-0.026709,0.00090717
-0.026237,0.016741,-0.031061,0.0069591
-0.011953,-0.012257,-0.026646,0.010888
-0.0073352,-0.029777,-0.019494,0.010648
-0.013799,-0.029938,-0.014172,0.0066361
-0.021521,-0.015725,-0.014963,0.0012445
-0.025179,-0.0015461,-0.017379,-0.0030777
-0.022483,0.00046446,-0.014796,-0.0054756
-0.013017,-0.004696,-0.0088085,-0.0063166
-0.0050077,-0.011168,-0.0025462,-0.006129
-0.0067692,-0.016163,0.00072998,-0.0053413
-0.01538,-0.013811,-0.0030079,-0.0042763
-0.021426,-0.0034678,-0.0092023,-0.0026306
-0.022533,0.0081433,-0.011119,-0.00015265
-0.022624,0.016322,-0.0085319,0.0022099
-0.023158,0.024165,-0.0051317,0.0031842
-0.02657,0.02872,-0.0037357,0.002164
-0.030463,0.016595,-0.0028276,-0.00044617
-0.027975,-0.0049588,-0.0030695,-0.0032366
-0.023094,-0.015579,-0.0061686,-0.0047003
-0.022127,-0.016097,-0.008632,-0.0036912
-0.02473,-0.014326,-0.0081791,0.0001906
-0.024936,-0.010414,-0.0045046,0.0052462
-0.018321,-0.0054923,-0.002093,0.0080302
-0.013484,-0.0066864,-0.0058886,0.006606
-0.017247,-0.019021,-0.0073958,0.0025073
-0.018665,-0.031525,-0.0017039,-0.0017494
-0.0071827,-0.031291,-0.00033678,-0.0051882
0.0082327,-0.029702,-0.0061395,-0.0073059
0.014878,-0.031835,-0.0082253,-0.0075897
0.015335,-0.015662,-0.0035177,-0.0067209
0.017536,0.021124,0.0017044,-0.0063582
0.021517,0.051148,0.0040543,-0.0076973
0.022718,0.050832,0.0046979,-0.0104
0.022409,0.025266,0.0058624,-0.012498
0.022438,-0.00052037,0.0070095,-0.011844
0.018799,-0.01023,0.0038744,-0.0074338
0.0081625,0.005606,-0.0048809,0.00066203
-0.0077931,0.051021,-0.013573,0.010402
-0.022879,0.092871,-0.015236,0.017478
-0.030713,0.080084,-0.0095167,0.01769
-0.028425,0.022604,0.00011803,0.010313
-0.025372,-0.025879,0.011801,-0.00087245
-0.03323,-0.050364,0.021534,-0.010818
-0.04129,-0.062468,0.022981,-0.015685
-0.035371,-0.056704,0.015993,-0.013377
-0.022175,-0.030376,0.0015644,-0.0054744
-0.011465,0.0029171,-0.016425,0.0035207
0.0091299,0.021858,-0.020537,0.0092874
0.04153,0.011721,-0.002707,0.0091231
0.047011,-0.01313,0.016884,0.0036025
0.017782,-0.022351,0.019574,-0.0033298
-0.00294,-0.0065478,0.010859,-0.0080561
-0.0076565,0.0064522,0.0060112,-0.0099797
-0.020671,-0.003584,0.0091556,-0.010078
-0.035765,-0.0099917,0.01016,-0.0086861
-0.045003,0.0031632,0.0026926,-0.0055145
-0.055952,0.016288,-0.0092345,-0.00097666
-0.050019,0.026112,-0.017002,0.0039995
-0.014046,0.035851,-0.013656,0.0080292
0.023916,0.030996,-0.00032738,0.0078628
0.038574,0.008887,0.012804,0.0011585
0.033366,-0.017593,0.017469,-0.0093241
0.023981,-0.0314,0.012251,-0.017585
0.019588,-0.014594,-0.0019053,-0.018882
0.025385,0.01508,-0.013751,-0.012549
0.030284,0.022905,-0.012738,-0.0018607
0.012975,0.011504,-0.0056767,0.0087291
-0.020613,-0.0033731,-0.0016705,0.016109
-0.048841,-0.021863,-0.00021762,0.019171
-0.058657,-0.041692,0.0026586,0.017911
-0.049799,-0.045386,0.0063638,0.013656
-0.040484,-0.011558,0.0022668,0.0090029
-0.044542,0.060818,-0.0091756,0.0058013
-0.045183,0.12089,-0.012737,0.0043366
-0.031997,0.11587,-0.0045863,0.0033233
-0.021988,0.06925,0.0045121,0.00082199
-0.020097,0.028027,0.0094871,-0.0034721
-0.0092712,0.0020507,0.012142,-0.007712
0.018081,-0.0089306,0.0092446,-0.0097823
0.043065,-0.0029641,-0.0016013,-0.0089563
0.042778,0.012661,-0.015755,-0.0057288
0.019269,0.018396,-0.0245,-0.00091657
-0.0049512,0.0031474,-0.015676,0.004007
-0.012126,-0.013711,0.0049846,0.0065015
-0.0045195,-0.010874,0.015708,0.0050935
0.0050288,0.0055199,0.010441,0.0016642
0.012416,0.014343,0.00013697,0.00087595
0.018743,0.01545,-0.006979,0.0057533
0.012843,0.023637,-0.012465,0.013039
-0.0046911,0.030408,-0.014055,0.015991
-0.014564,0.030905,-0.0094293,0.012213
-0.017994,0.038545,-0.0080253,0.0061542
-0.023371,0.049251,-0.012384,0.0031098
-0.022219,0.04773,-0.010947,0.0030166
-0.014507,0.033727,0.0010722,0.0025842
-0.011157,0.018944,0.013347,0.0012208
-0.0031742,0.0088633,0.015411,0.0016897
0.025814,0.0055729,0.0080755,0.0051858
0.049661,0.012011,-0.0021451,0.0083754
0.030758,0.021448,-0.0089186,0.007199
-0.0076458,0.021359,-0.0070101,0.0015653
-0.023915,0.0089745,0.0014462,-0.005345
-0.024662,-0.0044998,0.0073635,-0.0096502
-0.029155,-0.0093125,0.010023,-0.0081176
-0.034876,-0.0021319,0.011165,-0.00057696
-0.033544,0.011944,0.0056683,0.0088451
-0.026791,0.013185,-0.00055946,0.014695
-0.029182,-0.0065931,0.0039406,0.013923
-0.024989,-0.030783,0.01573,0.0070689
0.0072537,-0.044261,0.022615,-0.0026288
0.033475,-0.042922,0.01815,-0.01038
0.039144,-0.03329,0.012438,-0.011303
0.054859,-0.028724,0.017621,-0.0044183
0.084499,-0.026099,0.028123,0.0046877
0.094278,-0.0089585,0.034799,0.0087766
0.062596,0.013598,0.034126,0.0061311
0.014898,0.026901,0.0224,0.00095084
-0.012775,0.053366,-0.0014614,-0.0017795
-0.0059925,0.098397,-0.020631,-0.00035198
0.014328,0.11736,-0.016648,0.0023747
0.0084887,0.085094,-0.0015016,0.00082402
-0.018115,0.027996,0.0053984,-0.0067865
-0.032664,-0.020494,0.0047873,-0.015166
-0.029703,-0.042911,0.0078639,-0.018439
-0.012742,-0.039837,0.017565,-0.016175
0.010648,-0.030742,0.022738,-0.011564
0.017675,-0.033733,0.01521,-0.0077364
0.0071527,-0.041358,0.0038922,-0.0056158
0.0041779,-0.036702,0.0020988,-0.0029227
0.0055768,-0.02694,0.0094512,0.0022198
-0.0073359,-0.014672,0.012396,0.0071827
-0.017725,0.0015979,0.0055454,0.0093886
-0.0082255,0.0068324,-0.00092643,0.010054
0.0028512,0.0047232,-0.0014248,0.0096216
-0.0023707,0.0098075,0.0013543,0.0064194
0.014503,0.0181,0.0048345,-0.00043833
0.069925,0.024264,0.0056792,-0.010856
0.081074,0.028299,0.0019158,-0.022158
0.028807,0.026097,-0.0014876,-0.028685
-0.0072833,0.022451,-0.00068485,-0.028172
-0.0082496,0.024889,-0.0031162,-0.022639
-0.0023382,0.02609,-0.0095283,-0.01345
0.0018385,0.022886,-0.011096,-0.0022135
-0.0011832,0.023607,-0.0093564,0.0076483
-0.011468,0.020694,-0.010096,0.013075
-0.017394,0.0031856,-0.013417,0.013226
-0.015384,-0.019254,-0.018389,0.0091917
-0.013013,-0.035003,-0.022838,0.0031626
-0.014336,-0.043149,-0.019972,-0.0026883
-0.017568,-0.047626,-0.0086455,-0.0074424
-0.018004,-0.046238,0.00050437,-0.01132
-0.013682,-0.037035,-0.00076402,-0.015035
-0.0059063,-0.031953,-0.0093497,-0.018298
0.0035899,-0.035539,-0.017345,-0.018995
0.010601,-0.037828,-0.018729,-0.015368
0.014624,-0.0356,-0.013105,-0.0081664
0.018035,-0.03237,-0.0072781,-0.00022657
0.01871,-0.030435,-0.0064614,0.0056664
0.010635,-0.026937,-0.0076151,0.0089908
-0.0020616,-0.021139,-0.0067153,0.010807
-0.010151,-0.017159,-0.0062614,0.011469
-0.015094,-0.0091888,-0.010482,0.010782
-0.016859,0.002222,-0.015752,0.0093395
-0.012745,0.00013605,-0.013283,0.0076378
-0.0095132,-0.013536,-0.0056762,0.0053002
-0.014502,-0.016818,-0.0033962,0.0024121
-0.022939,-0.0044064,-0.0060002,-9.4836e-05
-0.026293,0.003274,-0.0064362,-0.0012818
-0.024583,-0.0047392,-0.003756,-0.0015136
-0.01985,-0.010943,-0.0046318,-0.0017924
-0.0032282,-0.0063899,-0.0076361,-0.0017836
0.028133,-0.0075767,-0.0037406,-0.00084935
0.048209,-0.023723,0.004198,0.00076268
0.033464,-0.038685,0.0076967,0.0026187
0.004987,-0.034255,0.0057394,0.0044927
-0.0064097,-0.012939,1.7027e-05,0.0063218
-0.0023803,0.0049379,-0.0059813,0.0082013
0.011318,0.0047303,-0.0059411,0.010032
0.02726,-0.0032575,-0.0024335,0.011224
0.027567,-0.0055518,-0.00066329,0.011157
0.015118,-0.0058526,0.0012081,0.0095742
0.0040277,-0.01048,0.0039331,0.0066952
-0.0047821,-0.014613,0.005528,0.003641
-0.011693,-0.0095074,0.0031682,0.0019209
-0.010779,0.0026861,0.00036336,0.0022129
-0.00088036,0.012157,0.0036022,0.0039094
0.0082062,0.017051,0.0065457,0.0055345
0.0078117,0.021677,0.0048519,0.0062258
0.0023288,0.02367,0.0029888,0.0063389
0.00019018,0.019192,0.001901,0.0065245
0.0011785,0.010273,0.0029519,0.0069818
0.001899,0.0023819,0.0051287,0.0074104
0.0042763,0.00024189,0.0069131,0.0072125
0.005379,0.0034381,0.0070847,0.0058092
0.00030451,0.0073237,0.0042561,0.0034354
-0.0041755,0.0076272,0.0039889,0.0012013
-0.0035577,0.0044918,0.0074587,0.00097075
-0.0028523,-0.000241,0.0076858,0.0041348
-0.0076921,-0.0064875,0.0054299,0.0089841
-0.012257,-0.011449,0.0074506,0.011421
-0.0068559,-0.0060807,0.0094027,0.0090233
-0.0048949,0.0044596,0.005381,0.00336
-0.014118,-0.0015952,0.0050465,-0.0019713
-0.017282,-0.018563,0.013732,-0.0051702
-0.016576,-0.021075,0.015342,-0.0074433
-0.022818,-0.013406,0.003734,-0.0097739
-0.01456,-0.018025,0.00027097,-0.010891
0.027725,-0.035132,0.014135,-0.010406
0.071265,-0.049936,0.028007,-0.0099161
0.072315,-0.064379,0.026801,-0.0098184
0.042138,-0.086391,0.016681,-0.0087996
0.0086215,-0.11151,0.015712,-0.0063278
-0.016705,-0.12646,0.024828,-0.0031352
-0.030367,-0.10756,0.025113,0.00027757
-0.044133,-0.052561,0.0086214,0.0042034
-0.056537,-0.0014867,-0.0047771,0.0088058
-0.053835,0.021748,-0.002669,0.012645
-0.024346,0.022473,0.0047156,0.013655
0.022205,0.012641,0.013295,0.011221
0.044928,0.012997,0.021806,0.0061411
0.037606,0.019432,0.025417,0.00028205
0.0295,0.023563,0.019025,-0.0047096
0.041926,0.045123,0.0010939,-0.0083467
0.069868,0.091277,-0.016277,-0.010265
0.075899,0.13313,-0.017924,-0.011019
0.046282,0.113,-0.0019136,-0.012475
0.015135,0.016179,0.018611,-0.014829
0.0095933,-0.081395,0.025363,-0.015638
0.015169,-0.1221,0.01593,-0.01319
0.013178,-0.12438,0.0064229,-0.0090547
0.0063983,-0.11211,0.0056388,-0.0057156
-0.0024116,-0.087765,0.0071387,-0.0034083
-0.0099633,-0.055977,0.0050265,-0.0012118
-0.019541,-0.026622,0.0024899,0.00068553
-0.038368,0.00085254,0.0022842,0.0017014
-0.050337,0.039112,-0.0014849,0.0026735
-0.034329,0.10307,-0.010223,0.0048746
0.00063478,0.16534,-0.017795,0.0077536
0.02261,0.16581,-0.019372,0.009449
0.018958,0.1137,-0.014496,0.0084494
0.0056697,0.070701,-0.0073357,0.0043171
0.0013051,0.052289,0.00089304,-0.001351
0.011823,0.041793,0.0068684,-0.0060617
0.026474,0.039606,0.0038611,-0.0085831
0.0292,0.044557,-0.0044591,-0.008355
0.019784,0.041595,-0.008598,-0.0051109
0.0098238,0.028809,-0.0076495,-3.2922e-05
0.0032381,0.01889,-0.01026,0.0044541
0.00012933,0.017534,-0.01745,0.0066629
-0.00064902,0.018063,-0.017319,0.0065975
-0.0030376,0.017364,-0.0088085,0.004709
-0.008141,0.024307,-0.003157,0.0011371
-0.015136,0.041296,-0.0059998,-0.0033436
-0.019863,0.054465,-0.0124,-0.0066634
-0.018596,0.055059,-0.013796,-0.006979
-0.017942,0.051529,-0.01275,-0.004489
-0.024209,0.050757,-0.013821,-0.00086392
-0.02944,0.048027,-0.012845,0.0022281
-0.028356,0.038072,-0.0093879,0.0040736
-0.026799,0.026834,-0.0085558,0.0047122
-0.02681,0.022296,-0.0086772,0.0045647
-0.028508,0.025805,-0.0083184,0.004455
-0.02995,0.031977,-0.01132,0.0048439
-0.024146,0.026917,-0.012451,0.0053804
-0.016781,0.0090321,-0.00395,0.0049921
-0.016887,-0.0023571,0.0062502,0.0023384
-0.016243,0.0018038,0.0048118,-0.0024999
-0.012335,0.0024539,-0.0027931,-0.0068435
-0.013152,-0.0089601,-0.0040257,-0.0079386
-0.014862,-0.015164,0.00011007,-0.0062487
-0.012051,-0.012448,0.0013291,-0.0043104
-0.0083276,-0.0088928,-0.0030184,-0.0032758
-0.0047118,-0.0066237,-0.0054167,-0.0023377
0.0010634,-0.0068803,-0.00065905,-0.00098079
0.0066194,-0.0081157,0.004657,0.0006011
0.0056785,-0.0084678,0.0036552,0.0026908
-0.0029701,-0.009367,-0.00078773,0.0050662
-0.011561,-0.011125,-0.0038143,0.00641
-0.012605,-0.016526,-0.0041673,0.0059585
-0.008028,-0.02609,-0.00024662,0.0042617
-0.0044727,-0.024665,0.0041806,0.0022164
-0.0026347,-0.0064288,0.0021109,0.00020051
0.00073212,0.0052902,-0.0023926,-0.0016352
0.0040751,-0.0032682,-0.0015829,-0.002783
0.0037365,-0.016327,0.0029846,-0.0032106
0.0024954,-0.022923,0.0072109,-0.0040313
0.0046456,-0.02731,0.0094693,-0.0057032
0.010315,-0.030896,0.009062,-0.0071065
0.01723,-0.027917,0.0056037,-0.0068207
0.017877,-0.016411,-0.0011711,-0.0042529
0.0088773,-0.0052848,-0.0069338,-0.00022484
-0.0038154,-0.0035068,-0.0054792,0.0036181
-0.014593,-0.01253,0.0017447,0.0059767
-0.028104,-0.029752,0.0079076,0.0061929
-0.044774,-0.044774,0.010097,0.0043743
-0.046521,-0.048306,0.0095724,0.0014463
-0.034482,-0.044635,0.0082352,-0.0012772
-0.0178,-0.031741,0.0099947,-0.0026876
0.026077,-0.0103,0.018292,-0.0024565
0.093497,0.0078737,0.023795,-0.0012232
0.11414,0.019139,0.018698,0.00033038
0.055953,0.025018,0.014752,0.0020388
-0.014378,0.034807,0.01635,0.0030557
-0.036791,0.051926,0.015649,0.0019558
-0.018646,0.058791,0.013902,-0.0010935
0.00018044,0.040132,0.013304,-0.0035338
-0.0062498,0.0098666,0.0090853,-0.0022402
-0.021966,-0.014912,0.001403,0.0039864
-0.022273,-0.04544,-0.0048913,0.012859
-0.018057,-0.07273,-0.0092751,0.019525
-0.041377,-0.071285,-0.0086287,0.020201
-0.087029,-0.043615,-0.0017377,0.014473
-0.11399,0.01174,0.0040708,0.0047569
-0.11396,0.078048,0.0062128,-0.0054452
-0.097897,0.095456,0.0085805,-0.013468
-0.067779,0.0497,0.011052,-0.01804
-0.019841,-0.0050505,0.0080843,-0.018837
0.049742,-0.031138,0.0012231,-0.016521
0.097356,-0.036757,0.0026235,-0.013256
0.094141,-0.031391,0.0095594,-0.011179
0.077029,-0.017648,0.0073205,-0.009245
0.064457,-0.011712,0.0021765,-0.0051148
0.044071,-0.018708,0.0025752,0.0010547
0.013963,-0.028339,0.0022208,0.0079188
-0.014738,-0.034831,0.00096869,0.013763
-0.027827,-0.02825,-0.00031738,0.016415
-0.019135,-0.0068014,-0.0053133,0.015674
-0.0024275,0.0092532,-0.012087,0.013823
0.0018866,0.010589,-0.016148,0.012746
-0.0097332,0.010797,-0.017325,0.011302
-0.024449,0.018023,-0.017134,0.0073083
-0.027021,0.025684,-0.013611,0.00095859
-0.01842,0.030116,-0.006472,-0.0055036
-0.012187,0.033637,-0.00085977,-0.010085
-0.010825,0.028895,-0.00040067,-0.012578
-0.0016232,0.0083725,0.00094502,-0.014334
0.015658,-0.01711,0.0059051,-0.016992
0.019664,-0.024968,-0.0010233,-0.020777
0.010131,-0.013885,-0.019171,-0.023013
0.012288,-0.010984,-0.022805,-0.019713
0.027034,-0.02345,-0.0090657,-0.010597
0.032627,-0.029646,-9.8288e-05,-0.00023734
0.024329,-0.020593,-0.0065926,0.0067846
0.016424,-0.013171,-0.016513,0.0093957
0.017061,-0.016397,-0.017465,0.0091675
0.022025,-0.015734,-0.011255,0.0079511
0.026963,-0.011402,-0.0031005,0.0063901
0.030397,-0.013367,0.00087501,0.0041948
0.030523,-0.014711,-0.0030491,0.0020954
0.029516,-0.014794,-0.0084752,0.0023124
0.030211,-0.018008,-0.0082559,0.0053753
0.024931,-0.0178,-0.0075025,0.0082476
0.0089954,-0.011725,-0.012034,0.0078868
-0.003464,-0.0044216,-0.014154,0.0043256
-0.0026153,0.0010909,-0.008415,-0.00059895
0.0032501,0.0036269,-0.00022539,-0.0049035
0.0065531,0.0022399,0.0060761,-0.0070997
0.013243,0.00011188,0.0059767,-0.0067016
0.030066,0.0017024,-0.0015026,-0.004033
0.037872,0.0012784,-0.0036462,-0.00039197
0.018794,-0.0052672,0.0053266,0.0017052
-0.0089138,-0.011621,0.013068,0.00050708
-0.019701,-0.0099347,0.01102,-0.0024878
-0.011371,0.0019452,0.002143,-0.0032999
0.0050067,0.01217,-0.0052263,0.00013973
0.023625,0.011388,-0.0052247,0.0057218
0.032049,0.0043409,-0.00014027,0.0098562
0.020197,-0.0059805,0.0073057,0.010713
-0.00037941,-0.019157,0.013455,0.0087396
-0.014845,-0.027237,0.010497,0.0055961
-0.012992,-0.02057,0.0011118,0.0033164
0.001753,-0.0098217,-0.00073695,0.0027134
0.0075952,-0.013272,0.0067249,0.0022959
-0.0068356,-0.018994,0.0085996,0.00088301
-0.026361,-0.0078687,0.00046578,7.1946e-05
-0.022372,0.0058143,-0.0047751,0.0014271
0.0097935,0.0057923,-0.0028277,0.0033482
0.039121,0.0027477,-0.00043725,0.0034785
0.044063,0.00030253,0.002212,0.0020777
0.031908,-0.0077575,0.0051814,0.00085439
0.01716,-0.015385,0.0053814,0.00044286
0.0066044,-0.01425,0.0045519,0.0002121
-0.0001805,-0.0031281,0.0010822,-0.00031235
-0.00080512,0.0073553,-0.0054729,-0.00050802
0.003456,0.006052,-0.0057857,-0.00011054
0.0054655,-0.00070197,0.00021283,-5.7395e-05
0.0062987,-0.0022957,0.0045925,-0.0009212
0.0088814,0.0041495,0.0078067,-0.002323
0.014288,0.015676,0.010393,-0.0034903
0.028729,0.019362,0.012424,-0.0036816
0.052228,0.0081507,0.015837,-0.0026055
0.076142,-0.0037564,0.020274,-0.00044615
0.095608,-0.0076295,0.022589,0.0028656
0.10536,-0.010665,0.018458,0.0068944
0.096988,-0.012638,0.008877,0.0094472
0.068664,-0.013206,0.0020105,0.0087121
0.029951,-0.020881,0.0065622,0.0061279
-0.0038592,-0.035511,0.016943,0.0059296
-0.028042,-0.045074,0.019873,0.011221
-0.046225,-0.043447,0.010262,0.019721
-0.04873,-0.047934,-0.0035761,0.024357
-0.03179,-0.071169,-0.0076306,0.020081
-0.024343,-0.095174,-0.0010978,0.0080117
-0.036913,-0.10677,0.0079813,-0.0079522
-0.040925,-0.10186,0.012299,-0.023623
-0.031169,-0.072184,0.010962,-0.034683
-0.027324,-0.015855,0.003922,-0.039072
-0.018052,0.050752,-0.0068722,-0.037571
0.022749,0.074301,-0.0082038,-0.031017
0.074718,0.038571,0.0017327,-0.021004
0.092418,0.022403,0.010221,-0.011272
0.063998,0.072026,0.011036,-0.004586
0.021355,0.12562,0.0022759,-1.7403e-06
-0.00069029,0.11789,-0.012141,0.0062106
-0.013445,0.058473,-0.017871,0.016075
-0.041865,-0.0015285,-0.0069525,0.026145
-0.066306,-0.034441,0.0095893,0.03034
-0.059275,-0.053344,0.016289,0.026566
-0.036834,-0.069947,0.010951,0.017768
-0.02982,-0.076948,-0.00065459,0.0081188
-0.041323,-0.070652,-0.0092161,0.0006064
-0.05121,-0.050617,-0.0092668,-0.0041608
-0.049672,-0.017686,-0.007701,-0.0073515
-0.044005,0.020505,-0.010956,-0.010472
-0.034524,0.056288,-0.015059,-0.014027
-0.019319,0.0771,-0.015182,-0.016571
-0.0053085,0.069844,-0.013501,-0.016637
0.0029632,0.041308,-0.012584,-0.014906
0.001327,0.010245,-0.012768,-0.013397
-0.013134,-0.0064629,-0.0151,-0.013558
-0.031227,0.0047885,-0.016576,-0.015121
-0.040586,0.038549,-0.013085,-0.016676
-0.042722,0.067939,-0.011212,-0.017222
-0.046176,0.071833,-0.015492,-0.016138
-0.052904,0.059092,-0.018635,-0.012794
-0.054484,0.050075,-0.01719,-0.0073673
-0.043257,0.046587,-0.01576,-0.00099579
-0.027467,0.043871,-0.015773,0.0047738
-0.016641,0.041616,-0.013119,0.0082754
-0.0096252,0.039405,-0.0090431,0.0086612
-0.0062736,0.038891,-0.0088541,0.0071175
-0.0088105,0.042226,-0.012233,0.0061141
-0.015077,0.044486,-0.015556,0.007145
-0.020569,0.039733,-0.016374,0.009481
-0.020346,0.032069,-0.014957,0.011299
-0.014048,0.027872,-0.013083,0.011423
-0.0069969,0.028458,-0.012422,0.0099841
-0.0042877,0.028517,-0.010161,0.007773
-0.0096709,0.023498,-0.0037623,0.0050046
-0.020236,0.022856,-0.0019887,0.0020566
-0.027568,0.030331,-0.010699,0.00045048
-0.026599,0.030797,-0.017249,0.0010736
-0.019318,0.019095,-0.011922,0.0029654
-0.0054927,0.0046494,-0.0032591,0.0049672
0.024353,-0.0060417,0.00044125,0.0062351
0.051947,-0.008307,-0.002744,0.0059602
0.039311,-0.0020711,-0.011412,0.0045116
0.0007601,0.0029967,-0.015165,0.003277
-0.018641,0.0017024,-0.0076664,0.0025714
-0.01196,-0.00064633,0.00099355,0.0010694
-0.00026815,-0.0025618,0.003045,-0.0012959
0.0078422,-0.0083105,0.0038479,-0.00243
0.012434,-0.016773,0.0069634,-0.001263
0.0089252,-0.022152,0.0083412,0.0014117
-0.00027473,-0.019948,0.0053412,0.0048047
-0.005316,-0.01104,8.766e-05,0.0084751
-0.0043304,-0.0053775,-0.0026628,0.01193
-0.0050144,-0.0099615,-0.00076459,0.014169
-0.0087929,-0.021077,0.0045843,0.013663
-0.0084833,-0.025842,0.0088377,0.0099944
-0.00028383,-0.016484,0.0095427,0.0049156
0.0077686,-0.0057643,0.0065046,0.00097137
0.0075443,-0.0084896,-0.00074336,-0.0004112
0.00781,-0.016877,-0.0026656,0.00069597
0.012118,-0.016327,0.0021681,0.0029526
0.010927,-0.013205,0.0026541,0.0046397
0.0057031,-0.013979,-0.0032056,0.0053721
0.0047323,-0.0093021,-0.0088168,0.0055988
0.010352,0.0033349,-0.006245,0.0047043
0.014521,0.011537,0.0048581,0.0016391
0.01042,0.0065591,0.0169,-0.0032357
0.0056527,-0.0022763,0.020382,-0.0081389
0.0036356,5.3493e-06,0.0090188,-0.010827
0.0028841,0.0066305,-0.0079239,-0.009701
0.008641,-0.0025007,-0.011115,-0.0055396
0.015532,-0.021095,0.0014022,-0.0011653
0.0086326,-0.026681,0.012429,0.0011086
-0.010102,-0.019197,0.015795,0.0006411
-0.029287,-0.0075762,0.017408,-0.0016215
-0.040369,0.0073636,0.01697,-0.0038759
-0.034088,0.020109,0.014324,-0.0052036
-0.017932,0.027344,0.013438,-0.0059228
-0.010485,0.030623,0.013911,-0.0057156
0.0013925,0.028277,0.013555,-0.0033998
0.057484,0.017205,0.015351,0.0013332
0.12621,0.0034458,0.017022,0.0066191
0.12888,-0.014015,0.014607,0.0085696
0.074554,-0.053053,0.016687,0.0051409
0.018681,-0.08499,0.026751,-0.0013533
-0.0063351,-0.057928,0.030172,-0.0081259
0.010348,0.0011949,0.017435,-0.013888
0.037914,0.027537,0.0014979,-0.016099
0.036952,0.0091895,-0.0049394,-0.012326
0.010125,-0.014798,-0.0081164,-0.004419
-0.010692,0.00032244,-0.014681,0.0030751
-0.0072062,0.043042,-0.015931,0.0075366
-0.0004207,0.058638,-0.0035651,0.0084727
-0.0102,0.039199,0.0083551,0.0057071
-0.017826,0.018189,0.005726,0.00053939
-0.0063279,0.0086306,-0.00039173,-0.0042631
0.016449,-0.001763,-0.00025247,-0.0072253
0.029049,-0.022877,-0.00037591,-0.0076682
0.016575,-0.050843,-0.0045645,-0.0035863
-0.004221,-0.080764,-0.0051053,0.0061254
-0.015355,-0.10548,0.0032602,0.018132
-0.016945,-0.11296,0.013962,0.026084
0.0063319,-0.098434,0.017324,0.025621
0.054765,-0.067913,0.010642,0.016869
0.079116,-0.025551,-3.5523e-05,0.003398
0.053556,0.029208,-0.0067167,-0.0096877
0.024615,0.085127,-0.0065504,-0.018848
0.02937,0.10417,-0.0026027,-0.024337
0.047113,0.065937,-0.0003931,-0.027528
0.051829,0.016241,-0.0029284,-0.027822
0.035059,0.0028306,-0.0096549,-0.02422
0.0040782,0.007507,-0.018332,-0.017015
-0.021906,-0.0098785,-0.026072,-0.0073503
-0.033742,-0.039487,-0.029322,0.0029736
-0.040653,-0.049305,-0.028113,0.011911
-0.046283,-0.042464,-0.026134,0.017458
-0.037134,-0.035439,-0.02145,0.01825
-0.015204,-0.030183,-0.010506,0.014962
-0.001216,-0.026293,-3.315e-05,0.0096043
-0.0032361,-0.026935,-0.0021033,0.0039595
-0.013663,-0.029036,-0.013525,-0.00049826
-0.021629,-0.032229,-0.016823,-0.0031502
-0.021915,-0.036713,-0.0084804,-0.0046468
-0.01703,-0.033368,-0.00050911,-0.0062641
-0.01071,-0.024515,0.0021634,-0.008225
-0.006445,-0.012876,-0.0029758,-0.0089614
-0.0073333,0.0065789,-0.016589,-0.0074856
-0.012923,0.020433,-0.028034,-0.0050054
-0.020089,0.014422,-0.02675,-0.0035434
-0.02561,0.0014595,-0.014996,-0.0041083
-0.026556,0.0010795,-0.0053072,-0.005971
-0.022587,0.010717,-0.0031175,-0.0072467
-0.017911,0.019833,-0.0052859,-0.0070487
-0.016009,0.027889,-0.007491,-0.0061755
-0.015738,0.031976,-0.0069492,-0.005345
-0.015403,0.025176,-0.0049979,-0.0045649
-0.016094,0.01225,-0.0036013,-0.0035853
-0.017381,0.0023684,-0.0025404,-0.0019686
-0.017173,-0.0040714,-0.00049933,0.0006106
-0.01602,-0.0070184,0.00010798,0.0038982
-0.015674,-0.0066216,-0.0019377,0.0072881
-0.015983,-0.0080701,-0.0018821,0.0099675
-0.015868,-0.010266,0.00189,0.010929
-0.013154,-0.0072561,0.0052252,0.0098086
-0.0080833,0.00080639,0.0045756,0.007595
-0.0065706,0.0096471,0.0007236,0.0056878
-0.0072037,0.011513,-0.0012316,0.0042878
-0.0051933,0.0049368,0.00059513,0.0024695
-0.0049259,9.6705e-06,0.0016759,0.00010776
-0.0060877,2.5814e-05,0.002408,-0.0019062
-0.0038604,0.0038908,0.0031887,-0.0035259
1.0764e-05,0.010003,0.00093092,-0.0044043
0.0023083,0.0083427,0.00042848,-0.0027496
0.0023318,-0.0023464,0.0042978,0.0017247
0.0018613,-0.010712,0.007715,0.0066219
0.003197,-0.0098305,0.0044383,0.0098314
0.0039206,-0.0091978,-0.0016578,0.010799
0.0022066,-0.022218,0.0021394,0.0095083
0.0038381,-0.039337,0.010928,0.0067326
0.011394,-0.041092,0.010792,0.0040271
0.018233,-0.029513,0.0040247,0.0027943
0.017411,-0.025838,0.0023574,0.0033011
0.01352,-0.042007,0.0099022,0.0041866
0.014742,-0.063771,0.019868,0.003894
0.016523,-0.074087,0.024617,0.0020538
0.01021,-0.073009,0.022834,-0.00050295
-0.01127,-0.056499,0.013209,-0.0022605
-0.039316,-0.024805,0.0010032,-0.0022376
-0.053227,0.017044,-0.00061131,-0.00099259
-0.05528,0.081084,0.0067474,0.00089194
-0.057981,0.12991,0.013958,0.0044818
-0.058204,0.10065,0.018439,0.0095475
-0.044735,0.028506,0.016518,0.013022
-0.018485,-0.017738,0.012973,0.01256
0.023432,-0.038497,0.019518,0.0083533
0.087332,-0.051279,0.02596,0.0022606
0.14162,-0.04866,0.019113,-0.0028218
0.14841,-0.031965,0.012073,-0.0039649
0.10121,-0.016401,0.011483,-0.00061732
0.035787,-0.0001799,0.0070889,0.0042177
0.0066043,0.023412,-0.0023089,0.0066372
0.004678,0.031292,-0.010754,0.0051385
-0.0060927,0.015807,-0.013829,0.0003588
-0.015063,0.012413,-0.0073494,-0.0068123
-0.0078785,0.024234,0.0095438,-0.014738
0.0014295,0.016068,0.02577,-0.02017
-0.011714,-0.010875,0.027254,-0.020008
-0.045492,-0.02569,0.01656,-0.013898
-0.063757,-0.020302,0.0058882,-0.0044946
-0.042979,0.0036064,0.00050715,0.004578
0.0053444,0.041724,-0.0010323,0.0097677
0.050037,0.071763,-0.00018479,0.0085563
0.069556,0.085403,-0.0010232,0.0018382
0.067834,0.087809,-0.0064089,-0.005683
0.057293,0.078101,-0.011182,-0.0089628
0.041002,0.056062,-0.01031,-0.0067872
0.01775,0.025268,-0.0039317,-0.0016332
-0.0039746,0.0058585,0.0018126,0.0032209
-0.013395,0.0107,0.0028904,0.0055682
-0.0074071,0.019537,0.0045413,0.0051053
0.00047878,0.019301,0.0063816,0.0032256
-0.015173,0.024839,0.003105,0.0013252
-0.050331,0.041673,-0.0033138,-0.00061879
-0.079528,0.054125,-0.010126,-0.0029208
-0.082545,0.052156,-0.013366,-0.0051591
-0.049919,0.040371,-0.012563,-0.0066988
-0.0012366,0.023859,-0.014437,-0.0070598
0.037601,0.0011181,-0.015434,-0.0064769
0.049465,-0.020986,-0.0071132,-0.0066227
0.027977,-0.026365,0.0027889,-0.0095268
-0.0045214,-0.014863,0.0021312,-0.014584
-0.012914,-0.0023424,-0.0027194,-0.017664
0.0076255,0.0011584,-0.0012821,-0.015239
0.027584,0.00080725,-0.0036374,-0.0084451
0.025238,0.0085408,-0.016634,-0.00095314
0.0022956,0.022856,-0.02367,0.0051378
-0.025696,0.026806,-0.016769,0.0093096
-0.038884,0.013282,-0.0044609,0.01075
-0.033475,-0.0041819,0.0066457,0.0086787
-0.02792,-0.01074,0.0091553,0.00433
-0.030726,-0.0062375,0.0020953,0.0008872
-0.030878,0.0012635,-0.0053235,0.0005105
-0.025311,0.0010566,-0.01041,0.0024879
-0.022807,-0.0098663,-0.013481,0.0044977
-0.026295,-0.024719,-0.010281,0.0047875
-0.030803,-0.041259,-0.00011954,0.0031789
-0.03222,-0.053609,0.012869,0.00023133
-0.031213,-0.055939,0.0196,-0.0035673
-0.033365,-0.05267,0.013754,-0.0064667
-0.04019,-0.044415,0.0028711,-0.0061246
-0.045058,-0.020107,-0.0061462,-0.0027192
-0.039882,0.019138,-0.012791,0.0018826
-0.015849,0.043898,-0.0086659,0.0059172
0.021335,0.040452,0.007302,0.0078917
0.040875,0.034819,0.018317,0.0073481
0.017385,0.038048,0.011909,0.0048212
-0.035314,0.024971,-0.0042457,0.001281
-0.068015,0.0032901,-0.013088,-0.0014783
-0.049867,0.0012728,-0.012452,-0.00099612
0.012944,0.0002792,-0.0090406,0.0024663
0.080419,-0.014223,-0.0073816,0.004912
0.090449,-0.022977,-0.0077422,0.0038167
0.050141,-0.019577,-0.0043707,0.0010108
0.017089,-0.012402,0.0012806,-0.00080249
0.0072641,-0.0028017,0.0020678,-0.0014415
0.011415,0.0068444,-0.0012206,-0.001947
0.015022,0.011389,-0.0014005,-0.0021803
0.0072541,0.013345,0.0020222,-0.0013308
-0.0043608,0.016692,0.0033397,0.00012172
-0.0088708,0.020242,0.0013634,0.00084204
-0.0078177,0.018272,-0.0008061,0.0011515
-0.0072734,0.010328,0.0003635,0.0026342
-0.0056671,0.0037396,0.0018657,0.005307
-0.0026915,0.0016618,0.0006173,0.0074906
-0.00030764,0.0022769,0.00047928,0.0078555
0.0072284,0.0056358,0.0014085,0.0064152
0.022465,0.011159,0.0016872,0.0041604
0.034221,0.018441,0.0014233,0.0019725
0.029815,0.030155,-0.00089251,3.8978e-06
0.014107,0.040113,-0.0040018,-0.0017179
0.003052,0.037032,-0.0042123,-0.0027513
-1.5901e-05,0.028574,-0.0028247,-0.0023098
-0.0021125,0.030405,-0.0021272,0.00059321
-0.0062671,0.045778,-0.00074033,0.0059684
-0.010312,0.057445,0.00039625,0.010984
-0.0082642,0.046087,-0.0024424,0.011627
0.0010218,0.023145,-0.0062656,0.0076764
0.01033,0.0029404,-0.0053733,0.0030916
0.015232,-0.02131,-0.00279,0.00079841
0.018157,-0.049378,-0.0031527,-0.00019636
0.018361,-0.062885,-0.0022695,-0.0021502
0.0096223,-0.053533,0.004462,-0.0053874
-0.002584,-0.030978,0.011798,-0.0086342
-0.0080517,-0.0071815,0.015193,-0.011191
-0.010853,0.0067481,0.012355,-0.013329
-0.018486,0.012137,0.0028224,-0.014896
-0.026198,0.010616,-0.0011742,-0.015629
-0.025233,-0.0014049,0.0046503,-0.0153
-0.023709,-0.0077985,0.0067642,-0.012509
-0.022665,-0.0072146,0.0049757,-0.0062532
-0.0062834,-0.022645,0.0082169,0.0018188
0.026191,-0.047179,0.0095778,0.0084982
0.065691,-0.060109,-0.0016229,0.012228
0.093528,-0.062623,-0.015023,0.013784
0.09173,-0.051358,-0.010905,0.013327
0.069724,-0.027815,0.0064568,0.010247
0.045758,-0.016914,0.019854,0.0052773
0.026481,-0.020589,0.025402,0.00013976
0.013341,-0.014659,0.024545,-0.0030524
0.0063512,0.0072156,0.019356,-0.00291
0.0040599,0.024791,0.017088,-0.0004585
0.0018377,0.022149,0.017406,0.0012037
-0.0042483,0.023919,0.010457,-0.00038253
-0.016956,0.065698,-0.005649,-0.0045059
-0.036998,0.11635,-0.020706,-0.008223
-0.050215,0.10507,-0.024383,-0.0096494
-0.053438,0.026761,-0.018095,-0.0093583
-0.057136,-0.060549,-0.012562,-0.0084032
-0.054922,-0.11039,-0.012635,-0.0073879
-0.042768,-0.11537,-0.010628,-0.0073782
-0.016047,-0.094606,-0.0010579,-0.009066
0.013223,-0.071362,0.0094685,-0.011376
0.014324,-0.05214,0.012106,-0.012549
0.0069615,-0.03093,0.003489,-0.011326
0.020828,-0.010032,-0.0080913,-0.0064811
0.041831,0.0010863,-0.011315,0.0013211
0.04708,0.0011074,-0.0075987,0.0085597
0.030316,-0.0030643,-0.0036496,0.011711
0.0073424,-0.0056952,-0.0029507,0.0096873
-0.0012366,-0.0031174,-0.0047353,0.0045782
0.0051068,0.007409,-0.0071503,0.00019558
0.012642,0.021571,-0.010089,-0.00055502
0.013765,0.026274,-0.010636,0.0026597
0.009595,0.017438,-0.0084899,0.0075317
0.0024011,0.0052325,-0.0079023,0.011184
-0.0085112,-0.00080234,-0.0078673,0.012658
-0.017329,-0.003247,-0.0058637,0.012312
-0.016093,-0.013389,-0.0024495,0.010046
-0.01259,-0.028353,0.0010534,0.0061516
-0.01528,-0.028859,-0.0018121,0.0024907
-0.019256,-5.538e-05,-0.010702,0.0019294
-0.019294,0.05106,-0.014085,0.0054955
-0.016649,0.077278,-0.01015,0.0099528
-0.015302,0.038173,-0.0068857,0.010864
-0.016406,-0.021828,-0.010284,0.0069566
-0.015857,-0.040067,-0.016995,9.3516e-05
-0.012921,-0.023073,-0.01869,-0.00663
-0.014031,-0.0068998,-0.012093,-0.010255
-0.021655,-0.011175,-0.0025732,-0.0099183
-0.031334,-0.017736,-0.0080012,-0.0077768
-0.032831,0.0047442,-0.03106,-0.0056937
-0.023849,0.0349,-0.045459,-0.0023509
-0.0091169,0.030183,-0.038132,0.0032083
0.014562,0.00094696,-0.018549,0.00819
0.033817,-0.011944,0.00041375,0.0085083
0.030604,-0.0052701,0.010071,0.0035292
0.021642,-0.00089048,0.01451,-0.0028564
0.024733,0.00075521,0.015628,-0.0063991
0.027228,-0.0005162,0.012119,-0.004977
0.021028,-0.01636,0.012032,0.0013589
0.013121,-0.039082,0.014057,0.0098614
0.0040751,-0.039672,0.0096251,0.016522
-0.0048133,-0.012152,-0.002687,0.019068
-0.0016691,0.015279,-0.014844,0.017983
0.016933,0.022338,-0.014353,0.014254
0.032892,0.016009,-0.0062733,0.0077277
0.03455,0.015899,-0.0047039,-0.00084105
0.029452,0.020118,-0.0094859,-0.0084642
0.022769,0.0067786,-0.011733,-0.012995
0.020617,-0.019806,-0.0078042,-0.015545
0.029672,-0.036415,-0.0033858,-0.017585
0.036076,-0.040065,-0.0029855,-0.018066
0.024727,-0.033588,-0.00065753,-0.015872
0.0048984,-0.0068118,0.0041015,-0.012275
-0.01106,0.030736,0.003825,-0.008624
-0.020673,0.056406,0.00068637,-0.0050021
-0.024626,0.067231,0.0006485,-0.0016609
-0.025896,0.065362,0.0037994,0.00086279
-0.016781,0.06037,0.0066284,0.002087
0.0014241,0.057027,0.0059833,0.0019261
0.0032825,0.043794,0.0034652,0.0015549
-0.0122,0.027475,0.0017639,0.002068
-0.021217,0.020702,0.0006714,0.0026909
-0.015824,0.024887,-0.00022653,0.0023485
-0.0033958,0.033381,-0.0015186,0.0015821
0.0082743,0.026499,-0.003088,0.0020643
0.014716,0.0015171,-0.0037365,0.0047765
0.01295,-0.020382,-0.0026581,0.0083582
0.007653,-0.024208,-0.0021623,0.0099443
0.0014838,-0.014051,-0.0054554,0.0081812
-0.0047284,-0.0049162,-0.0073219,0.004373
-0.0024623,-0.0054358,-0.0023752,0.0005738
0.010286,-0.017371,0.003337,-0.0025901
0.020807,-0.035965,0.0043516,-0.0053556
0.010463,-0.045164,0.0032665,-0.0070165
-0.015674,-0.035639,0.0034834,-0.0073634
-0.036089,-0.02024,0.0023559,-0.0074572
-0.044878,-0.015615,0.00025395,-0.006815
-0.045492,-0.018606,0.0017877,-0.0037599
-0.033899,-0.012612,0.0013398,0.001643
-0.0056578,0.015398,-0.006187,0.0065059
0.022413,0.053635,-0.011125,0.0062291
0.027557,0.065549,-0.0029737,-0.0012052
0.014654,0.036909,0.0090454,-0.011844
0.0077061,0.0050001,0.0055126,-0.018528
0.011492,0.0029224,-0.013379,-0.016274
0.011221,0.0033241,-0.025849,-0.0057958
0.0011652,-0.014704,-0.020996,0.0075589
-0.010411,-0.025411,-0.0089766,0.01896
-0.016384,-0.01603,0.0032924,0.025406
-0.019005,0.0064742,0.013284,0.024187
-0.018431,0.022371,0.013094,0.015613
-0.019739,0.0090801,0.0037343,0.0049211
-0.029361,-0.017575,-0.0045681,-0.0026615
-0.036747,-0.033097,-0.0076262,-0.0063646
-0.042822,-0.04242,-0.0067806,-0.0080269
-0.055302,-0.055464,-0.0043136,-0.0093338
-0.060696,-0.067061,-0.0026218,-0.01104
-0.049865,-0.067634,-0.0014548,-0.012699
-0.030752,-0.06076,0.00030575,-0.013237
0.0083573,-0.056685,0.001736,-0.012042
0.079331,-0.053381,0.0030613,-0.0093804
0.12086,-0.04012,0.0036442,-0.0061705
0.086408,-0.0059838,0.0013911,-0.003529
0.032817,0.048177,-0.0016961,-0.0021766
0.0097984,0.085744,-0.003522,-0.0019868
0.0038628,0.073774,-0.0045522,-0.0021421
-0.013749,0.03169,-0.00058959,-0.0021621
-0.045892,-0.0060416,0.0089574,-0.0025029
-0.069816,-0.022888,0.015352,-0.0035094
-0.079624,-0.016617,0.013299,-0.00442
-0.087539,0.0053676,0.0029377,-0.003787
-0.089961,0.026268,-0.0069333,-0.00091249
-0.059523,0.029658,-0.0046126,0.0032532
0.0012623,0.025597,0.0028057,0.0071918
0.044449,0.02809,0.0034687,0.0099946
0.047177,0.022121,0.0043216,0.01047
0.023688,-0.0079469,0.0093174,0.0074927
-0.0023634,-0.041994,0.010756,0.0021727
-0.011212,-0.04712,0.007868,-0.0023343
6.6585e-05,-0.022181,0.0033039,-0.0035187
0.021874,0.0097008,0.00051642,-0.0015771
0.034007,0.027697,-0.00015611,0.0011166
0.029586,0.025134,0.0035563,0.0019843
0.02067,0.019766,0.014551,-6.3187e-06
0.0091479,0.027829,0.020976,-0.0033992
-0.0037834,0.037738,0.016075,-0.0052083
-0.0045455,0.039203,0.0087443,-0.0035977
0.010154,0.037175,0.0079276,0.00068132
0.023967,0.035272,0.010219,0.0052252
0.026511,0.033553,0.0083208,0.0081822
0.013162,0.03241,0.0057156,0.0092296
-0.014997,0.028661,0.0082836,0.0083326
-0.038686,0.023277,0.015513,0.0053451
-0.038739,0.026437,0.017776,0.0012551
-0.011935,0.033696,0.0097889,-0.0015407
0.019965,0.029156,0.0022631,-0.001409
0.0334,0.013911,0.0015235,0.00084544
0.032509,-0.0012521,0.0033426,0.0032147
0.031277,-0.013281,0.0053609,0.0044813
0.03504,-0.025075,0.00699,0.004688
0.039577,-0.039985,0.0069679,0.0043756
0.032631,-0.054849,0.0067987,0.0039844
0.014335,-0.061687,0.0097587,0.0037168
0.002288,-0.052867,0.012652,0.0036633
0.0031302,-0.031178,0.011978,0.0036832
0.0077159,-0.014349,0.0089606,0.0029359
0.012562,-0.010045,0.0052579,0.00084086
0.028685,-0.011512,0.0066216,-0.0014048
0.053609,-0.014427,0.012975,-0.0023346
0.063499,-0.013868,0.013827,-0.00184
0.05138,-0.0048985,0.011436,-0.00073547
0.030566,0.0066473,0.014405,-0.00041194
0.0081616,0.014819,0.0094961,-0.00088792
-0.0066775,0.011667,-0.0048294,7.8264e-05
-0.0018528,-0.0075581,-0.0073417,0.0027691
0.008981,-0.019307,-0.0054375,0.0044125
0.0024004,-0.0091923,-0.015001,0.0043688
-0.016477,-0.0048169,-0.019409,0.004186
-0.026969,-0.022414,-0.0030586,0.0029053
-0.022569,-0.03413,0.016183,-0.001778
-0.0093136,-0.025053,0.019285,-0.0082895
0.0058976,-0.014655,0.014586,-0.012283
0.014307,-0.012284,0.011606,-0.012147
0.0076727,-0.015255,0.008654,-0.0090463
-0.0034224,-0.022753,0.0058497,-0.0044387
-0.0075059,-0.029845,0.0060019,0.0008122
-0.012933,-0.033763,0.0090524,0.0061644
-0.021159,-0.031993,0.0075971,0.01006
-0.025664,-0.021673,-0.0015013,0.010781
-0.027954,-0.015481,-0.0068917,0.0084179
-0.025052,-0.021257,-0.0018557,0.0044382
-0.0072174,-0.02401,0.0048214,0.00029833
0.026158,-0.017287,0.0070149,-0.003366
0.058323,-0.010319,0.0081631,-0.0066547
0.065872,-0.0056747,0.0089744,-0.008751
0.047863,0.0048113,0.0064494,-0.007325
0.021118,0.019794,-0.00055775,-0.001421
0.002464,0.025507,-0.0069011,0.0048806
-0.00035339,0.018714,-0.003458,0.0051582
-0.0030933,0.0074462,0.0055698,-0.00082617
-0.017161,-0.0052216,0.0096884,-0.0068382
-0.031257,-0.02089,0.0099707,-0.0086432
-0.036644,-0.031221,0.010497,-0.0066995
-0.036726,-0.025814,0.0089765,-0.0025502
-0.042155,-0.011637,0.0036117,0.0033635
-0.052643,-0.0022416,-0.000634,0.010063
-0.052622,-0.00031533,-0.0020306,0.013739
-0.041942,-0.0034445,-0.003297,0.010276
-0.027554,-0.01122,-0.00064619,-2.3765e-05
-0.0043442,-0.015886,0.0093771,-0.012647
0.023384,-0.0026604,0.015912,-0.022277
0.037878,0.018112,0.01036,-0.024511
0.035093,0.020666,0.0044126,-0.018281
0.031485,0.010087,0.0062754,-0.0074693
0.033089,-0.0017959,0.0086442,0.0027559
0.030568,-0.023275,0.0089637,0.010082
0.02779,-0.049808,0.011879,0.014347
0.033074,-0.056512,0.017059,0.015444
0.037004,-0.039187,0.019711,0.014077
0.029213,-0.0226,0.018708,0.011584
0.018452,-0.01612,0.01234,0.0075569
0.010388,-0.017738,0.0017251,0.0011902
0.0019603,-0.034627,-0.00019528,-0.0058908
-0.0034986,-0.050168,0.0088736,-0.011127
-0.010373,-0.046942,0.013843,-0.013712
-0.021002,-0.030734,0.0042406,-0.014192
-0.027058,-0.0093739,-0.012945,-0.012573
-0.02982,0.023551,-0.022092,-0.0088284
-0.035855,0.10022,-0.019464,-0.004492
-0.042457,0.17297,-0.012685,-0.0015802
-0.04571,0.1329,-0.0073614,-0.00042904
-0.043199,0.0019419,-0.0016389,0.00021548
-0.033778,-0.097141,0.0039584,0.0014249
-0.023954,-0.10943,0.0042982,0.0030987
-0.018642,-0.081733,0.0020453,0.0046626
-0.020024,-0.054187,0.0012359,0.0051587
-0.030851,-0.01849,0.0024992,0.0033873
-0.044929,0.019224,0.0050711,0.00015577
-0.051174,0.045285,0.0034642,-0.0018273
-0.030812,0.057791,-0.002075,-0.0011124
0.026788,0.050257,-0.0041075,0.0015934
0.080394,0.024656,-0.00070352,0.0046056
0.088685,-0.00077597,0.0032505,0.006196
0.064535,-0.0097763,0.0013803,0.005857
0.034945,-0.0093485,-0.0032933,0.0044589
0.014334,-0.0015817,-0.007935,0.0027343
0.0019442,0.030438,-0.018671,0.0011512
-0.0073976,0.062556,-0.023554,0.00058387
-0.01977,0.067227,-0.011355,0.00063039
-0.039881,0.068403,-9.3113e-05,-3.6216e-05
-0.049969,0.075286,-1.445e-05,-0.00085737
-0.036037,0.078033,-0.00050847,-0.00062662
-0.020066,0.085803,0.00098284,0.00063511
-0.02038,0.094015,-0.0036572,0.0023714
-0.024026,0.080556,-0.011595,0.0041319
-0.021192,0.051066,-0.011915,0.0057206
-0.019709,0.026977,-0.0075954,0.0065682
-0.020552,0.0090846,-0.0064591,0.0056844
-0.01779,-0.011324,-0.0073884,0.0031373
-0.011374,-0.033278,-0.0091868,0.00038506
-0.0018551,-0.046749,-0.012742,-0.0011869
0.010913,-0.048892,-0.014502,-0.0010822
0.023001,-0.043739,-0.011106,0.00058404
0.030498,-0.029062,-0.0070545,0.0029237
0.033516,-0.0091776,-0.0042836,0.0041417
0.031322,0.0079722,-0.00010742,0.0029657
0.021775,0.023975,0.0023361,0.00024494
0.0079224,0.035853,-0.00029046,-0.001463
-0.00039169,0.039505,-0.0038474,0.00029988
-0.0035195,0.037273,-0.0029486,0.0057038
-0.014353,0.032047,-0.00011344,0.011393
-0.034572,0.02637,-0.0017118,0.013101
-0.048683,0.019359,-0.0078321,0.0098536
-0.044616,0.012645,-0.011665,0.0040595
-0.031233,0.011296,-0.010156,-0.0017331
-0.021763,0.014783,-0.0075307,-0.0065387
-0.015674,0.021607,-0.006537,-0.01006
-0.0034966,0.023467,-0.0057616,-0.012041
0.019928,0.008055,-0.0041499,-0.012771
0.039314,-0.016961,-0.0028458,-0.012752
0.037884,-0.034465,-0.0017101,-0.011585
0.023222,-0.040473,-2.6851e-05,-0.0086471
0.0097018,-0.041969,0.0028648,-0.0047022
0.0057743,-0.038257,0.003648,-0.0009164
0.010676,-0.029664,-0.0011041,0.0032052
0.0094165,-0.035563,-0.0036638,0.0081056
-0.0053335,-0.055079,0.0017832,0.011548
-0.02126,-0.055608,0.00596,0.011274
-0.027387,-0.02293,-0.0049143,0.0086572
-0.026977,0.013493,-0.024577,0.0068866
-0.023515,0.015524,-0.026866,0.006261
-0.015614,-0.0080081,-0.005758,0.0033918
-0.019228,-0.013315,0.0094759,-0.003003
-0.047512,0.0058697,0.0053438,-0.0091184
-0.077129,0.016604,0.0017736,-0.011985
-0.089774,0.016207,0.00099945,-0.012859
-0.087492,0.017067,-0.004238,-0.012942
-0.068111,0.010455,-0.004335,-0.011464
-0.018196,0.0024112,-0.00054879,-0.0080909
0.07054,0.0052565,0.00058701,-0.0030969
0.13217,0.0084327,0.0026749,0.003104
0.10072,0.0040837,0.0047499,0.0085544
0.032416,0.0022669,0.0033954,0.011018
0.0034287,0.0098941,0.0013696,0.010651
0.02065,0.019216,0.001096,0.0085232
0.044967,0.01911,0.0021553,0.0047763
0.034465,0.010755,0.004583,-0.00022631
-0.00039335,0.0056215,0.0070249,-0.0055736
-0.02133,0.008603,0.008291,-0.010567
-0.022483,0.014909,0.0088644,-0.014669
-0.017587,0.019366,0.011379,-0.017444
-0.0044321,0.022302,0.016146,-0.018378
0.015273,0.027977,0.01993,-0.016808
0.02015,0.034321,0.018648,-0.01246
0.0054026,0.034103,0.009749,-0.0057166
-0.010079,0.023084,-0.0010323,0.002677
-0.016876,-0.0020583,-0.0063736,0.011738
-0.015779,-0.028449,-0.006883,0.020021
-0.020004,-0.037585,-0.0075572,0.025686
-0.031567,-0.03821,-0.0090574,0.02702
-0.022128,-0.042555,-0.0081427,0.023968
0.019908,-0.046709,-0.0064066,0.018664
0.087772,-0.050348,-0.003945,0.013393
0.13881,-0.050871,0.0042508,0.0087667
0.11906,-0.040027,0.015848,0.0032176
0.062251,-0.030005,0.023462,-0.0050271
0.032284,-0.033361,0.023485,-0.014417
0.035604,-0.033293,0.016014,-0.02124
0.047276,-0.01712,0.0049772,-0.024524
0.044609,0.0050373,-0.0036863,-0.026864
0.029915,0.030859,-0.0047265,-0.030011
0.0084596,0.0492,0.0027125,-0.031008
-0.026357,0.032457,0.0086984,-0.024768
-0.058903,-0.005044,0.0076867,-0.010842
-0.073478,-0.032597,0.0087042,0.0053809
-0.075766,-0.047295,0.011528,0.01797
-0.073126,-0.052823,0.0051931,0.023769
-0.064108,-0.046736,-0.0081943,0.022922
-0.041645,-0.018054,-0.014131,0.018818
-0.013159,0.029041,-0.010599,0.015232
0.0073539,0.065141,-0.0072319,0.013444
0.022111,0.067626,-0.0055151,0.012139
0.036818,0.034415,-0.0041638,0.0095485
0.042418,-0.017648,-0.0024001,0.0059905
0.034496,-0.059505,0.0004948,0.0025719
0.025188,-0.073649,0.0005092,-0.00059987
0.021173,-0.064586,-0.0021782,-0.0033536
0.017939,-0.04452,-0.0028469,-0.0056735
0.0055083,-0.018471,-0.0039006,-0.0081549
-0.01755,0.0074572,-0.0065732,-0.010308
-0.035073,0.017418,-0.0027734,-0.010901
-0.037523,0.005887,0.0083754,-0.01073
-0.032863,-0.011071,0.014568,-0.011434
-0.025223,-0.020312,0.011083,-0.011532
-0.016068,-0.022746,0.0068208,-0.0079863
-0.012779,-0.018404,0.0053171,-0.0010477
-0.018308,-0.0067813,0.00066772,0.005903
-0.028225,0.011191,-0.0050046,0.010134
-0.032675,0.033205,-0.0040838,0.01125
-0.029655,0.045425,-0.0012048,0.010245
-0.029248,0.041584,-0.0065819,0.0083794
-0.035219,0.036046,-0.01956,0.0066491
-0.035507,0.028302,-0.019169,0.0049075
-0.019973,0.006544,0.0058881,0.0023816
-0.0053282,-0.01628,0.024947,-0.00010089
-0.0072392,-0.019502,0.013851,-0.00010607
-0.014665,-0.0090349,-0.0065044,0.0034786
-0.022018,-0.003428,-0.016291,0.0084081
-0.032067,-0.00884,-0.012686,0.010184
-0.036862,-0.004098,0.0015271,0.0054487
-0.031241,0.027053,0.0083252,-0.0037944
-0.0095789,0.050732,0.0056241,-0.01119
0.031264,0.047518,0.0054804,-0.012449
0.05905,0.041671,0.0049256,-0.008268
0.047669,0.039425,0.0031364,-0.0022745
0.018497,0.02757,0.0037113,0.0020115
-0.017775,0.010095,0.0030532,0.0031752
-0.068539,-0.00098134,-0.0013455,0.0023556
-0.11025,-0.0059819,-0.0038051,0.0015687
-0.12106,-0.0096945,-0.0012367,0.0016131
-0.10677,-0.014236,0.0011175,0.0021541
-0.064538,-0.01835,0.0020363,0.0024909
0.0049249,-0.017339,0.0045558,0.0021309
0.073748,-0.0075944,0.003463,0.0014761
0.09985,0.0059463,-0.0021789,0.001257
0.070059,0.014789,-0.0019805,0.0014512
0.025211,0.016517,0.0032792,0.00082334
0.0011615,0.01432,0.0046329,-0.0019596
0.0031909,0.015486,0.0017203,-0.006655
0.023312,0.019628,0.0012525,-0.011376
0.033119,0.016114,0.0048206,-0.013402
0.013996,0.0053021,0.0049219,-0.011262
-0.0084481,-0.0047589,0.0034491,-0.0057403
-0.004894,-0.010848,0.0059593,0.0019856
0.013124,-0.0045086,0.0055238,0.01072
0.025293,0.013031,0.0026479,0.01786
0.031494,0.023857,0.0060499,0.020073
0.031676,0.02441,0.010769,0.01661
0.022998,0.025176,0.0074698,0.010016
0.014056,0.027331,-0.00059304,0.0028869
0.0040934,0.024333,-0.001782,-0.0035848
-0.016104,0.019417,0.0070245,-0.0089255
-0.02826,0.022327,0.015076,-0.012689
-0.012545,0.030351,0.014949,-0.014362
0.024439,0.029452,0.013253,-0.013717
0.053181,0.016276,0.015827,-0.011505
0.049493,0.011212,0.017882,-0.0096405
0.02742,0.020636,0.015529,-0.0085701
0.0039951,0.026193,0.0048866,-0.0063901
0.0010561,0.02013,-0.0059953,-0.001864
0.030763,0.010468,-0.0056475,0.0046767
0.057312,0.0091581,-0.0071371,0.012297
0.061672,0.011687,-0.015159,0.019
0.05603,0.0085263,-0.0182,0.022202
0.038941,-0.0034255,-0.01233,0.020397
0.01056,-0.030043,0.00077588,0.013251
-0.015039,-0.059553,0.013732,0.0018558
-0.024937,-0.066314,0.019955,-0.010018
-0.014357,-0.05608,0.020284,-0.017361
0.0016565,-0.049965,0.015379,-0.017845
0.0021618,-0.045272,0.0058811,-0.013659
-0.0036244,-0.041183,-0.0016748,-0.0087137
0.001519,-0.037259,-0.0017033,-0.0048239
0.015035,-0.021446,0.0019441,-0.0015757
0.026552,0.0011599,0.0026592,0.0013931
0.027428,0.018881,-0.00073466,0.0032522
0.025876,0.02763,-0.0028058,0.0033224
0.037076,0.02235,0.00072778,0.0020648
0.053534,0.010476,0.0046293,0.00036126
0.055307,0.011411,0.00015109,-0.0012271
0.036974,0.035894,-0.011186,-0.0024845
0.0089328,0.056922,-0.015883,-0.003042
-0.018488,0.03671,-0.010284,-0.0027995
-0.03793,-0.0080626,-0.0035454,-0.0025294
-0.04268,-0.040376,-0.00028356,-0.0029236
-0.039173,-0.06061,-0.00010963,-0.0033463
-0.034845,-0.07075,-0.003528,-0.0027675
-0.028218,-0.055921,-0.011023,-0.0011107
-0.022962,-0.026488,-0.015566,0.0011922
-0.022144,0.0093953,-0.0099902,0.003017
-0.024597,0.063469,-0.0023223,0.0026153
-0.023688,0.095455,-0.0015356,-2.2084e-05
-0.013213,0.05683,-0.0064678,-0.0027126
0.0030806,-0.019482,-0.015173,-0.0035619
0.0088559,-0.079776,-0.024483,-0.0021961
-0.0094945,-0.096965,-0.026537,0.00052676
-0.036666,-0.065596,-0.018436,0.0030293
-0.055065,-0.019839,-0.008354,0.00379
-0.063586,0.0038065,-0.0051803,0.0025136
-0.055816,0.0068814,-0.0052221,0.00063328
-0.0078857,0.0023375,0.00015087,-0.00057864
0.066392,0.00016431,0.0046083,-0.0012575
0.090214,0.011073,-3.3381e-05,-0.0017018
0.050443,0.026122,-0.0047345,-0.0015521
0.011381,0.027394,-0.0015333,-0.00023548
0.00049796,0.018811,0.002495,0.0018811
0.0067188,0.010656,0.0028486,0.0034623
0.012081,0.0086171,0.0001829,0.0037904
0.002715,0.015413,-0.0050264,0.0037614
-0.010391,0.01479,-0.0030604,0.0047153
-0.015581,-0.0027571,0.0083663,0.005958
-0.028856,-0.007284,0.0050406,0.005336
-0.051337,0.017203,-0.024848,0.0037445
-0.05641,0.029,-0.044616,0.0046617
-0.034538,0.0080879,-0.028349,0.0071636
-0.0054285,-0.008298,-0.0046348,0.0066493
0.00748,-0.0015515,0.0024805,0.0024824
0.0066684,0.010366,0.0017642,-0.0011914
-0.0014019,0.010895,0.00062002,-0.001142
-0.017214,0.0023911,-0.0041208,0.0013131
-0.026272,-0.0081456,-0.0071578,0.0028111
-0.021905,-0.021435,-0.00116,0.0017284
-0.016229,-0.029147,0.0057442,-0.0013372
-0.013191,-0.02449,0.005706,-0.0051038
0.0043457,-0.021173,0.0047242,-0.0080219
0.031528,-0.026612,0.0048044,-0.0079595
0.032898,-0.032933,0.0019449,-0.0043783
0.0078211,-0.035909,4.3463e-05,0.000482
-0.00747,-0.037641,-0.0002887,0.0044001
0.0045619,-0.036138,-0.0021708,0.0068223
0.023656,-0.025502,-0.0049731,0.0073683
0.021956,-0.0085851,-0.0076384,0.0056801
0.0051159,0.008016,-0.0085397,0.00285
-0.0018833,0.02355,-0.0085552,0.00029082
-0.0021182,0.036141,-0.0083917,-0.0016364
-0.0074973,0.036765,-0.0076048,-0.0028074
-0.007896,0.022108,-0.0077152,-0.0029052
0.00064314,-0.00017742,-0.0060688,-0.0012325
0.0033691,-0.021987,-0.001354,0.0033258
-0.0058408,-0.037347,0.002101,0.010398
-0.018742,-0.045344,0.0028212,0.016886
-0.028384,-0.051806,0.0042123,0.019383
-0.031626,-0.055795,0.010893,0.016039
-0.028038,-0.051583,0.018061,0.0066954
-0.012568,-0.039922,0.015439,-0.0055934
0.014535,-0.021631,0.0084189,-0.015429
0.032378,-0.0062461,0.0069322,-0.019968
0.032904,-0.0033507,0.0064414,-0.021065
0.031069,-0.0021298,0.0026221,-0.021334
0.027876,-0.0018352,0.0036446,-0.020777
0.016776,-0.0057777,0.01337,-0.019468
0.0031224,0.021689,0.015526,-0.018497
-0.005163,0.087294,0.0037779,-0.016953
-0.0091937,0.11257,-0.0050335,-0.012656
-0.01185,0.062942,-0.002464,-0.0052358
-0.00375,0.0045789,0.0048607,0.0033493
0.01423,-0.026681,0.0058776,0.011665
0.019257,-0.041683,-0.0079331,0.020179
0.0090625,-0.043812,-0.027476,0.028554
0.0081265,-0.05373,-0.030305,0.03406
0.013416,-0.08064,-0.01758,0.032863
7.2508e-05,-0.096517,-0.0085943,0.023532
-0.02567,-0.084286,-0.0013501,0.0094163
-0.03685,-0.052636,0.012448,-0.0041432
-0.032393,-0.0099635,0.022807,-0.014501
-0.027667,0.039994,0.01572,-0.022326
-0.013067,0.083318,-3.3955e-07,-0.026945
0.028451,0.098198,-0.0037866,-0.025224
0.067297,0.081858,0.00019238,-0.017011
0.048412,0.050769,-0.0014546,-0.0066593
-0.013604,0.019997,-0.008372,0.0010745
-0.047363,0.00063259,-0.012901,0.0041632
-0.032904,-0.0033302,-0.010146,0.0033542
-0.004379,0.0012585,-0.004428,0.00027238
0.013745,0.00058078,0.001394,-0.003727
0.019986,-0.0070534,0.0043448,-0.0074439
0.024958,-0.010361,0.00019767,-0.0099712
0.035314,-0.0049993,-0.0051888,-0.010579
0.041085,0.015784,-0.0086748,-0.0087353
0.036499,0.045211,-0.013282,-0.0058014
0.024836,0.046961,-0.017644,-0.0043705
0.011187,0.015488,-0.017705,-0.004645
0.0055852,-0.013762,-0.012412,-0.0043983
0.0030727,-0.025178,-0.0067255,-0.0015249
-0.0066193,-0.027466,-0.003237,0.0042642
-0.015465,-0.026975,-0.00096003,0.01105
-0.016172,-0.024255,-0.00071738,0.016439
-0.014977,-0.0088676,-0.0041363,0.019656
-0.013858,0.010777,-0.0088474,0.020872
-0.0055608,0.015754,-0.0086235,0.019635
0.0076213,0.036074,-0.007371,0.015519
0.013494,0.082083,-0.015652,0.009172
0.011387,0.10224,-0.027935,0.0028507
0.010661,0.075808,-0.026158,-0.0011052
0.0096469,0.034271,-0.01062,-0.0030392
0.0050928,0.0046948,-0.0011962,-0.005152
0.0041981,-0.0088243,-0.0045122,-0.008584
0.0076301,-0.0097827,-0.0071956,-0.012914
0.008261,-0.0029596,-0.0018271,-0.017112
0.0048436,0.0021404,0.0059355,-0.019594
0.0016877,0.0019881,0.011039,-0.018441
-0.00078725,0.0014746,0.0093578,-0.012766
-0.002001,-0.0017299,0.0026955,-0.0042346
0.0032562,-0.0082959,-0.00023154,0.0038507
0.012654,-0.01089,0.002348,0.0094219
0.017634,-0.0064193,0.0044295,0.012103
0.015595,0.0053439,-0.0013375,0.012238
0.011438,0.020523,-0.01111,0.011383
0.011193,0.025663,-0.010962,0.011234
0.012283,0.014392,-0.00084831,0.011357
0.0059859,-0.0029501,0.0059311,0.010096
-0.0054732,-0.0079026,0.0050313,0.0072127
-0.0080608,0.0036932,0.0044019,0.0042044
-0.0014066,0.010557,0.0069061,0.0020392
0.0016104,0.0047481,0.0069633,0.00015773
0.0007907,-0.00033709,0.0031889,-0.002032
0.001842,0.0016988,-0.00068022,-0.0039792
0.0005011,0.0037419,-0.0028353,-0.0045565
-0.0067358,0.0027336,-0.0048363,-0.0039134
-0.011989,0.0032739,-0.0029395,-0.0029516
-0.0092085,-0.0039873,0.0062465,-0.0012544
-0.0042445,-0.014871,0.013697,0.0010048
-0.0028031,-0.0083825,0.0086564,0.0014359
-0.004409,0.010501,-0.0075931,-0.00079325
-0.004172,0.020361,-0.017682,-0.0020519
-0.00087615,0.012962,-0.010061,0.0014712
-9.8019e-05,-0.0016154,0.0020674,0.0076997
0.0017961,-0.0098823,0.0099825,0.01059
0.00988,-0.0095084,0.018637,0.0074077
0.018368,-0.012828,0.022953,0.0010549
0.024074,-0.025598,0.015488,-0.0037397
0.025599,-0.026911,-0.0010601,-0.0050835
0.018165,-0.0088305,-0.018154,-0.0042756
0.0017701,-0.004834,-0.018839,-0.0020643
-0.018468,-0.028665,0.0025142,0.00067489
-0.031299,-0.045865,0.022239,0.00045056
-0.029183,-0.030807,0.022243,-0.0041248
-0.020781,0.0029777,0.01048,-0.0090582
-0.013198,0.020953,-0.00083144,-0.010058
-0.0034679,0.0077453,-0.0045584,-0.0059163
0.0070404,-0.0093268,-0.0018056,0.0026408
0.0016035,-0.0013044,-0.0026739,0.01247
-0.021055,0.015606,-0.0060289,0.018893
-0.033236,0.017878,-0.0044325,0.018889
-0.036171,0.010626,-0.00062232,0.012457
-0.047428,-0.0016948,0.005118,0.0023311
-0.055464,-0.01847,0.011472,-0.0072675
-0.05152,-0.029498,0.011277,-0.012659
-0.054368,-0.027105,0.0058176,-0.012784
-0.075411,-0.017512,0.0012339,-0.0091945
-0.08369,-0.01104,-0.00015895,-0.0043344
-0.033626,-0.0094506,0.0011265,1.46e-05
0.069452,-0.015685,0.0065244,0.0024952
0.13616,-0.028514,0.013301,0.0016223
0.10966,-0.031659,0.0095199,-0.0021268
0.060697,-0.024326,-0.0057253,-0.0052528
0.047276,-0.021772,-0.01702,-0.0043141
0.046034,-0.025422,-0.01596,-9.5379e-05
0.040323,-0.031333,-0.0042536,0.0033773
0.011177,-0.035193,0.012083,0.0040371
-0.047466,-0.029361,0.021261,0.002966
-0.081139,-0.011168,0.018542,0.0017572
-0.070386,0.011433,0.01217,0.0011796
-0.055318,0.027907,0.0093132,0.00085166
-0.052849,0.042611,0.008034,-0.00027203
-0.044336,0.062072,0.0077142,-0.002564
-0.019698,0.072178,0.0097582,-0.0058052
-0.0076158,0.064992,0.0088452,-0.0094973
-0.016034,0.0605,0.0015985,-0.01218
-0.0091724,0.062748,-0.0033592,-0.012295
0.023375,0.051982,-1.7126e-05,-0.0098824
0.057783,0.027945,0.0053089,-0.0057799
0.069557,0.010148,0.0077904,-0.0010276
0.055771,0.0087762,0.0069916,0.0025088
0.037589,0.015289,0.001174,0.0036772
0.030761,0.017852,-0.0085273,0.0035092
0.033363,0.013063,-0.015774,0.0037103
0.032198,0.0048341,-0.016568,0.0044656
0.019894,-0.0053007,-0.012953,0.0046387
0.0071268,-0.021872,-0.0056061,0.0036594
0.0034744,-0.039164,0.0038674,0.0020937
0.0060533,-0.040996,0.0076672,0.00075552
0.0085469,-0.029672,0.0070449,0.0001388
0.0067289,-0.019032,0.0082889,-0.00023128
-0.0074895,-0.0069081,0.0090238,-0.0013825
-0.026598,0.0083967,0.0081042,-0.0031249
-0.027743,0.016436,0.0048281,-0.0041328
-0.015906,0.0097604,-0.0016094,-0.0035705
-0.008197,-0.0063651,-0.00504,-0.0018506
-0.0042469,-0.016057,-0.00086668,-9.4814e-05
-0.0032834,-0.0045613,0.0036373,0.00087083
-0.010245,0.032827,-0.0028313,0.0013152
-0.025034,0.079999,-0.01672,0.0024325
-0.038077,0.099635,-0.022859,0.0045663
-0.043603,0.077355,-0.019133,0.0066112
-0.044196,0.032901,-0.014106,0.0073536
-0.034031,-0.011709,-0.010993,0.0063557
-0.010255,-0.039279,-0.0097156,0.0042919
0.02268,-0.044916,-0.010785,0.0024469
0.056891,-0.031365,-0.014354,0.0017093
0.065861,-0.0070847,-0.013887,0.0019518
0.037088,0.016944,-0.0072661,0.0019458
0.00021376,0.031601,-0.0047701,0.0007311
-0.01859,0.023136,-0.010458,-0.00074409
-0.022349,-0.006919,-0.015879,-0.00080014
-0.019376,-0.038365,-0.012298,0.00051248
-0.015543,-0.058394,-0.0027555,0.0018495
-0.016449,-0.06848,0.0059072,0.0024228
-0.019839,-0.065778,0.0071485,0.0024598
-0.019561,-0.047903,-0.0046203,0.0025904
-0.017522,-0.028303,-0.021194,0.00311
-0.019855,-0.023118,-0.027112,0.0039464
-0.022867,-0.03501,-0.018945,0.0048362
-0.020757,-0.042294,-0.0092914,0.0052082
-0.012764,-0.024723,-0.0076989,0.0042975
0.0024927,-0.0020012,-0.0091318,0.0021032
0.016214,0.0039914,-0.0077296,-0.00042395
0.01826,0.0060997,-0.0071395,-0.0030973
0.017667,0.011769,-0.0078169,-0.0062608
0.025521,0.011499,-0.0048213,-0.0084685
0.034889,0.0068922,-0.0017707,-0.0072922
0.034396,0.0070798,-0.002838,-0.002899
0.023098,0.012805,-0.0041016,0.00099865
0.010452,0.01458,-0.00069473,0.0011158
0.0071308,0.0058517,0.0076285,-0.0021183
0.011558,-0.0014406,0.013917,-0.0060072
0.014701,0.0063644,0.011565,-0.0081078
0.014998,0.0161,0.0018057,-0.0074478
0.015195,0.0060668,-0.0091914,-0.0039961
0.013288,-0.013004,-0.01549,0.0019628
0.011435,-0.019253,-0.013637,0.0081202
0.012586,-0.016234,-0.0070743,0.010327
0.013058,-0.013105,-0.0016342,0.0070594
0.014177,-0.011647,0.0055468,0.0010524
0.018281,-0.012442,0.015825,-0.0043489
0.021081,-0.015576,0.024355,-0.0082033
0.023975,-0.020856,0.027552,-0.010996
0.033066,-0.026144,0.024875,-0.012018
0.040894,-0.030443,0.014998,-0.0087525
0.038935,-0.032295,0.0030343,0.00069449
0.034396,-0.01355,0.0018995,0.01315
0.031727,0.035822,0.0082239,0.02102
0.022582,0.069106,0.0103,0.019891
0.0072954,0.041528,0.011685,0.011554
-0.0036252,-0.015733,0.014498,5.7702e-05
-0.008051,-0.059489,0.013472,-0.010944
-0.0079095,-0.077067,0.0089526,-0.018717
-0.0069968,-0.069224,0.0010413,-0.021405
-0.0029528,-0.054939,-0.0022303,-0.017369
0.0041792,-0.047339,0.0060942,-0.0074937
-0.00092834,-0.03232,0.013384,0.0028729
-0.016438,-0.0018181,0.013736,0.0081996
-0.024745,0.02239,0.012873,0.0069133
-0.01788,0.020241,0.011764,0.00087034
0.0017068,-0.012133,0.011611,-0.0058535
0.020417,-0.057085,0.015387,-0.0091764
0.025654,-0.083123,0.020182,-0.0080298
0.013806,-0.069893,0.019634,-0.0040323
-0.012202,-0.0071882,0.015283,0.00087996
-0.031423,0.068085,0.0062354,0.0054512
-0.030311,0.085923,-0.0068921,0.0089193
-0.024904,0.04571,-0.011259,0.010365
-0.029821,0.0070481,-0.0062592,0.008911
-0.030749,-0.0048432,-0.00090853,0.0052034
-0.0066641,-0.0080472,0.0016281,0.0015248
0.018474,-0.012499,0.002084,-0.00046185
0.01047,-0.010916,0.0035427,-0.00050137
-0.0036148,-0.00234,0.0035056,0.0016485
0.010548,-0.0027783,-0.0033919,0.0056388
0.02189,-0.019635,-0.015582,0.0096157
0.010684,-0.032036,-0.023493,0.011478
0.015103,-0.024782,-0.020861,0.0098349
0.03109,-0.0081798,-0.010544,0.0042815
0.010223,0.0067341,-0.00079101,-0.0043546
-0.031226,0.017913,0.0011262,-0.014056
-0.045346,0.024115,-0.0021091,-0.021732
-0.038814,0.026482,-0.004552,-0.024993
-0.034693,0.027405,-0.0044556,-0.023928
-0.032392,0.024423,-0.0015736,-0.020168
-0.033279,0.01492,0.0013237,-0.015708
-0.042232,0.0099361,-0.0019614,-0.012268
-0.049902,0.020643,-0.011737,-0.0095123
-0.04279,0.033411,-0.019316,-0.0046732
-0.0214,0.03146,-0.019459,0.0035424
-0.0019733,0.017797,-0.014854,0.012698
0.0063802,0.0026045,-0.0081619,0.020151
0.011146,-0.0055236,-0.0042461,0.024673
0.014102,-0.0038097,-0.0083104,0.024729
0.008203,0.0024647,-0.014966,0.019642
-0.0035203,0.0059446,-0.014931,0.011576
-0.011824,0.011158,-0.0067416,0.0038653
-0.012598,0.03455,-0.00026178,-0.0016903
-0.0066275,0.072386,-0.0053421,-0.0048715
0.0044758,0.087557,-0.012707,-0.0060986
0.017066,0.063201,-0.010075,-0.0065967
0.022887,0.025368,-0.0022711,-0.0078791
0.018854,-0.0055547,0.0034282,-0.010335
0.0070162,-0.026917,0.0076485,-0.013235
-0.013446,-0.037311,0.0089475,-0.015315
-0.03469,-0.031332,0.0031056,-0.01465
-0.039306,-0.0059741,-0.0061646,-0.0096003
-0.025052,0.019779,-0.0097646,-0.0010002
-0.0047678,0.024492,-0.0049792,0.0071759
0.0092563,0.018486,0.00021978,0.011359
0.0069649,0.015333,0.0014056,0.011708
-0.0077284,0.012768,0.001571,0.010147
-0.014755,0.013456,0.0019405,0.0077604
-0.0088448,0.015224,0.0052628,0.0044917
-0.0022872,0.015226,0.0097903,0.00037833
0.0037569,0.020538,0.0092668,-0.002836
0.013329,0.027242,0.0064753,-0.0028234
0.019821,0.025215,0.0051428,0.00024687
0.016645,0.014681,0.0037232,0.0036996
0.0047183,0.0059479,0.0021545,0.0056691
-0.0072969,0.0039728,0.0005209,0.0064389
-0.008547,0.004317,0.0018719,0.0068503
-0.0022808,0.0092022,0.0049506,0.0069702
-0.00014593,0.015464,0.0031954,0.0064274
-0.0018861,0.011005,0.0012175,0.0051872
-0.00091459,0.001035,0.0044679,0.0037038
0.0022053,-0.0022455,0.010596,0.002551
0.0013155,0.0010707,0.014747,0.0017094
-0.0075992,0.0069122,0.012102,0.00079515
-0.014208,0.012574,0.005629,0.00014163
-0.00912,0.010923,0.0031089,0.00049495
-0.0061387,-0.0020391,0.0039996,0.0017054
-0.0097879,-0.010765,0.0051196,0.0024183
-0.0015933,-0.004767,0.0073093,0.0017195
0.01889,-0.00028946,0.006573,0.0010277
0.03143,-0.010216,0.00554,0.0024734
0.025456,-0.022383,0.0109,0.0055732
0.015093,-0.02725,0.015816,0.0084513
0.018365,-0.030976,0.012342,0.010595
0.019635,-0.026236,0.001732,0.011674
0.0035424,-0.011473,-0.006383,0.01141
-0.0096739,0.00060625,-0.0052625,0.010213
-0.0091585,0.016706,0.0010138,0.0076091
-0.0093644,0.033089,0.0074432,0.0026792
-0.0084764,0.040625,0.0087358,-0.004476
0.00092767,0.043137,0.0082334,-0.012716
0.0035578,0.038592,0.013769,-0.020198
-0.012289,0.03599,0.015145,-0.025105
-0.039308,0.033738,0.010622,-0.026354
-0.054636,0.021355,0.014095,-0.023358
-0.034814,0.014014,0.018694,-0.015892
0.023999,0.016304,0.012861,-0.0052661
0.075081,0.0078876,0.002998,0.0056153
0.06056,-0.018173,-0.0050471,0.014548
0.014947,-0.052013,-0.0081107,0.021124
-0.00020106,-0.077791,0.00058993,0.024771
0.0054004,-0.077322,0.012146,0.023257
0.0062088,-0.052454,0.010548,0.015609
-0.00012667,-0.021151,0.0024304,0.0053452
-0.013983,0.01085,0.00014953,-0.0026294
-0.034111,0.042577,-0.00040934,-0.0065569
-0.043714,0.052658,-0.0028785,-0.0073139
-0.028459,0.03021,-0.0021643,-0.0066576
0.0016681,0.0060137,-5.4814e-05,-0.0065741
0.027539,0.0026029,0.00040092,-0.007736
0.03572,0.0070436,0.0042606,-0.0097212
0.02802,0.005107,0.0083147,-0.012356
0.018461,0.0010178,0.0034305,-0.015019
0.016525,0.0041429,-0.0049959,-0.016278
0.014425,0.006831,-0.0044651,-0.014702
0.0017552,-0.0014096,0.0020548,-0.010911
-0.0075759,-0.011332,0.0029178,-0.0074296
-0.00067776,-0.016813,-0.0015769,-0.0051449
0.012804,-0.022983,-0.0035271,-0.0027997
0.021387,-0.024933,0.00054831,0.00021412
0.020894,-0.022727,0.0071531,0.0030088
0.013624,-0.020382,0.0086624,0.0048519
0.0016467,-0.0074894,0.0010601,0.0061244
-0.013664,0.01148,-0.0076075,0.0072379
-0.027621,0.015803,-0.0092339,0.0076378
-0.036308,0.0054355,-0.008301,0.006689
-0.033603,-0.0016067,-0.0089731,0.0043479
-0.018132,0.0056906,-0.0082134,0.001181
0.00033538,0.024876,-0.0042393,-0.0013631
0.013344,0.040903,-0.00094421,-0.0019452
0.018734,0.035874,-0.0017681,-0.0005304
0.016721,0.016811,-0.0062696,0.0018126
0.012853,0.0027166,-0.0099439,0.003965
0.012185,-0.0074043,-0.0079691,0.0051843
0.012288,-0.016471,-0.0031119,0.0044035
0.0095131,-0.020251,0.00057446,0.0013593
0.00508,-0.019519,0.0031776,-0.0021253
0.004471,-0.017758,0.0050842,-0.0037444
0.0069338,-0.015859,0.0061994,-0.0025127
0.0053338,-0.010576,0.005334,0.00068662
0.0016866,-0.0046374,0.0036233,0.0042072
0.001825,-0.0051865,0.0057292,0.0065628
-2.3406e-05,-0.0078933,0.0076289,0.0062702
-0.0083296,-0.0011726,-0.002052,0.0031876
-0.012056,0.015496,-0.014968,-0.00054285
-0.0070795,0.026679,-0.013455,-0.0026709
-0.0062083,0.0221,-0.0054659,-0.0028656
-0.013201,0.010795,-0.0017137,-0.0018431
-0.017586,0.0038237,0.0021097,-0.0003503
-0.010769,0.0020489,0.0073625,0.00099717
0.0014914,0.0017974,0.010627,0.0018817
0.0069478,0.00011596,0.010357,0.0021274
0.0070528,0.0010348,0.0092577,0.0014802
0.0069441,0.012822,0.0057619,0.00070297
0.0043259,0.022586,-0.0012213,0.0016023
0.0047248,0.01286,-0.0032656,0.0041265
0.0097726,0.0020278,-0.0015955,0.0062322
0.0063461,0.0040541,-0.003115,0.0065732
-0.0054169,-0.00041134,-0.0010244,0.005446
-0.017266,-0.014414,0.0076671,0.003372
-0.029825,-0.018047,0.014368,0.00046247
-0.037433,-0.0064847,0.013619,-0.0019298
-0.033146,0.0048514,0.0090269,-0.0023018
-0.02088,0.00012942,0.0073372,-0.0015936
-0.0097011,-0.010973,0.0072007,-0.0021368
0.0031313,-0.0017359,0.0045453,-0.004929
