-0.0115097354620149,-0.0170822549799107,-0.0104650139568531,-0.000639751885986966
-0.0020190854582458,-0.0255004602650722,-0.00736734878532364,-0.000696763933390731
0.00128180288436085,-0.0338320788430872,-0.00620178333417214,-0.000237791465432971
-0.00387430009387428,-0.0372007377148658,-0.0117590930761113,-0.000145261910129353
-0.0118310401163135,-0.0364468186852039,-0.0182958135107885,-0.00061284678360882
-0.0206571069415421,-0.0275833628720105,-0.0201739184553137,-0.00100175030130499
-0.0329320093879743,-0.00659797378059813,-0.0206855998306026,-0.00079142187037721
-0.0443010115821916,0.0161334312391325,-0.0210929243797281,-0.000260709178998501
-0.0370138964226218,0.0234630233894265,-0.0209146211180833,0.000112864012982191
-0.0131636101956579,0.0165673946176581,-0.0159017772108257,-2.8304066542995e-05
0.00429930144708332,0.0226341221243324,-0.000634028334100107,-0.000775582008939182
0.00614590562764697,0.0433522555774691,0.0195874828150303,-0.00155617338139978
-0.000623884391384924,0.0482674000708214,0.0334215688556254,-0.00135539443123462
-0.00657283662012519,0.0356970672972348,0.0332418831442105,0.000395426825377297
-0.00625376677105422,0.0218670159390256,0.0233666678683212,0.00284796505991405
-0.000255514894475926,0.00818714426191558,0.0149852854330507,0.00444365501197785
0.00757257858191768,-0.0023366747826423,0.0092741603102821,0.00460837808102323
0.011142972025988,-0.00733071096200436,0.00308563712744958,0.0035087788453216
0.00614497530168512,-0.0112805544263756,-0.00222882684928957,0.00157348944178002
-5.73673160810407e-06,-0.0155193704866773,-0.00537168857583344,-0.000295633328352852
-0.000347737895629426,-0.0189630685068414,-0.00746426086280994,-0.00156523499069753
0.000743603429670424,-0.0193713111871987,-0.00934821842513055,-0.00213736445804912
4.56651127850958e-05,-0.0140701806403531,-0.0117926287501381,-0.00206388668409882
-0.00256907440339188,-0.00486553007999211,-0.0136824651147521,-0.00174341766179655
-0.00671226361271335,0.00346651583454327,-0.0115629551123835,-0.00124184042251361
-0.00964120208938057,0.00927975211250093,-0.00623897308962592,-0.000471037049973442
-0.00974433117572011,0.0167000420181528,0.00125305236470378,0.000434492498505585
-0.00963703592100903,0.027151247780772,0.0105191015777519,0.00125903061323725
-0.0100060664882493,0.0358213455590574,0.0201618597513447,0.00178035115807408
-0.00788476655320565,0.039897421047286,0.0286353677162001,0.00208110867299494
-0.00384875684424685,0.0385117935440733,0.0326556589775462,0.00215937938548584
-0.000463007683446508,0.0317501611521121,0.030978411456292,0.00180647875475492
0.000743753539286086,0.0230529689321648,0.0260504915626888,0.00110816151946907
-0.00195683064071367,0.019738239847465,0.0196667527798952,0.000417712434581056
-0.00715460638294046,0.0242820294783996,0.0138668650275347,-1.60499713768897e-05
-0.00966451904626107,0.0292833615711228,0.00971998931889132,-0.000282077780405252
-0.00910802542616769,0.0289513159239428,0.00660869230012353,-0.000448885840828562
-0.00890603767467741,0.0251844444432824,0.00484463164677901,-0.000442384387978933
-0.0101771196405005,0.0227183367524896,0.00673668881252169,-0.000612662856553845
-0.0107553650906375,0.0247678011342951,0.0129151003207992,-0.00111083129887054
-0.0102800056020778,0.0314284217362325,0.017656764012746,-0.00125489497923545
-0.0108672478713784,0.0398839871000042,0.0162656185842442,-0.000747016888658248
-0.0114899077473526,0.0452210509213328,0.0105958422812466,2.99121997643728e-05
-0.00759263547920783,0.0413327580972103,0.00244440277987456,0.00055773437477447
0.00128199474291862,0.025730060016021,-0.00472789271635111,0.000432801863592565
0.00923872846980827,0.00349679481486022,-0.00472866598885087,1.08930885168677e-05
0.014585878059835,-0.0184848621676139,0.00143386980356188,-4.85538621461406e-06
0.0199782870183952,-0.0296997278981136,0.006936341322541,0.000361203892329091
0.0264561569996727,-0.0242048216588022,0.00847486293040564,0.000526668031200002
0.0293005574520669,-0.00661586495454991,0.00713690879589877,0.000274795167790531
0.0224253580588299,0.015257856767441,0.00262676030456684,-0.000478170817856848
0.0064012153347424,0.0279748949912855,0.000283854114140094,-0.00184856729460533
-0.0105583673185777,0.0249299648855747,0.00624752247052098,-0.00313229030505621
-0.0185160977853603,0.0190105775493183,0.0146787185932071,-0.00324610964797543
-0.0165609121699142,0.0258735823416527,0.0169044209032004,-0.00200258028722999
-0.00894898728036431,0.0351813104761224,0.0131716397555356,-0.000481026886720253
0.00184069392540751,0.0269836059594361,0.0101000119792757,0.000132425086283817
0.01288024313436,0.00523376413436884,0.0104563152876324,0.000212553061460568
0.0181238995715012,-0.0135152827865499,0.0087984025458973,0.000617481465288034
0.0127097442162374,-0.0193658199599508,0.00358953692447568,0.00101199641660944
0.00339169010642656,-0.0141973207380994,-0.000216261201406141,0.00102478803196846
-0.00152177046261756,-0.00872011025300616,-0.00369549802507837,0.000856132232015841
-0.00230875762453531,-0.00760902134137537,-0.00917086760714508,0.000525864906730553
-0.000101304346991897,-0.010811836974973,-0.0130408332403039,-3.70622450444331e-05
0.00488078423878234,-0.0196628072176522,-0.0128241432934834,-0.000621774400943397
0.0106350849412112,-0.0239861593581983,-0.0105453791597314,-0.000793407052316174
0.0140630627897247,-0.0163031989889947,-0.00774098570233948,-0.000484046462869295
0.0148763811564837,-0.0078240730434812,-0.00688287973665122,-0.000175416785114082
0.0145722430081381,-0.00624560436917524,-0.00604170916722046,-0.000301501965281647
0.0140161318281257,-0.00791585612509535,-0.00315526454789377,-0.000721890636105166
0.0132256962659517,-0.00906135056346169,-0.00136675518780705,-0.000822255898031111
0.0126910589641315,-0.00808361683169716,0.00015493458969472,-0.000423399015238859
0.0130218835577828,-0.00425768128784169,0.00179865594542812,-0.000118164209205685
0.0125116966610804,0.00141135774377078,0.00232126820651664,-0.000262062423586328
0.0111775916213484,0.00509162193829487,0.00337058563576921,-0.00053178352883966
0.0108074012063993,0.00610116480401351,0.00446726908351734,-0.000599328896480756
0.00870859832599748,0.00613158671905651,0.00648034952869283,-0.000461982366790627
0.00618159105442093,0.00601621757436799,0.0134133867714447,-0.000128088357008636
0.00592755669055127,0.00771090004957022,0.0210225818084123,0.000359901121546318
0.00450302472336431,0.0101625278310161,0.0211273461431984,0.000805266619809463
0.00227980590815353,0.00990128718036673,0.0160209413593533,0.0011335644781841
0.00160997485489303,0.00548003637104593,0.0117103480308761,0.0013942854959505
0.00340467893647742,-0.0078013179270423,0.00721356180150624,0.00169708668317728
0.00553222320840168,-0.026423292469763,0.000830371844901071,0.00186980751742122
0.00230203283286448,-0.0333658408458901,-0.00514354289546957,0.00151235340365888
-0.00511556726579262,-0.0247901079326588,-0.00792842621154411,0.00074683486615219
-0.00801853638016443,-0.0139865190688094,-0.00890202643269905,4.65441444742649e-05
-0.00320480794520423,-0.0109379638755446,-0.00880904053627832,-0.000438029514609639
0.00492344610930117,-0.0121900648192788,-0.00773019988619834,-0.000730116635109939
0.0111845439553808,-0.0118332418935792,-0.00457668813746205,-0.00072810203494432
0.0131523015922701,-0.0104768530227759,-0.00156345539875017,-0.000569811480484522
0.0116363432494256,-0.00914775182424588,-0.00490798758879859,-0.000556087934847698
0.00832371038272042,-0.00865135536106156,-0.0105584044668944,-0.000817888055222172
0.00414639432528096,-0.0103035858559809,-0.0120845758182979,-0.00126844596563416
0.0019193960273076,-0.0127466927516101,-0.0104696497067953,-0.00161027330794105
0.0016845471227125,-0.011456967153104,-0.00771956749102673,-0.00162965699843341
-0.000573985942931385,-0.00283794576945495,-0.00630058001897111,-0.00135178679496767
-0.00380206887037048,0.00528528585516747,-0.00739840721233439,-0.000955837111223844
-0.0060240494938485,0.00389471424130039,-0.00644080322904962,-0.00047328392475217
-0.0083276926205158,-0.000264479025636621,-0.00253950647047726,0.000180887373586706
-0.0101008576651335,-0.00160952185689533,0.000249111563228748,0.00106021847895182
-0.00775340821183623,-0.00497998963279881,0.00512516757380134,0.00227576249888064
-0.00167752288149453,-0.00965589508197787,0.0117474923166464,0.00376342764513641
0.00325157886116823,-0.0100540549033594,0.0111810402628996,0.00480766808967522
0.00478790770138134,-0.00751015418741937,0.00512043857020163,0.00435245175952704
0.00316605547430454,-0.00629689797319924,-0.00106349413428061,0.0023733165460858
0.00147747463739215,-0.00493144189342107,-0.00635371819760508,7.77520501442294e-05
0.000464332056896463,-0.00269404376164298,-0.00904598583281346,-0.00167804778785462
-0.00197161344310533,-0.000991224674356442,-0.00780738752684114,-0.00305469666237766
-0.006127083935094,0.00123167456577377,-0.00571333154305481,-0.00400563912352663
-0.0119587646613564,0.00184538358777619,-0.00590138162191288,-0.00410430217378069
-0.0168270033190991,0.000583485061707675,-0.00716015588711644,-0.00352415543074651
-0.0172892747823201,-0.000616761004994763,-0.0111729495183028,-0.00280803340460427
-0.0148770383438482,-0.00245067551979001,-0.0156656667976292,-0.00215447725158807
-0.013060484281755,-0.00595866942023386,-0.0157538369839735,-0.00141306901102723
-0.0120921774222615,-0.00859009228466488,-0.0161307170542442,-0.000499084087636325
-0.0113873619967097,-0.00946536952887364,-0.0186166487731038,0.000443463177441076
-0.00893294894061222,-0.0143569514329608,-0.0165941971945535,0.001141603056316
-0.000715019142924565,-0.0209128271436129,-0.00630355343975218,0.00157296986058877
0.0131719239302639,-0.0221371225416965,0.00588037137198776,0.00207733671480265
0.0216203864424679,-0.0194314204525415,0.0102903393817746,0.00266044731205331
0.0187069139697599,-0.0129604031066448,0.010370450039706,0.00277657594746806
0.0120049732700938,0.000182780055312526,0.00936550539843929,0.00202065716424941
0.00646142211141016,0.0119382353403962,0.00277888510852321,0.000724511676097673
0.00421332268824349,0.011572197180978,-0.00410136222289218,-0.000352862863445057
0.00660338690024568,0.0043551721390465,-0.00580349024185801,-0.000778993602955938
0.0135172309490924,0.000647342706479997,-0.00671458531587002,-0.000772687175008603
0.0196814179445689,-0.00130251733642982,-0.00708771989868272,-0.000978017615635485
0.0201784370181925,-0.00604243166070522,-0.00470577338823003,-0.00150736985568574
0.0188586934844355,-0.011415691435987,0.000134865730538119,-0.00180313332504159
0.0175527751259045,-0.0151087846426886,0.00497081578642394,-0.00139304961645855
0.013299453462371,-0.0160677814024492,0.00657098016701488,-0.000242694889115854
0.007619208018721,-0.0142568034777979,0.00657335090505791,0.000855417769114833
0.00244282888228357,-0.0128665737465935,0.00557703953862412,0.00122214316971642
-0.00519090306857979,-0.011708401597145,0.00260693889651839,0.00109146421237965
-0.0164282884942939,-0.00867135018800095,-0.000887825311860191,0.000664750047722282
-0.0279582040291265,-0.00181813947994726,-0.00410870953099853,5.57762491995267e-05
-0.0353280547584535,0.00842464690294612,-0.00580713468273683,-0.000314248731182699
-0.0373304473840318,0.0125950228610307,-0.00504967485549622,-8.6364155894331e-05
-0.0367354448488896,0.00597150536339852,-0.0045306337123446,0.000489237988227924
-0.034627978561799,-0.00305364577388329,-0.00427108477145338,0.000710146539315618
-0.0261030664789701,-0.00670876445611875,-0.00279126224283416,0.000413660634351937
-0.011772765646242,-0.00761572661824066,-0.00259864157620477,0.000123968000013608
-0.000321654516037426,-0.00869246475211446,-0.00349733659417902,4.20843298600437e-05
0.00572744471509055,-0.00869553688256235,-0.00344878081039871,5.79229991634176e-05
0.0095163488495449,-0.00917746115152872,-0.00245585297447675,0.000365557498682863
0.0125931359640044,-0.0133003574291956,-0.00092419038516583,0.000928517273838371
0.0141719282607565,-0.0190003200131195,-4.4494088825551e-05,0.00134009082154172
0.0121023151506332,-0.0194099070084374,-0.000325280002872673,0.00137863073926629
0.00620992859703893,-0.0153634902792695,-0.00212036338687642,0.00100764705929502
6.93047007031492e-05,-0.0142733504130032,-0.00473901101935124,0.000341544461024324
-0.00582499705946102,-0.0154568123114635,-0.00655271799367357,-0.000386093141657654
-0.0131831084139117,-0.013249629473879,-0.00760754831715597,-0.00100705562690109
-0.0179376928577449,-0.00713368040880432,-0.00698152638050578,-0.00140741708014246
-0.018729687790797,-0.00106908368973937,-0.00670210979803542,-0.00149037269819084
-0.0193241404113079,0.00303551601015126,-0.00698611936860167,-0.00125485002487884
-0.0211329401189482,0.00641558665429953,-0.00417061719701565,-0.000865349943869197
-0.0232715949654254,0.00824657205770973,-0.00200777381426973,-0.000281261706418393
-0.0226022214039516,0.0091778682857794,-0.00255847960466258,0.000315132383736053
-0.0183473879445712,0.0115580013871007,-0.000460876998050389,0.000497618558003165
-0.0134755323190535,0.0137622695137298,0.00308907825406323,0.000606325447900185
-0.0113761915006127,0.0126540973045215,0.00162252330380549,0.0010563085221604
-0.012609589334028,0.00746447070421577,-0.00378170926581859,0.00158414290140526
-0.0154324101980656,-0.000261867160432163,-0.00873971373336463,0.00178526461396355
-0.015833784870658,-0.00768656274804175,-0.0109613494205765,0.00151078402184789
-0.012583927077055,-0.0116196786974776,-0.0102996403186059,0.000997623308320186
-0.0107686829323611,-0.0109344755123398,-0.0101843016919441,0.000575115579384864
-0.0135392983490905,-0.00945675600254986,-0.0116240760726265,0.000208699821913503
-0.0171532284881829,-0.00898745359579486,-0.0137875965588422,-0.000237176233034021
-0.0142617743762123,-0.00743218583968771,-0.0140890949980039,-0.000988773376856158
-0.00607787381415965,-0.00525312481770377,-0.00992634580943782,-0.00197308265702866
7.48290584363643e-05,-0.00312485729085962,-0.00658860997051387,-0.0027029783093543
0.00164803797615337,-0.00270209595718519,-0.00757478637938391,-0.00306678736811926
-0.00214071510532762,-0.00416082250640159,-0.00983827261199834,-0.00288430578991705
-0.00951446969989496,-0.00212565475180418,-0.0111509192305756,-0.00187526113671362
-0.0147207320958042,0.00169959380104254,-0.0118261554806486,-0.000477201122905179
-0.0116800417738926,-0.00472150995628976,-0.011337565016998,0.000350923794554912
0.000148240188405543,-0.0226504733144059,-0.00748202737481502,0.00042085742194299
0.0109836196739702,-0.0340218218443735,-0.000850647899427652,0.000584191806197193
0.0114954524519253,-0.0241546076920535,0.00555727648635757,0.00144970854655793
0.00388873963159007,0.000549987862283025,0.00869295678359806,0.00278048449594064
-0.00124681472762816,0.0210492326648828,0.006386128267772,0.00374332620005757
0.000336352795522432,0.0227518911823102,0.00235010339506521,0.00344734618154741
0.00271168052616194,0.00986231347094509,0.00290205517078707,0.00208248361907231
0.00343561632177363,0.000565608849607132,0.00587811783394174,0.00107203458243434
0.00644365384146071,0.00321364102063745,0.00546744385122662,0.00111279081226064
0.0119747660797581,0.00665847819161479,0.00104608652585691,0.00133473104961449
0.0147885378183645,0.00259539123734439,-0.0037805966576506,0.000600904449968325
0.0134317449082525,-0.00369106498213172,-0.00461330955402939,-0.0012981778135051
0.0120707800464323,-0.00829240251470122,-0.00228420478957143,-0.00323988205912989
0.0121318536428066,-0.0112069847611701,0.0010239698513986,-0.00401045352245153
0.0133906405877728,-0.0136809535944087,0.0044994968177443,-0.00364765208709073
0.0165851227837773,-0.0176906562024645,0.0042774423690671,-0.00281084244147188
0.0176572527527474,-0.0213273622708659,0.00147316012178139,-0.0019543658761652
0.0133153995340173,-0.0216265572434753,0.000761075765856776,-0.00102043634218727
0.00817899521060201,-0.0153505709051054,0.00127021184864061,0.000190014665712398
0.00730872289856936,0.00110239510327414,0.000145016466718054,0.00144464664124269
0.0100381241686736,0.0149551176582792,-0.00295562479092407,0.00236521800048239
0.0109981658629952,0.00846070369279691,-0.00689179549698606,0.00262864569367657
0.00785528084771953,-0.00813265813836677,-0.0113187328710059,0.00216665094203876
0.00563619361107683,-0.0153709165746184,-0.0148952250882816,0.00125536863698961
0.00799533307656422,-0.0163581522357765,-0.015265675837191,0.000255803524069177
0.0122647781194543,-0.0195350692128116,-0.0150849953061136,-0.000507398380195194
0.011880155137055,-0.0200482377460007,-0.0180957898584947,-0.00103465196068608
0.00538430038461621,-0.0155694057301791,-0.0197368603964049,-0.00141547924006655
-0.000313347446308407,-0.0104712639419804,-0.0156077699189905,-0.00143468371556981
0.00493248887756713,-0.00859505667442762,-0.00613634540462983,-0.000981223475477273
0.0189901809353168,-0.0127034331403617,0.00635276401607744,-0.000176850606237465
0.0253907419248518,-0.0166109295284195,0.0150069546491799,0.000971490399740721
0.0215038333154389,-0.0131004067675943,0.0175366703112108,0.00233337589148021
0.0161334899164885,0.000745524449264668,0.0171133027956782,0.00329587235457662
0.0121066501512094,0.0284876912830367,0.0166560920777444,0.00296407106076555
0.0089011607026569,0.0566128473586632,0.0230800225885559,0.0011741553119761
0.00462613421641607,0.0597950482010334,0.0342490367024217,-0.000995776135326525
-0.00231056595563104,0.0385258043275895,0.0350043769738131,-0.00242213791523575
-0.0116110330407109,0.015117420685078,0.0172811712389157,-0.00262953451841077
-0.0221444232682641,0.00281535120918901,-0.00874736914428259,-0.00208754097932135
-0.0368825824260068,0.00129152555175852,-0.0268074590874451,-0.00201550324599344
-0.0539826673267156,0.0042239537134067,-0.0336855412465536,-0.00262776781611358
-0.0570142312223474,0.00536592054305767,-0.0317414776668402,-0.00289558578454038
-0.03896169893431,0.00191107722868552,-0.0235349852383444,-0.00226343494917014
-0.0130276876122149,-0.00455807130072589,-0.0141442044054445,-0.00105008077166054
0.00694347207038498,-0.0108575896129779,-0.00762424482526386,0.000367316398526487
0.016948094821946,-0.0116728432626639,-0.00437453554439737,0.00172984789619381
0.0209670337641435,-0.00530057938343784,-0.000390997275184342,0.002600147274779
0.0254665575098725,0.00157743739263306,0.00676268839875095,0.00269193976510019
0.032601400208779,0.00984051719763106,0.0128965141378767,0.00254750820554004
0.0376916633596556,0.0232720654866585,0.0114916263707787,0.00252684739295598
0.0361995054907449,0.0309183703617802,0.00770756528360654,0.0019773564389832
0.0266305690513745,0.0249665695130765,0.00990111536372405,0.000534168443103848
0.009333552199298,0.0168575554059838,0.0156772224069464,-0.000961513639560421
-0.0113068099251625,0.020023245236222,0.0200428329374089,-0.00135102843902207
-0.0261441906258737,0.0312653787577599,0.017414321865031,-0.000853942709714095
-0.0271889539688912,0.0327367100983303,0.00948003683617636,-0.000638231216315356
-0.0185614648707044,0.0157313015735393,0.00559840855639052,-0.000902551448926705
-0.0121829434250315,-0.00553289478117098,0.00418938920701051,-0.00098788802443811
-0.0137095255992933,-0.0124860114165754,0.000824814087724269,-0.000723881858235344
-0.0191912241215145,-0.00706811249345464,0.000207482489399844,-0.000438439835778612
-0.0215689579744057,-0.0017708944394901,0.00456635770517857,-0.000257935546933481
-0.0197454564766915,-0.000755873867446796,0.00890058309797317,-4.23707023240001e-05
-0.0183166793208871,-0.00233302786529196,0.00875949613033572,0.000300845730432511
-0.0200674795262576,-0.00475202160225723,0.0062120209459866,0.000480100816769841
-0.0230241348989835,-0.00963785724047145,0.00599390958666316,0.000421650058027748
-0.0258938261428152,-0.00552733725617288,0.00688513190788549,0.000456550551026722
-0.0274462695871611,0.0193137291848359,0.00882767303781079,0.000586805635109918
-0.0228356527391791,0.0389618301635687,0.01135367692128,0.000911243451642469
-0.0113306804838443,0.0304942827796434,0.00973693478524849,0.00147811286556065
0.000229947404156133,0.00739578584325535,0.00618591114435459,0.0017383363212516
0.00928657699449771,-0.0165291792390456,0.00362293750151164,0.00132350780723621
0.0197078784364798,-0.0309661435413516,0.00203568961089201,0.000438901936035062
0.0270235553165273,-0.0233148426180119,0.00597880962396522,-0.000349751507208092
0.023086120657333,0.00338012019479316,0.015407530898013,-0.000414594953398443
0.0144360224957148,0.0280818503877633,0.0218865626295331,0.000615452518247869
0.00919532448539608,0.035369016511303,0.018901258336021,0.00220148648132577
0.00454814066987174,0.0312119482614486,0.00888342435052271,0.0026094808685338
0.0025882175734573,0.0248003977399565,0.001982828687362,0.000952081600046933
0.00488609886755859,0.0156684011583307,0.00300683803806041,-0.0015659969959409
0.00615548826098766,0.00293265407508448,0.00601997711575793,-0.00329976473303771
0.00406271538350837,-0.0080343457028593,0.0043875804902176,-0.00370949804469836
0.00164736465034678,-0.0138707178104788,-0.00104708369521269,-0.00320070779687933
0.000593026957302026,-0.0163260368946288,-0.0043746669425841,-0.00222005082645342
-0.00282480507729836,-0.014999816866005,-0.00332947902902613,-0.00107631532460684
-0.00649684610334868,-0.00947017908125157,-0.00209539614641785,7.59600695340612e-05
-0.00714304554260644,-0.00243000602614384,-0.000763016221800483,0.00118352021978783
-0.00736787448799187,0.00221778950848245,0.00220776594128149,0.00210787063860288
-0.0075708397861478,0.00273578463285503,0.0046527398277474,0.00264429328899018
-0.00668675955586479,0.00125356693724783,0.00613645284781584,0.00272545167540899
-0.00520371523806502,0.00118142554342326,0.00484769991484629,0.00239657642270852
-0.00483760826287026,0.00302891957795623,0.00257302417158762,0.00143402226706199
-0.00440580474092038,0.00513600308314215,0.00302024354029185,-0.00012004232676802
-0.000236451207058564,0.00660441436084384,0.00510487664350812,-0.00169594670610128
0.0106149651722062,0.00319886544486655,0.00835785850370845,-0.00269851776827883
0.0213001706419388,-0.0047520206293214,0.0105658542654605,-0.00289313867411636
0.0178729389711157,-0.0089950635170811,0.0107990903745732,-0.0026021943692406
0.00549707114440279,-0.00495765678567715,0.0104068668758949,-0.00180715455495824
-0.00279550795391267,0.00692513396681136,0.00749266595880182,-0.000568331270948409
-0.00633206918244725,0.0180869574531368,0.00543706098760007,0.000114580829733286
-0.00673993739357904,0.0182108640743492,0.00880085719015747,0.000244086335171351
-0.00447508504693482,0.0136743015603295,0.00978765873679702,0.000808890663045419
-0.00226241798278047,0.0157067453935015,0.00298544721207198,0.00142715144251935
-0.00220296304035728,0.0224281390016711,-0.00257060377908552,0.00112125970322721
-0.00285314312456561,0.0272478559616486,-0.0028216682073028,0.000104653981582431
-0.00237600380892652,0.0232559828375537,-0.00205695196751059,-0.000839059073499503
0.00136367358587515,0.0115559133816095,-0.00146905133897237,-0.00115281404262548
0.00791173397202163,0.000200937133602943,7.92814981353997e-05,-0.000807262962990935
0.0131086715913488,-0.0083269609127548,0.00206287527175372,-9.22019314801683e-05
0.0147917412068091,-0.0137985291220837,0.00171570699391076,0.000742404469544008
0.0132244932518879,-0.0156687372472027,-5.72163681668678e-05,0.00105119939991591
0.00932273244619412,-0.0136138576126097,-0.00152102872612254,0.000545420897872825
0.0046493286922224,-0.0102352445242691,-0.00276163676159173,-0.000283253850710888
0.000546092926792618,-0.00801630723929154,-0.00360936387217668,-0.00106780765178058
-0.00193777093670954,-0.0068101982153225,-0.00447939587706381,-0.00179418176842515
-0.00178740917939493,-0.00618609134082174,-0.00436444982822133,-0.00236471870415458
-4.48257607278468e-05,-0.00591162864470287,-0.00322731358607171,-0.00240542587070156
0.000913091564063493,-0.00485643696695165,-0.00323105801123914,-0.0020319176762401
0.00049291372358548,-0.00106762415237258,-0.00439374312730488,-0.00163832115180512
0.000592395117610754,0.00307598111488504,-0.00618050603234821,-0.00123379619062616
0.00157351593929364,0.00460814655649477,-0.00680570237191021,-0.000773299893227531
0.0022617064479419,0.00520148425393111,-0.00528058683924917,-0.000107924806191729
0.00418316876547339,0.005368157127982,-0.00403988377984706,0.000798183190900541
0.00935879579141062,0.00196305527078146,-0.00329958615782104,0.00163113310218861
0.0165902678253843,-0.00576100105252959,-0.00209615220085537,0.00214817838274186
0.0188596791331696,-0.0143767946324279,-0.00238660014727407,0.00237396031509396
0.00812195973038513,-0.0161198974672663,-0.00418744431416112,0.00232927212653903
-0.00817142523938695,-0.00654783582918192,-0.00539372465781142,0.00215868198428929
-0.0143435605514006,0.00398607956045503,-0.00641270033671933,0.00190159983005869
-0.00995699672143883,0.00556334600561227,-0.008033703599972,0.00148669688865826
-0.00402017073522674,0.00325622528121658,-0.0102213939185228,0.00103104896482457
0.00179439548711747,0.0032629802517977,-0.0117286784234129,0.000156209016281858
0.00770954608633768,0.00199565443144417,-0.014185227089783,-0.0013227490898283
0.0103065318066265,-0.00190954597031799,-0.0153172732341113,-0.00274457362161134
0.00967742817891985,-0.00415663653896991,-0.0111418264415046,-0.00350379086606815
0.00768492096074559,-0.00628852074135779,-0.00577369367393383,-0.00340579540685187
0.00702609283536862,-0.0103736122338771,-0.00111771630425515,-0.00254888807188126
0.0097261929441425,-0.015220390032743,0.00309836427373232,-0.00104642735330184
0.0121114383828332,-0.0179119697861685,0.00316520509983443,0.000888622761131649
0.0112404809588751,-0.0152214668854711,-0.00120271208044027,0.00251428663365545
0.0103417971868062,-0.0102117332573901,-0.00653075498404347,0.003074622698751
0.0106970624553063,-0.00762516296813354,-0.0112331086182612,0.00245303339586396
0.00821759938795248,-0.00713896930393384,-0.0131709144168756,0.0011548299855071
0.0025189267811439,-0.00604276852176212,-0.0120820723719813,-7.54536434976619e-05
-0.00198895943861299,-0.0042729959767958,-0.0115160887215662,-0.000722568844154388
-0.00216267469876779,-0.00292370636595037,-0.0115605834283773,-0.00066236440952647
0.00141117829749516,0.000922564127741556,-0.00992464420491076,-0.000186816028362116
0.00307642290227127,0.00802168070960473,-0.00707769584170061,0.000347240387308384
0.00128937051191813,0.0126230290274421,-0.00217574631903616,0.000956394931638487
0.00139406357407921,0.0141742741206824,0.00385203822074711,0.00159378751248845
0.00304342698184938,0.0160377263298453,0.00700019171686338,0.00200492115282066
0.0021870782470481,0.0163693926524796,0.00668792373910803,0.00207258363901306
-0.00110233463862964,0.012817725145245,0.00718530730258794,0.00182022641180457
-0.00513256320850696,0.00610371018575526,0.00757433988084475,0.00141626693965208
-0.00695647397139872,-0.00025701201394349,0.00250655111336982,0.000816296432942626
-0.00399423920959053,-0.0040643682742087,-0.00433195339897755,-0.000207577529117311
-0.00190567193885815,-0.00836223460381937,-0.00818666073101354,-0.0015701719702151
-0.00428139933639726,-0.0166630077430868,-0.0103622396211509,-0.00284339458214927
-0.00497700570034237,-0.0324021844771975,-0.0107801892724676,-0.00339437605880333
-0.00184088124984168,-0.0551188368655027,-0.00758294179686994,-0.00284369690785656
0.00191465394463467,-0.0722632580355664,-0.00295199482768146,-0.00141781353912916
0.00290116728238248,-0.0670433199353794,-0.00114064998915545,0.000227572275724187
0.000151919726631393,-0.0377750902426397,-0.0010247012230363,0.00131425393199446
-0.00470771521273861,-0.00555664553199359,-8.5223581086688e-05,0.00144326953927487
-0.0098165920789896,0.0111537542040093,0.000446618333396849,0.00106558000041191
-0.00871772408900193,0.0137272871044338,0.00206750412745473,0.00092845791968209
0.00182681993971555,0.00824574215275463,0.00709678947617113,0.00119436450875909
0.0115400986473471,0.00632699489457942,0.0133556736688701,0.00177151486048133
0.0125649010247498,0.0160286954186554,0.0168902984755422,0.0025811972441279
0.00962514796569975,0.0232890258964075,0.0148834387667079,0.00318860263972974
0.00664394211808036,0.0205368997167964,0.00618949894841937,0.00266009711931211
0.00241976221837073,0.0160434535850751,-0.00473395330543135,0.000446452207011545
-0.00200857494250018,0.0104386323099299,-0.0107055139923515,-0.00241918936355797
-0.00510805832879294,0.00395361150602531,-0.0105538500899056,-0.0043817711878612
-0.00671180127671052,0.00103449976477808,-0.00450761673812331,-0.00506534947811583
-0.00599860609936623,-0.00262279604756136,0.00845804203570554,-0.00461325641005192
-0.00563685925016501,-0.00768038469423319,0.0246523843101411,-0.00291184104961419
-0.010851495746362,-0.00473759063219259,0.0340117114846405,-0.000281737167995401
-0.0174011377610957,0.00293848611335646,0.0297874997331441,0.00223508473601116
-0.0192816388877869,0.00548207669312394,0.0180023962453641,0.00360278127698675
-0.0233960959494886,0.00582840500244169,0.00890086293068045,0.0033462826826152
-0.0314394681273378,0.00625590506804747,0.00432885579714419,0.00159835668182068
-0.031568815291203,0.000426940928997269,0.00390132513857941,-0.000527454334479771
-0.0206073005610595,-0.0100471113478102,0.00709431822034632,-0.00145732893880351
-0.0068791763926991,-0.0192408438404013,0.0085281816422912,-0.00071251494438323
0.00597428275753915,-0.0268024515472742,0.00464120100318969,0.000596107723090405
0.0172580996587286,-0.0248338249277828,-0.000955102641914916,0.000945252300949736
0.0223621605819181,-0.0119074569698255,-0.00222050873796951,0.000145137950948953
0.019312330623858,-0.00398253006234184,-0.000101876389375291,-0.000710100107492361
0.014412753411709,-0.00601325057368564,0.00202605620410275,-0.000811526366778234
0.0117185062465323,-0.0105502686720018,0.00458535553131703,-0.000193597668608767
0.00988372318286912,-0.0110726578428667,0.00518144518669409,0.000556819332592399
0.00904677346438541,-0.00740358074153108,0.00471658845648147,0.000743967197938814
0.00938526427450452,-0.00485527717921064,0.00787074323122651,0.000212809799790536
0.0102472345438932,-0.00349762671020904,0.0111752085608148,-0.000637280320153974
0.00688981554933278,0.00216339956333616,0.0103399016146116,-0.00138258010659642
-0.0045951981379454,0.0127927116792086,0.00930218210182144,-0.00184461656763306
-0.01758119132432,0.0205670033717606,0.011193435755,-0.00189309208556462
-0.0241244257554493,0.0222219323404831,0.0130030887544319,-0.00147381194764
-0.0213139977300799,0.023492187046543,0.0149649750087329,-0.000621540391676507
-0.0130851906127084,0.0270021912202598,0.0169444527528956,0.000480807423005641
-0.00767919323539302,0.0284337130859178,0.0144409260935488,0.00136909595614651
-0.00496968406391472,0.0199034876645292,0.00869156970805956,0.00185064938507492
-0.00160348072644994,0.00793437960291962,0.00706343248654828,0.00198665121222239
0.00108193687590813,0.00738354386812443,0.0109051857914244,0.00196231991960658
0.00372436193301779,0.0136910875674327,0.0147549390819685,0.00197821870912298
0.00667814077455565,0.0160807396048848,0.0138171480110301,0.00185159369321655
0.00642662017920547,0.012564315055075,0.0067082323650766,0.00142219720824128
0.0040970162699927,0.00677847160362428,-0.000712518501497467,0.000697878434461504
0.00235807879021689,0.000953136270136851,-0.00205221751486453,-0.000151050022281439
0.0031493672335632,-0.00726721437608894,-1.21504297447518e-05,-0.000599657801896229
0.00828070426737447,-0.0172881363020569,0.000168194528946182,-0.000487709871491878
0.0161143557319071,-0.0219508643488108,-0.00131607466580208,-0.000406423044784751
0.0234590523730871,-0.0168385825054019,-0.000843137911927873,-0.000967272938754266
0.0216578609687781,-0.00273139081767854,0.000375283463699669,-0.00206507559346791
0.00702596643737629,0.0134953059884394,0.0011384894224832,-0.00293757215072728
-0.00894566087969492,0.0200061604862199,0.00428348153644324,-0.00289363049228171
-0.0171402246271459,0.014271140411948,0.00827371445188205,-0.00180390281155874
-0.0179976724198271,0.00116797203871864,0.0109260633181348,0.000100473532310403
-0.0149705141481051,-0.00919143957906567,0.0102777580760536,0.00229550574030883
-0.00466802412562863,-0.0060733021924021,0.0064938017383099,0.00367026155168413
0.0145433917188844,0.00175839202630541,0.00449200443055948,0.00319915259311006
0.0308418101517343,0.00592374036328526,0.00715467973277551,0.00137963295324208
0.038477106073138,0.0141255347448698,0.0108069436911307,-0.000123281861573373
0.0394906245401928,0.0208653732828561,0.0106206887827527,-0.000728871032686705
0.0332923295527893,0.0170993820063321,0.00656716627175981,-0.000828179702696477
0.0222575414122636,0.0109715035855382,-0.000580668435448236,-0.000449188891724454
0.0115412295610814,0.00784344642867857,-0.00595383030957925,0.000122868408252498
0.00294925646760665,0.00432735756889489,-0.0052373936464279,0.000598802376638245
-0.00498331797343417,4.67989965680458e-05,-0.00312148021018229,0.00102974514090319
-0.0152328212480118,-0.00282459668890391,-0.000950214762675568,0.00114126656450802
-0.032853224374875,-0.00101762872322985,0.000924615893552758,0.000820105589603369
-0.0498401645226899,0.00472859754505208,0.000303599569061603,0.000191280906993457
-0.0442154070509024,0.00953481781134357,6.9763575951837e-05,-0.000579069470883481
-0.0169376510746491,0.0109276411571191,0.00140827486985877,-0.00122783895390669
0.00764173195866799,0.00735463078369949,0.00327680612938505,-0.0017129399792535
0.0165061715190345,0.00111960707705876,0.00625560007591143,-0.00194175103605909
0.0173630857316338,-0.00397012787950769,0.0107818422249966,-0.00180921960829104
0.0173607262559511,-0.00815279505488609,0.0126450030213354,-0.00140327559491762
0.0144089631289926,-0.00868785050478279,0.00762494546818442,-0.000966409541258708
0.00904469584080587,-0.00599759809573473,-0.000600616224823408,-0.000751799884067902
0.00417414859681322,-0.00742288362539446,-0.00629781655613303,-0.000611894757475139
0.00100875785321335,-0.0124718135150046,-0.00872067287548797,-0.000412997943895684
-0.00077263987534548,-0.017072543772097,-0.0105123256002378,-0.000267530358452222
-0.00123773907471415,-0.0204460090384775,-0.0105769168571646,5.82706733603783e-05
0.000273006617749424,-0.0189767558379802,-0.0072840638428778,0.000635318812436645
0.00247201535716576,-0.010605006480097,-0.00385838653334114,0.000976345258406188
0.00203607460150331,-0.000598599735026167,-0.0035150268643172,0.000862289297033378
-0.00110591334739586,0.004125788521949,-0.00387291868396416,0.000452188971208498
-0.00252366913711874,0.00017908944392327,-0.000467531930869854,1.14431261595973e-05
0.000355172310610779,-0.00709611061843131,0.00357790867849178,-5.1788105264256e-05
0.00471747306780041,-0.00896912040055529,0.00294509944007747,0.00016888442522295
0.00725997782693555,-0.00801468623947081,-0.000861131503960797,0.000152161435589019
0.00690392595587417,-0.00901579591152995,-0.00209758108095055,-5.29346335806314e-05
0.00324761256871362,-0.00558940028548399,-0.000278537513512413,-0.000247810526673402
-0.00220229130828858,0.00475824038561112,-0.00119040669932216,-0.000596640023428776
-0.0082886577328014,0.00888584896738586,-0.00409135415818011,-0.00110082052194606
-0.0160275730250715,0.00461417744215637,-0.00402727374870559,-0.0014607621634926
-0.0239052872108449,0.00718405011774475,-0.00266937453175784,-0.00153405040578155
-0.0246186292474082,0.0115710655567372,-0.00175716457482684,-0.00133772586494536
-0.0132570138250789,0.00146868950174713,-0.00306385982074098,-0.000951060678677257
-6.52849744328839e-05,-0.0136826758932188,-0.0067842411702833,-0.000745206735482141
0.00284999317849624,-0.0215740887724165,-0.00770454214384475,-0.000772084653407944
0.00100108157967948,-0.0247139360095013,-0.00523458752017759,-0.000365895745019422
0.00118519458641739,-0.0224021260331943,-0.00350699700904351,0.000657336506161483
-0.000891073734406435,-0.0127193173578678,-0.00311542857913114,0.00134681914676665
-0.00508611489171809,-0.00169018699598511,-0.00105472867885278,0.00105771379710652
-0.00670595421187711,0.00240994053641626,0.00264497674926163,0.000428384202966985
-0.00502395538588974,0.000986308006055812,0.00367304032615732,0.00037713099251568
-0.00244016996555983,0.00227446166933013,0.000517090895344132,0.000811563885673358
-0.00114608434619136,0.00951940479760417,-0.00291467274682297,0.00109552877819679
-0.00129680845659496,0.0186494832895488,-0.00445868866045033,0.00109174846213901
-0.00182978333006106,0.0244485972875296,-0.00476348841979056,0.000782472522689403
-0.00139878251415922,0.0239223659362635,-0.00296023863222616,0.000331700569299228
-0.00104657901884635,0.0158982086809076,0.000290620281464621,0.000104945064642564
-0.0013880406808491,0.00450736130620879,0.00329915610473821,-0.000116972488020481
-9.83439409121666e-05,-0.00318989452422496,0.00580732551378096,-0.000311904882940951
0.00234696714994962,-0.00672276922805446,0.0064177863002986,-0.000126952932600495
0.00187460755847494,-0.00988204694679762,0.00427496234181012,0.000122074272447842
-0.00178345204170045,-0.0109121514753943,0.000519077100442032,3.1930315829285e-05
-0.00444196636272841,-0.00781328837555331,-0.00353889478733401,-0.000464801573952656
-0.00388681105238552,-0.0042791759664656,-0.00598132749813206,-0.000990395342518005
-0.000346608024607427,0.0001275563043301,-0.00536275704207443,-0.00103085347776643
0.00349848053234762,0.00703398169061498,-0.00341551416618261,-0.000643290610790314
0.00200335268638643,0.011885796949472,-0.000986832330337736,-7.43525697798372e-05
-0.00262708445515702,0.0124161238528854,0.000988533075868174,0.000800138420585748
-0.00501348898138097,0.00949805841089459,-0.000164990095875401,0.00187404048908815
-0.00801268546400731,0.00500906307324854,-0.00400617904524973,0.00234963890610564
-0.0112693206317029,0.00381640013628547,-0.00590190348950844,0.00192949250663317
-0.0119307046078795,0.00256256070384558,-0.00195863374423092,0.00131039208186222
-0.0113003792711506,-0.00302959349436436,0.00484026849144159,0.00117548588308396
-0.0114902660545603,-0.00476799206973486,0.00806930562493082,0.00143960126794618
-0.0129799749897309,-0.000822736936358518,0.00615883149216661,0.00135704147659596
-0.0121439629324091,0.00354954717545308,0.00455811068633953,0.000581608627983423
-0.00790309664538048,0.00867772381491467,0.00675753694330398,-0.000404357018054285
-0.00521349335580664,0.0129803509217479,0.00696230710266144,-0.00116574802374548
-0.00516291346234647,0.0079532692960638,0.0035487777412459,-0.00188527504938998
-0.00141161195197805,-0.00971962088873389,0.00222744273642989,-0.00256090744025081
0.00606056142251722,-0.0260803099264347,0.000806025018099921,-0.00252706365362934
0.0107913755557503,-0.0263998533542933,-0.00286958312114147,-0.00150396346117998
0.0107736792381877,-0.0149272907362964,-0.00531843576397123,-0.000111236757564715
0.00546669967379233,-0.00364295651688792,-0.0064678139571299,0.000937315190416224
-0.00237984053629177,0.00325509797217049,-0.00619750869602656,0.00168897544725051
-0.00731323294729007,0.01194598455754,-0.00409986954099357,0.00246825191346041
-0.00658745942364023,0.0311388526843029,-0.00116522437092052,0.00294845815437081
-0.00110376980422266,0.0479515253655255,0.0022184869498989,0.00248428106916205
0.00146649295108816,0.0379663224374269,0.000305299735886008,0.0010527616847517
-0.00152913748490369,0.0110556869967682,-0.0084031877953987,-0.00056298401408427
-0.00348371988646169,-0.00726476349786709,-0.0155346213832812,-0.00155515149516721
-0.00272640264536758,-0.0168592792397188,-0.0171442702676809,-0.00172089750426046
-0.00102417068013259,-0.0248472647350642,-0.015387194007346,-0.00141481086868289
0.00178676653811422,-0.0286943124887311,-0.0122921000818749,-0.00110110600835622
0.00376299142295549,-0.0282972657201047,-0.00853363746458106,-0.00083204074363114
0.00235228510286769,-0.0272736970410019,-0.00494847707078355,-0.000211729341876059
0.001364089855816,-0.019377131643315,-0.00582983213517807,0.000787964181880244
0.0014324818646391,-0.000974887968040052,-0.0109981450119111,0.00113341879180431
-0.00162479446998134,0.0153758337063847,-0.0118803003704575,0.00026321882092126
-0.00323952253540009,0.0204236128825639,-0.00917783844609945,-0.00095931420693069
-0.000520131093204503,0.0165722215320474,-0.00852444064754879,-0.00170186304685525
0.00148941747453824,0.0125564903383267,-0.00899654071547096,-0.00158353011709677
0.00152711290116482,0.0125546121412232,-0.00549800918756318,-0.000637086645291349
0.00146613637068918,0.0112734962261821,0.000763025034036829,0.000752546746538676
0.00261528916430441,0.0122058412774795,0.00116806405093107,0.00199806294508013
0.00499398538889364,0.0177207908405544,-0.000755864059397753,0.00201923249445574
0.00702687300902219,0.0181917471952566,0.00245616857477933,0.000621395896123891
0.010706700265978,0.0143806341898063,0.00552644235596379,-0.000696111218120614
0.0199465865202955,0.00982357553730439,0.00361000423452597,-0.000887183906108705
0.031636909754716,-0.00101279287196867,-0.000762254850119817,-0.000352278692276191
0.037001711401153,-0.0138339329017037,-0.00507695264735465,0.000196420932462521
0.0347678574024489,-0.0151105331959785,-0.00813480548665348,0.00054653576263126
0.0305377839617229,-0.00472363065092658,-0.0106682654569712,0.000750830951823694
0.0245926999453658,0.00847237835059724,-0.0152105677973267,0.000379339680277236
0.0156804044964137,0.0195847677434429,-0.020488762690008,-0.000883245255045521
0.00569353303893631,0.0211830764441261,-0.0212047821082041,-0.00239946144674829
-0.00464185925368077,0.0106995174371186,-0.0174862919612067,-0.00315622568268872
-0.0133077157171282,-0.00102952049955884,-0.0132247727678852,-0.00271394382060628
-0.0237753181367197,-0.00354796638799316,-0.010240473533476,-0.00153079217009595
-0.0403011975537158,-0.00121727224948327,-0.010384633720072,-0.000412615593877111
-0.0491254478774901,-0.0035246384152702,-0.0107689567575124,0.000440148789035319
-0.0384281653793429,-0.00467474331773417,-0.00892631395402986,0.0013473215533736
-0.0184978621215483,0.00387056896102083,-0.0114327017602785,0.00208959134284038
-0.00403994606248582,0.0108107634302112,-0.0191951885897993,0.00166711577375311
0.00201225664081224,0.000439889672246067,-0.0244442006483694,-0.000257096546155711
0.00694827953430074,-0.0201901570809648,-0.0237963926034633,-0.00226522123232395
0.0147426189689152,-0.0314144456808213,-0.0179619663925425,-0.0028531734442662
0.0197171811770283,-0.0269681868231094,-0.0102058031670207,-0.00196581669823
0.0187778354556004,-0.0138755348596403,-0.00804207141157345,-0.000355068877304756
0.0139668535445748,-0.000778351736409437,-0.0109384265206858,0.00122924038214755
0.00722943278514121,0.0087227785480618,-0.0109591994147695,0.00230236993430038
0.000800341605954468,0.0151916236093518,-0.00591404403943282,0.00256897890546161
-0.00407567839548804,0.0179651843826658,0.00220915938608824,0.00217406675445401
-0.00647831969674446,0.0174037178173417,0.00499142184378202,0.00171511244809782
-0.00636756949274327,0.0158407243767928,-0.00185362059935783,0.00104997504469741
-0.00615922198545675,0.0107398718735585,-0.0103005873235414,-0.000351270302822843
-0.00659953121365076,0.00160894375393565,-0.0145268650824322,-0.00216801918760674
-0.00485737253703316,-0.00128261245211356,-0.0101222115326435,-0.00349338227431342
-0.00108441728585884,0.00664144710764765,0.00393907788105703,-0.00346266297234963
-0.0011635550338148,0.019719836712629,0.0179342696535972,-0.002044939809029
-0.00661572455130101,0.0308002241279647,0.0240749850269564,-0.000138536733323058
-0.0128040374015145,0.0339291662347842,0.0216626170558464,0.00146279810469183
-0.0198185929175741,0.0297558844844707,0.0119006891841105,0.00258859831111977
-0.0284495413723468,0.0218719193333085,-0.00134021139770819,0.00319289703543928
-0.0346968626929847,0.00803727421165384,-0.0138517272325375,0.00307690072693506
-0.0372743605049991,-0.00729068511514998,-0.0229137787547235,0.00189829766548399
-0.038407793720412,-0.00832430239862099,-0.0266539836975449,-0.000189791645880226
-0.0392213582580483,0.0021096033084567,-0.0264692537397676,-0.00204797191031339
-0.0384647291972458,0.00780364029342416,-0.0239132161631031,-0.00305304035859261
-0.0348194349298274,0.00591846894926017,-0.0182440503624593,-0.00335836307357914
-0.0303486633321207,0.00302375409649443,-0.0110822822024346,-0.00271430971896401
-0.025744608692459,0.000385404604590169,-0.00683045545956035,-0.00104663022446243
-0.00987243092943414,-0.0128192967771644,-0.0044983725623551,0.000904146902317776
0.0172277767133749,-0.0382772377090835,0.00367563318946629,0.00213760737835301
0.0324959351384528,-0.0469498128669874,0.0139537231760878,0.00245588072290253
0.0283817217312607,-0.0265136995385257,0.0152445161903745,0.00234056350384657
0.0223795618982924,-0.00934889487403352,0.0100801723164969,0.00208897549821103
0.0234297860646113,-0.0063918341562848,0.00319303601631034,0.00167636962175128
0.0217905359793,0.000870660283822981,-0.00365609241130437,0.000690448176679939
0.0128351736674708,0.0131390808917078,-0.00503946773208076,-0.000838982920216344
6.69617906239109e-05,0.0236088257393998,-0.00304714833484295,-0.00200267152625855
-0.011191696756898,0.0307579688027241,-0.00184138714281112,-0.00202878242226352
-0.0120786028550682,0.0308028148817554,0.00214056109091078,-0.00100399771525519
-0.00362498704142978,0.0224788008256664,0.00688130781864977,0.000256564660799023
0.00127461227655942,0.0150425961107145,0.00835610801665176,0.00111730182380549
-0.00244190264188546,0.0181178966723451,0.00850965641850817,0.00183505488906472
-0.00815968610252189,0.0234476484371135,0.00708745310080449,0.00253886891137969
-0.0103640038795882,0.0195563959336536,0.0033870762121545,0.00263127370046828
-0.00888016124482147,0.00877999941704073,0.000754586445014521,0.00204142091702913
-0.0048167489643676,-0.00146883256767771,0.00148690907359192,0.00124264064103141
0.0012370898805007,-0.0071539329552167,0.00239114578958957,0.000473582921645605
0.00875981668589667,-0.0124438682808241,0.00293570100307742,-0.000160897033199175
0.0148950812731977,-0.0197504593663004,0.00634444595140076,-0.000632310060927558
0.0167967731120115,-0.0215491263656388,0.00904411584401613,-0.0010685576889201
0.0155654924364786,-0.017028167615474,0.00768009214542758,-0.00156965364836727
0.0140216364624248,-0.0143075435667026,0.00554089370604473,-0.00203201388020927
0.0140935618091414,-0.0150532141828544,0.00470096634375651,-0.00212715324721667
0.0150147308241746,-0.0147194676118724,0.00223584259593526,-0.00177947723966843
0.015891309994448,-0.011050056637494,-0.00107044111538561,-0.00129677901543913
0.0177831113612368,-0.00621992817260706,-0.000740616440790346,-0.000819573446006948
0.0196574178738987,-0.00317317568160539,0.00172255504371008,-0.00039977750606015
0.0192866489658477,-0.00210421092033211,0.00210597106143438,-1.6223424867806e-05
0.0164638402379796,-0.00264417661091372,0.00148267003482302,0.000340271141496706
0.0117496287492631,-0.00322902516218731,0.00314285630646092,0.000751026572422485
0.00729479525840264,-0.00117054361257125,0.00494435106873053,0.00145199871659937
0.00459441539701525,0.00317676503818256,0.00460755214561444,0.002138305715329
0.00164206157436343,0.00821360447899155,0.00394145044869902,0.00228404550754504
-0.00254091020905986,0.0128951471183866,0.00560601137986621,0.00186793263599295
-0.00453315125545356,0.0130624071159878,0.00929565385996893,0.00108515735326465
-0.00226523362660974,0.00594927132055698,0.0109508964015543,0.000191223256758609
0.000583141273661488,-0.00362278441933254,0.0093455833602187,-0.000393050921573958
-6.63342496190576e-05,-0.0111092766402942,0.00764076420278873,-0.000171626523513288
-0.00331382473551093,-0.0133171877046378,0.00638017568735796,0.000738715696288121
-0.00453485947040738,-0.00852663730137995,0.00512816856213178,0.0012304990913886
-0.0028190223119214,-0.00169943563573711,0.00411736120008156,0.000635734856495566
-0.00143038838595334,0.00310432398785361,0.00360339476657533,-0.000444227433854994
-0.00159441424560513,0.00492536967833406,0.00262350703632198,-0.00138815808266949
-0.00240089743322826,0.00428588194118659,0.000275610419267338,-0.00220766003176917
-0.00284458985786969,0.00491346573351721,-0.00014383732013942,-0.00269135908290298
-0.00282083381045779,0.00740661445805948,0.00150181862960169,-0.00257629196115236
-0.00400054077803212,0.00621471401897607,0.00101969557656449,-0.00225816819459633
-0.00797466929568006,-0.000966753523981999,-0.000539619258120974,-0.00191944336919763
-0.0115855932091359,-0.0105078842611015,-0.00237769584511813,-0.00119652085274457
-0.0109402149505166,-0.021264617200744,-0.00723225239419867,-0.000301786806313744
-0.00881607212755515,-0.0315384328387742,-0.0109819357215887,9.18220353467738e-05
-0.0100458466251285,-0.0355237902359504,-0.00895580669926493,-7.50308735584747e-05
-0.0110657211416341,-0.0311632173843476,-0.00582460546884378,-0.000353533173914317
-0.00633735482824402,-0.0237451755551127,-0.00479216825477313,-0.000371599885806704
-0.000660374709091156,-0.016378783453281,-0.000734382992400574,1.425746627999e-05
-0.00158772445488159,-0.00829522179918697,0.00453812661230441,0.000924571590284041
-0.00600177343968502,0.00571985346835827,0.00426381645573695,0.0021619725508638
-0.00757089118445157,0.0239953427263612,0.00239854885393194,0.00282675497517894
-0.00435917982869284,0.026868859503707,0.00521323683003844,0.00246962950445215
0.00934990171003034,0.0186341348344479,0.00835066764644017,0.001747423358418
0.0300430015190162,0.0229469273212939,0.00529941536386435,0.00107550953041874
0.0426306366457848,0.0325551863192583,0.00089420712345563,0.000211768951725227
0.0442755249083686,0.0280457308186931,-0.00164515594107608,-0.000944336026990139
0.0413056473461495,0.00663750109619086,-0.00607517260394532,-0.00237991208830922
0.0379220630769008,-0.0203083004834129,-0.00835268085672565,-0.00369699885692236
0.0357170109580978,-0.0419830957650358,-0.00835978547071585,-0.00425855031758129
0.031664903192062,-0.0575573114313814,-0.010524430585032,-0.00409784732743187
0.022056509133497,-0.0611887043041779,-0.0118440082334355,-0.0033817997260485
0.00548465651633311,-0.0408765932392582,-0.0124076240296007,-0.00207271158502298
-0.0173572556357345,-0.00993293752957841,-0.0165642245504521,-0.00060604082954867
-0.0411769410713575,-0.000680271050196961,-0.0213575355603555,0.000546503302488559
-0.0532917012005211,-0.0128097060445143,-0.0178626890035343,0.00156922141792524
-0.0424012765589955,-0.0224326940723217,-0.00650347716445247,0.00296857964356839
-0.0157500212766855,-0.0209264120343943,0.00223613616666883,0.00482782270230706
0.0085046903656832,-0.0111582906332917,0.00122659294306998,0.00585025918886538
0.0246076410570549,0.00386557767715979,-0.00797149986455735,0.00436327727770152
0.0365751260299123,0.0196923976582396,-0.0160375882843515,0.000768906138161575
0.0425576784490573,0.0248080927351018,-0.0131354141360509,-0.00261111209669113
0.0427002262302577,0.0115602846891102,0.00130744864130027,-0.00374708570045928
0.0430818916009887,-0.00824489755125309,0.0187952665367846,-0.00236539613967928
0.0451657550773874,-0.00960089115459339,0.0319344319747395,0.0003422956740206
0.0476207258978197,0.00518517666176545,0.0379521856705507,0.00304893115826332
0.0446521250916248,0.0118764463681489,0.0293971071926694,0.00465010998928315
0.031723209302932,0.0162902744950626,0.00672044879519745,0.00379862579672134
0.0158658734631134,0.0223836621054337,-0.00882290792822387,0.000197752372588106
0.00156775735293504,0.0172919048397042,-0.00726138348368191,-0.00378389043654018
-0.0129324784886593,0.00873695581396455,-0.00115147479947926,-0.0050079485662177
-0.0204764011309094,0.00683553410454775,0.0025278958137439,-0.00295816013566378
-0.0184633681031435,0.00912975863817079,0.00545882983184431,0.000454494129398641
-0.0156715215948715,0.0138140271893113,0.0078733611865544,0.00333937178803569
-0.0142661552449391,0.0182870887634739,0.00925632381251408,0.00469289864301502
-0.0121150226923471,0.0191058982092364,0.00815326802900332,0.00439617083884689
-0.00969990238014924,0.0176896129673796,0.00519524982123386,0.00308090377922532
-0.0090613374870882,0.0151944842852702,0.00370395253241457,0.00156491261118396
-0.00993370787864541,0.01019912400461,0.00374674679484693,0.000403725944672709
-0.0107284744072783,0.0046195213033742,0.00398813800466395,-0.000157711368118674
-0.0115909437891857,0.000437723943987896,0.00254303346218418,1.93892608132451e-05
-0.0118821702780158,-0.0039611122391298,-0.0007752898596344,0.000674421873174472
-0.0117914816586813,-0.00928189708485484,-0.00107182023598987,0.00118979898988566
-0.0134843615852995,-0.0140208784218003,0.00434882735958378,0.00144370468081146
-0.0158479743279046,-0.00697516573444615,0.00711441477656363,0.00156918591813449
-0.0164571205722352,0.0166424411071617,0.000493617357365339,0.000791810055600343
-0.0168230022401869,0.0319908629391201,-0.0026441793586798,-0.00165564673410445
-0.0183003098161776,0.0254128854144816,0.003728669113691,-0.00413091166637613
-0.0214951548830197,0.0146364111535637,0.00892665382790199,-0.00434655940148451
-0.0246047282883922,0.00819113150907615,0.00936834322236299,-0.00251528466355193
-0.0249117934684598,-0.00156604564063889,0.00643081041637798,-0.000370196496412517
-0.0215417231628177,-0.0119237450160226,0.00315925133341114,0.000763212182298786
-0.0162776911824741,-0.0115545208347054,0.0062758733245154,0.000791367478963793
-0.0163526144431618,-0.000218859002239166,0.0177877781451037,0.000607249272872866
-0.0228519927958755,0.0144891880390088,0.0285791909190543,0.000951300643998937
-0.028231972502757,0.0235799830469863,0.0281695184188527,0.00162142163323519
-0.0276362039084172,0.0186523475354767,0.0179890925561252,0.00187813330030561
-0.0216848762206023,0.0071474763183452,0.0076188148221196,0.00157597803078971
-0.0132070975539914,0.0106225491905755,0.00345833517896944,0.00102202764029469
-0.00753156161257567,0.0280990698074503,0.00420693352866983,0.000310455525549204
-0.00664120743189528,0.0309588349162951,0.00696774712650268,-0.000472688710042575
-0.00616927689504605,0.0121407618540125,0.0108515386323535,-0.000902293713381619
-0.0072312906572439,-0.00288216687268503,0.0100901336335176,-0.000628231433355683
-0.0127763948174992,-0.00043453722203806,0.00313259805557314,-0.000405793264194892
-0.0174897398676004,0.00816247032605256,-0.00275380563511805,-0.00135776825011091
-0.0181693003563042,0.0135018398205836,-0.00487729038608265,-0.00325810633781928
-0.0175216874143204,0.0152434357054977,-0.0053645977442509,-0.00468846619468743
-0.0156469409417613,0.0115523641555043,-0.00347384614176359,-0.00467075693113152
-0.0104875404173199,0.00584645784311159,9.44652414689873e-05,-0.00326248925980291
-0.00250393057748048,0.00410238276886948,-0.000276206913040535,-0.00113607300449135
0.00419892119226064,0.00190596767807587,-0.00289694209091043,0.000396890511745959
0.00740905182177355,-0.00375900287108981,-0.000167101106554909,0.00043697508230986
0.0141413367934054,-0.00931150142405817,0.00635038884281131,-0.000318889688390074
0.0235831489359104,-0.0144483934288883,0.00928875431753472,-0.00090873604318886
0.0203571951390272,-0.0152405354875374,0.00846342600256706,-0.00118803231034028
0.00739456390834636,-0.00822568097025683,0.0055985148392446,-0.00102122850509167
0.00073615133219828,-0.00329845144669981,0.00038201463634442,-0.000593873257705436
-0.000116677394345205,-0.00948026752916013,-0.00457069740772244,-0.000555701186464635
-0.00598566327303799,-0.0183163043689662,-0.00719502349615766,-0.000822905421628701
-0.0191186750512848,-0.0184389885702128,-0.00643725582476649,-0.000911914629200661
-0.0295486940204237,-0.0136156416515746,-0.00279841925961017,-0.000690700184060961
-0.0317211837701762,-0.00986900798036204,-0.00239783068108872,-0.000202430475025308
-0.0302923861697263,-0.00731373987170614,-0.006644130176946,7.17934357088365e-05
-0.025913059357805,-0.00527981427016554,-0.00956707407121222,-0.000160022004056476
-0.0183553641917927,-0.00402208458613548,-0.00877818402191436,-0.000326063945741426
-0.0125582876502935,-0.00795553380214954,-0.00957299559279633,-0.000213753390704345
-0.00913375692323481,-0.0174018313861724,-0.0145216397596654,-0.000114127708921342
-0.00578564078273451,-0.0269755415177457,-0.0172918181546534,-0.000143015294123717
-0.00321109947129223,-0.0305508577182696,-0.0147160528300358,-0.000234823084758561
-0.000962168614655957,-0.0224440883380778,-0.010358199353226,-0.000110941920741554
1.24418062883644e-05,-0.0130381212674131,-0.00902949592104819,-5.91579866633334e-05
-0.0012258902661582,-0.0186142992119417,-0.0134921252030122,-0.000522335114636308
-0.00209329729079119,-0.0379035280151255,-0.0194829997498563,-0.00104322353335991
-0.00235927947380296,-0.049250587112513,-0.0229966252935631,-0.00112479698344826
-0.00272604371983664,-0.0324011864648659,-0.0248578765073368,-0.00066024164299335
-0.000161267467692433,0.00892593487837096,-0.0231366458825534,0.000336220243710699
0.0124521161694332,0.0501232343319892,-0.0184652185714262,0.00149575608754237
0.0355229840953113,0.0538089814402007,-0.0133757344642625,0.00228461390678751
0.0524858900794405,0.0139500278906491,-0.0122064092195727,0.00232237249687452
0.049380939300353,-0.026086618193394,-0.0162471319064844,0.00149789466475919
0.033019423635508,-0.0439874184219906,-0.0169170006048268,0.000282785219833287
0.0179805119749047,-0.0554815627385782,-0.0113137619701741,-0.000146480162460579
0.0116602166482978,-0.0609531574498741,-0.0116357961020447,0.000681052930177218
0.0174767677146722,-0.0558303106121877,-0.0206907021098403,0.00121678367740842
0.0327122393912908,-0.0590447105260513,-0.0282327992450047,0.000173606252358322
0.0388844455126219,-0.0746352753532841,-0.0336442211605955,-0.00163068975644851
0.0292263982279014,-0.0713473509269191,-0.0359034187778823,-0.00302421091677499
0.0161180416057994,-0.0379514526215107,-0.0291472594411289,-0.00335870612850062
0.00164190606786672,-0.00211135413219232,-0.0210611884380723,-0.00226522487279801
-0.0160403046718616,0.0201221882794053,-0.0191697382486865,-0.00020287486944002
-0.0269716246826444,0.0377309168000247,-0.0179888002928185,0.00181995364519212
-0.021591032318425,0.0422798908730938,-0.0133153153187938,0.00326337904368361
-4.3822108053848e-05,0.0213436557916616,-0.00218139531519581,0.00420264904999715
0.0277866671927575,-0.00405407375438145,0.00484392859482212,0.00449311464367851
0.0455666905266852,-0.00858990044402096,-0.00504193953818373,0.00343846236709125
0.0509338306375956,0.00994864192226858,-0.0173038260950252,0.000906967333726267
0.0540522926310151,0.0306037023988168,-0.0124159255311904,-0.00196534653557389
0.0562871302014862,0.0312560830903101,0.00884299057635702,-0.00349397299768057
0.0546854396234239,0.0213381961459734,0.0319113454397035,-0.00266098763603251
0.0483596556823622,0.0208475241278101,0.044158781360968,0.000182027766111164
0.0377789692642629,0.0258378418751563,0.0420116814325424,0.00373985819820583
0.0245408025102078,0.029507257516053,0.028944967524388,0.00632356355163918
0.0122140316185219,0.0356835526549537,0.0151271125640229,0.00654325563515322
0.00567185372536088,0.0389683047341014,0.00733103499352553,0.00450324005843784
0.00208791527164147,0.0323193828287716,0.00440835479439922,0.0015233323311451
-0.00902953231284336,0.0219037097950583,0.00465092314447885,-0.000940477443078617
-0.0323867841493361,0.0231120629992567,0.00808369901481134,-0.00156617376724022
-0.0528155119040743,0.0401955641715576,0.00835302312091,-0.00022487192112228
-0.0519122527629673,0.0507247796934369,-0.000102201330297726,0.00127876889129003
-0.0314970744169062,0.0417313448019384,-0.0109984431494764,0.000948551710979601
-0.00588283220454068,0.0218820988026286,-0.015874515781178,-0.00140265991874425
0.0139542433416456,-0.00217204853928131,-0.011304790414996,-0.00396031569404217
0.0226488360705423,-0.0260631592048276,-0.00124530810484443,-0.00448501314221657
0.0254480312056676,-0.0411292562456689,0.00768788287472677,-0.00227473459454379
0.0301233458254359,-0.0265879538701394,0.0114991281583374,0.00132229239780216
0.0315641461141183,0.0213457166167731,0.0115659354452848,0.00415376141163792
0.0242406694964743,0.0650644481543717,0.0128334206426532,0.00492988746495207
0.0119594676523325,0.0782650410708826,0.0193858278894072,0.00382947749441054
-0.000650711916062318,0.0694675003116222,0.0312164845612818,0.00198990347806167
-0.0141509658309138,0.052194940563078,0.0413922236717531,0.000557155331881933
-0.0254552278184984,0.033474774679626,0.0424688771360967,6.87042574643373e-05
-0.026456387944697,0.0175788374787723,0.0374318232089853,0.000442149035993309
-0.020248827566859,0.00909320867033735,0.0282748339395973,0.00118501449603431
-0.0189394008832421,0.0070717970393054,0.0132074143863241,0.00148495811850678
-0.0232564683384473,0.00920694683668242,-0.00321134283274607,0.000820733146096591
-0.0262903244064127,0.0132365025114368,-0.014577544355415,-0.000679646360400689
-0.0312128766320595,0.0128738973914688,-0.018776991817641,-0.0024443443705339
-0.0457731327766131,0.00804055831930521,-0.0170073885754534,-0.00376809694535045
-0.0654419305620128,0.00625283048525569,-0.0118823148239336,-0.00431167720831109
-0.0764515652568928,0.0110182957431507,-0.00688920682792388,-0.00391870118297682
-0.0711759735623152,0.0197028301994986,0.000349860110699228,-0.00266529693701523
-0.0573435795366184,0.0251040425993411,0.0137859765084805,-0.00116708430985856
-0.0431535216682414,0.0248178482507739,0.025180825918939,1.95953410566975e-05
-0.0335059510749192,0.0217419493022909,0.0240882965636727,0.000531744722347217
-0.035586380820519,0.0138342492479632,0.0119365302035029,8.0777810281043e-05
-0.0441130669387469,0.00452616124615576,-0.00272355367814836,-0.000766233149598841
-0.0499369129302721,0.000368472452283733,-0.00967830408721223,-0.0011263451862899
-0.0503076960166019,-0.00237849169483215,-0.00835565739865263,-0.00072983793295591
-0.0441591177921155,-0.00775682048381261,-0.00770632019966448,0.000331063183320186
-0.0350023937281034,-0.0149726558415239,-0.0116446061100045,0.00140417816439005
-0.0272461470692252,-0.0217671819591839,-0.0165808854468128,0.00183854360255344
-0.0194152895423395,-0.0243896439422449,-0.0201410664170312,0.00168545832430358
-0.00406070924565445,-0.0209298597659906,-0.0208000727780414,0.000926879651430842
0.021917497506376,-0.016870612401046,-0.0150645841343068,-0.000881747937936502
0.0517544026928293,-0.0193786061551279,-0.000606465787378014,-0.00352953496427138
0.0741322225049123,-0.0269874336760853,0.0143904652939928,-0.00521543675700208
0.0743688146265433,-0.0359814366306998,0.0183187125847777,-0.00421851783153064
0.0522037660300681,-0.0451278433066298,0.0159942804237535,-0.00135909163232347
0.023128142299009,-0.0490963785034986,0.0168071235206079,0.00107942008350828
-0.00186273468258555,-0.0428180261102958,0.0188234680567867,0.00191085097265813
-0.0128725706508114,-0.0334720315315457,0.0172169828759486,0.00141135207575561
-0.00374373516701532,-0.0179554559660409,0.00767225792711749,0.000349505736830698
0.0150907582626107,0.0104573807013638,-0.00655221785374191,-0.00142351382060026
0.0235016603571241,0.0299056735157446,-0.00861302659871473,-0.00420942793253752
0.0119479281106853,0.0271261738405843,0.00931863944773563,-0.00616347726154175
-0.00581594955789515,0.0213783853029346,0.031312538697712,-0.00498798568688881
-0.0115697713140729,0.0268802755535865,0.0381094347146409,-0.00134868939778471
-0.00860021366916418,0.0335908919080388,0.0315685763558547,0.00168866703980633
-0.00892764983801275,0.0283046245964024,0.0232468228612072,0.00242633356665061
-0.00979287538798563,0.0107540857082443,0.0129917245926577,0.00210377814808815
-0.00332425935839212,-0.0106653921996643,0.000405259023418772,0.00202641289273912
0.00785252776992053,-0.027064585535129,-0.00542391617532297,0.00209368427526978
0.01869465603283,-0.0317641865501195,-0.00110552322510474,0.002258289142361
0.0270788776756316,-0.0278816359323001,0.00894864827858446,0.00268546702796924
0.0320829666899151,-0.0272196427777632,0.0154445240789232,0.00326156607782298
0.0357322317249461,-0.0330825767767399,0.0135201061434638,0.00352997461218436
0.0393585201341655,-0.0396962913164149,0.00846518171033213,0.00299065238282196
0.0408355706119935,-0.039864926295795,0.00404123450140057,0.00145364464280631
0.0383152491514669,-0.0317045666881418,-0.000357423213279147,-0.000564213524435872
0.0344440091330919,-0.0229286406867727,-0.00604189083494877,-0.00210120101359045
0.0335097947406651,-0.0182802481421757,-0.00905299587193511,-0.00280600770929305
0.0341192297853759,-0.0168230504497515,-0.0040792883668189,-0.00264829716732714
0.0361595135529068,-0.0217323882220856,0.00563085253316415,-0.00144914411079704
0.0402458471848519,-0.0318923099876932,0.0108866183198383,0.000491584236067217
0.038705111578777,-0.0375798175199015,0.00643962199223462,0.00216132268868364
0.0321800880416536,-0.0357776775156277,-0.00306551662473585,0.00247003059898591
0.0259187600977569,-0.0375515120170423,-0.0106209069193802,0.00121998913466756
0.0187568813943811,-0.0497897973706477,-0.0165199770785592,-0.000559199128923439
0.0201452185430753,-0.0635282142942641,-0.0220479387591159,-0.00196675850454902
0.0306345223041455,-0.0658829161062822,-0.0206742050619235,-0.00295217452424136
0.0339003145718466,-0.0546411289217003,-0.0112842615383256,-0.00307596444577632
0.0290082945824754,-0.0435695891861868,-0.00645562337428107,-0.002265484441324
0.0217829073359329,-0.0413476770531607,-0.0101628457477801,-0.00143189488464684
0.0113949146060997,-0.0390347066117808,-0.015818043602094,-0.000791352714948755
0.000273047002287597,-0.0260727499889277,-0.0178687079185686,-0.000271459925163879
-0.00647600242057132,-0.00376140036458564,-0.00935608085716743,-6.45540829720763e-05
-0.00844454254280654,0.0204415078140971,0.00593038193940956,0.000367643746985444
-0.00782362944838953,0.0351690376433512,0.0124040440695418,0.00160308097171022
-0.00604782572508859,0.0264809970240806,0.00605329007043906,0.00310556696071564
-0.00495321746472564,-0.000786403163107935,-0.00207578257647181,0.00400036094481356
-0.00253060688512664,-0.0288537371819478,-0.007905819099085,0.00414823539965649
0.000469482183258379,-0.0442101862831071,-0.0161809182733916,0.00367555382712769
-0.00177050151405601,-0.0418189165685797,-0.0232877517193444,0.00242510467550338
-0.015810468115437,-0.031700912119521,-0.0257564628525596,0.0007973745947233
-0.0365601349412458,-0.0257989642314161,-0.0366278050331826,-0.000832516402516775
-0.047786626065697,-0.0216517308106697,-0.0603406136332447,-0.00331551127733611
-0.0472469212466136,-0.0155262866619892,-0.0738107083221085,-0.00704929222698988
-0.0402676135571172,-0.00603391662306013,-0.0647829160810188,-0.0102911747886596
-0.0316751766247654,0.0180210433968576,-0.0428744190386139,-0.0105891205240876
-0.0276938755142412,0.0553761672664625,-0.0155911880777418,-0.00716977512530052
-0.0291538716503563,0.078615064513337,0.00498190449857253,-0.00161709203134829
-0.0342842284363748,0.0620057450990867,0.00621415012740615,0.00382173302905541
-0.0390527221167189,0.0111378783383469,-0.00666940266470578,0.00783389765802361
-0.0424766748131756,-0.0324531173503887,-0.0164433127400813,0.00966856306929582
-0.0451574788821955,-0.0233254810619282,-0.0167767180862436,0.00911541789222103
-0.0455471100745581,0.0194042228896759,-0.0108614818089369,0.0060362369683968
-0.0428424414478605,0.0291173661497742,-0.00131905330267124,0.000823083909321346
-0.0318758696027298,0.000364694772835406,0.00365513798053246,-0.00366776652577966
-0.0110976722496944,-0.018562082740663,0.00379313288372514,-0.00450023440323472
0.0119425635299854,-0.0146243517454899,0.00402212316536864,-0.00246552475431352
0.0203463840140881,-0.0133936504669744,0.00651392200675476,-0.000955492008363077
0.00654520333735778,-0.0191185489450257,0.0102275552595667,-0.00167290467103638
-0.00978385750750953,-0.0205783502396649,0.0149530226327394,-0.00318934836196394
-0.00874643384665914,-0.0269255993439291,0.021498085651769,-0.00376768891396242
0.00879950160600173,-0.0382439651684608,0.0195261002185599,-0.00302429143599527
0.0290435170358429,-0.029040087305906,0.00476194733578965,-0.00114585078650057
0.038628089011005,0.00361179654630665,-0.0111964540588165,0.00132101861118917
0.0304149213317631,0.0360836125867114,-0.0202788079415074,0.00343835726819254
0.00707045380879738,0.0635682762356275,-0.0227641360308363,0.00458160629046811
-0.0148894010299438,0.086860635685955,-0.0162120104220258,0.00448650486935084
-0.0255477012274706,0.0922742589361399,-0.00627594150086425,0.00315965905074501
-0.0260103947058055,0.0737937654701389,-0.000187039409040123,0.00155037459513148
-0.0160774636476113,0.0441405782376811,0.00605293582937814,0.000574759335656618
-0.00503646106249657,0.0194247595272308,0.0135365462112107,9.29311188310796e-05
-0.00266812599215219,0.00286435734996091,0.0189441977137956,-0.000202015810143347
-0.0108444865427872,-0.00855194645280243,0.0204172145676201,-0.000414660193976209
-0.0185730249787706,-0.0157409134504776,0.0187207046529062,-0.000601986735573499
-0.0077106497781088,-0.029944836698841,0.0152612830885734,-0.000921040700368862
0.0102517634130639,-0.0520077747658124,0.01262865887256,-0.00150917173511836
0.0170432196994087,-0.0576848568033643,0.0126868625280543,-0.00213546843078691
0.0155470685342953,-0.0478739844185449,0.0142838916119404,-0.00236198593518304
0.00887776354988082,-0.0396276980258419,0.0175743832918265,-0.00172074009624824
-0.00181778162884172,-0.0342090779179107,0.0266008658258106,-0.000192593554770922
-0.0162805188692668,-0.0244407590160269,0.0342284056951741,0.00213988399817519
-0.0259492781942044,0.01330909679478,0.00852681104845769,0.00429217698901045
-0.0202314969308226,0.0499185387374338,-0.0380139472704631,0.00259825946351267
-0.0106004234200562,0.0305262842232375,-0.0466901619246274,-0.00337542357389657
-0.0152406340343077,-0.00704506558064801,-0.0203594485484199,-0.00727055333623403
-0.0295570469485963,-0.00669648389770185,0.00324339024137441,-0.00522797572328575
-0.0396675535000219,0.0220615483541421,0.0185076899037955,-0.000443588841526401
-0.0471209377101507,0.0413489917441239,0.0308287785429565,0.00293762296506115
-0.0461561857829575,0.0336573174248772,0.0356812226794678,0.00420695774465976
-0.0296184314111174,0.0131692657133487,0.0268130186857889,0.00459891659584013
-0.0180430861856666,-0.0119309321123339,0.0104404923575135,0.00419105416560796
-0.0229021788154191,-0.034247861016069,4.85604232281778e-05,0.0025766685366167
-0.0263306920220979,-0.0284890932460181,-0.00158737277250856,0.000646555836952343
-0.013176149690702,0.00343647662432199,0.00145669621985471,-0.000615093514104055
0.00724533829861403,0.0278922989435843,0.0113009470888032,-0.00093341395044475
0.01586905744935,0.0349672727394379,0.0342453739223774,-0.000291992189875491
0.0126974273213767,0.0476994238009919,0.0671564892023766,0.00124726212110163
0.00852136451455758,0.0665053846477777,0.0834979937026179,0.00333944965023815
0.0144887603234232,0.0777080775261429,0.0638918556042394,0.00448203161191549
0.0401836982714802,0.0914492466412413,0.0273420709338829,0.00306665795515008
0.0702810323338899,0.1026516295438,-0.000530437063229153,-0.000232296920020049
0.0732078803243011,0.0922671754060486,-0.0122761705913231,-0.00339917145783631
0.0407853905174511,0.0700356954596269,-0.0114462153143378,-0.00518936322223097
-0.0106506140636929,0.051361421229171,-0.00364557326265629,-0.00515485962854184
-0.0565024280040626,0.0398689125777522,0.00117653042684299,-0.00343224452163633
-0.0742819715564804,0.0367432018026586,-0.00304079830541101,-0.00135157628441469
-0.0637609965543861,0.030695331945243,0.00513034576815282,-1.54249152844116e-05
-0.0454679080284334,0.0172343187476085,0.0298167220254976,0.00208509027022833
-0.0329770801189787,0.00754710597467783,0.0416438744413297,0.00572377596072624
-0.0277039739619582,0.0099924044541958,0.0359787910361255,0.00818756718033639
-0.026037388755751,0.0186097266601274,0.0259631648103158,0.00755482341472928
-0.0329886661903182,0.015055820588117,0.0161435692282024,0.00477887426708918
-0.0584204331471432,0.0029132211313608,0.00967965168019111,0.00150414085274151
-0.0823365045796843,0.00298833199441225,0.0100354398317145,-0.00101159773518462
-0.0798608340737577,0.00883434327439348,0.0216606126170028,-0.002120444369541
-0.0566537048797268,0.0114631429267728,0.0319710787002661,-0.00151943184163747
-0.0274096877890523,0.0264474956730836,0.0139972426483623,-0.000124750785521049
0.000438393348075342,0.0436089830421674,-0.017160697577893,-0.000548046713583055
0.0236673721806176,0.0373890178643263,-0.0246785524217605,-0.00312573442342797
0.0436685173603358,0.0194077220148174,-0.0150840108239943,-0.00486861589374852
0.0665792300938749,0.00892574699961721,-0.00835758671938593,-0.00393048351533497
0.0931181338205595,0.00802279689409958,0.00187134391244662,-0.00122332233777745
0.110800857802789,0.0145026697666863,0.0196829719448678,0.00137265497188656
0.112659630486479,0.0175578380982669,0.0330298365479569,0.0025522800695172
0.107228340838391,0.00347845620124374,0.0369085543303346,0.00233133284020266
0.100053269808074,-0.0170093994851418,0.0334871532402324,0.0015891498825458
0.0915263722682622,-0.0237276405873139,0.0217200133995779,0.00103885538999298
0.0746124952692682,-0.0218733080822179,0.00819951655393773,0.000553847798414708
0.0442156970976077,-0.0244622806206684,0.00480819450840609,-0.000378906780126817
0.0148228699377413,-0.0269404742268495,0.00432146575132582,-0.00132748057001947
-0.00230113799251773,-0.0227085073677255,-0.0104984048792521,-0.00161832181611379
-0.0105458812355197,-0.0213702843666762,-0.0302894749781271,-0.00190622756512579
-0.0173237812871611,-0.0285482940446156,-0.030517310431879,-0.00287602147197289
-0.0243512344511858,-0.0392086739434488,-0.0166571284344073,-0.00366268629727402
-0.0247287206925878,-0.0495004752605334,-0.0117672555205617,-0.00344168397046331
-0.0184503132547925,-0.0526769669099554,-0.0205478473581174,-0.00267667157050006
-0.0108390147440905,-0.0459747272958115,-0.0330735336680024,-0.00193764484174467
-0.00520227150509541,-0.0383995403322868,-0.0388121906740324,-0.00166552036540783
-0.00272410409051515,-0.0346993408228113,-0.0346686608629532,-0.00194840217295075
0.00108486487174545,-0.03451853158426,-0.0279943598118308,-0.00212588540035839
0.0077478928102737,-0.0394291795527805,-0.0231398181774825,-0.00202238596523245
0.0108100859876601,-0.0421487845359708,-0.0193961360953683,-0.00153576694206262
0.00463932959458535,-0.039749897168965,-0.0132604492995294,-0.000106610624861738
-0.00599231485425442,-0.024246129937794,-0.00138609177713593,0.00192068393420146
-0.0113910686563452,0.0185968015485228,0.014117391262912,0.00311512795719846
-0.00993624160372985,0.055697782231201,0.0242409652330606,0.00259188471989089
-0.0038832894018486,0.0550467845053589,0.0203122886536525,0.000962168786513964
0.00453580038190302,0.0381061309248051,0.0109804728959433,-0.000496027832623851
0.0101005767160675,0.0196641359582346,0.00416783072552482,-0.000869968224193177
0.0134919176839873,0.00138796897012923,-0.00618107974307631,-0.000438318277762442
0.020506186164328,-0.012746262750536,-0.0197014198415283,-0.000232572846934782
0.0242675705623403,-0.0268738916165923,-0.025928452381051,-0.000527690702795531
0.0155738601504643,-0.039003479760522,-0.0231024577814097,-0.000515503866122396
0.00421733365298518,-0.0384966023958318,-0.0207296414041858,0.000130131739191036
0.00439215215286597,-0.0287196058829154,-0.0229452542387822,0.000599825189212433
0.0189499009411818,-0.0240668192481731,-0.0251733631272654,0.000359653297388208
0.0358703027364099,-0.0300207947219114,-0.0254002369466053,-0.000357954738736175
0.0428448531602325,-0.039721578634177,-0.0236583747703799,-0.00105596695366058
0.0436076190319728,-0.0451972155894329,-0.018275238906689,-0.00119231689345543
0.0456452115267807,-0.0445538993899773,-0.00731035962685609,-0.000533762484349512
0.0451930343389097,-0.0315198773369921,0.00369638661093602,0.000516517405854326
0.0299116040980915,-0.0028985498176177,0.00768976829337849,0.00125027252627746
-0.000847226782649646,0.0330646910654943,0.0079308456105514,0.00142802186644504
-0.0302859578010878,0.065035578830592,0.015550451431072,0.00181925072919441
-0.0420641742616239,0.0825579716839824,0.0373888095333323,0.00333644711048602
-0.0432973377498424,0.0798132372640567,0.0549481127875636,0.00551143553931721
-0.0465951116447349,0.0618513560298606,0.0456481834850164,0.00684601688676562
-0.04022425196783,0.039838589806483,0.0216776044423073,0.00598043859485585
-0.0128083729008273,0.014911842779458,0.00223718898214769,0.00304282802219693
0.0216334550654281,-0.0148718692711345,-0.0184265059469927,-0.000199824811529553
0.0396982990320741,-0.0412147271561248,-0.0390455305307892,-0.00315177860460757
0.0373035220429589,-0.0603393798138954,-0.0419721241415418,-0.00561221517940833
0.027982782680991,-0.0696903662131203,-0.0393635413515878,-0.00588207949151891
0.0200098442174721,-0.0653928312717738,-0.049357249023623,-0.00439007923515504
0.0139302359357699,-0.0623872120423775,-0.0521669714201839,-0.00405831951497976
0.00929381090419333,-0.0724021732311652,-0.0386255983806901,-0.00544936531475348
0.00555548281446932,-0.0778409440958058,-0.0225864198472362,-0.0060476900716127
0.00296585548462715,-0.0603885570049091,-0.0121107470171621,-0.0042393256690291
0.0037968826825251,-0.0294788148126291,-0.00509345635436314,-0.00107502784861964
0.00637259377796271,-0.00636224169258541,0.00534491972123588,0.00200114961667677
0.0071418289514644,0.0011398396036824,0.0201274828059038,0.00469936708790164
0.00795228111798396,0.00547093603388508,0.0283832657428741,0.00697236461921583
0.00893280638212469,0.0220389847518021,0.0220176605044229,0.00790131072139855
0.00947015754348062,0.038364152065388,0.0138770616373713,0.00661778686989562
0.0140741343730837,0.033553610514818,0.0111742122961372,0.00419685387953106
0.0215736123363277,0.0302438028425132,0.00786527999547709,0.00253835910220831
0.0229481886592028,0.0578317644451648,0.00990483887776017,0.00192929752842442
0.0180371237601594,0.0869869794340727,0.0172650162087134,0.00144488164888697
0.012303725389882,0.0831824716587511,0.016140976174435,0.000446927885949951
0.0065993704199653,0.056262524181574,0.00637151946522187,-0.00123942070122894
0.000182162744344114,0.0234734873353663,-0.0044044357146522,-0.00329777008269023
-0.00652934268308107,-0.00882126407903008,-0.0154805465555497,-0.00512436787576494
-0.00917951642010062,-0.0253738942376346,-0.0305208947517257,-0.00638757709754726
-0.00744447774490606,-0.020957111170545,-0.0456864021672801,-0.00753606779859149
-0.00749179720420172,-0.0274234873436114,-0.0467030746927158,-0.00908845002376157
-0.0079967631730929,-0.0581916832787763,-0.0298041560626315,-0.00972151594648336
-0.00485937613181315,-0.0741289879004277,-0.00756409240424623,-0.00757600937994922
0.000381191282570621,-0.0548677169024869,0.0115086530230945,-0.00329224760004188
0.00708226623728233,-0.0371590488890696,0.0278268301600611,0.000910990276516029
0.0105728067917522,-0.0390045978699214,0.0294216147147216,0.00389849995528067
0.0014546761757451,-0.0311528260139686,0.00664963898587497,0.00552152724322647
-0.0145190432023998,-0.00304928746473547,-0.0166238001641454,0.00563223632684119
-0.0172730033020503,0.0141042397448572,-0.0144255543766309,0.00472118871097804
-0.00629263770876714,0.0141313517543168,0.00542878847640099,0.00427468045342262
-0.00373339498751844,0.02935910056061,0.0196775868758453,0.00510115715663197
-0.0107093028263383,0.0735256753284427,0.00309102061569023,0.00555818590969849
-0.00910445569505239,0.112574442388287,-0.0309790287963093,0.00189078030195428
-0.00499819938515392,0.0976484234719981,-0.0293210969691529,-0.00584833311034897
-0.0115826446101295,0.0552535840584275,0.00246541489703631,-0.0103269657122152
-0.0246741704014384,0.0394719913610598,0.020142156226029,-0.00706032527655317
-0.0366193448521636,0.0394947473755435,0.0168182046698014,-0.000711530703687914
-0.0339244801062383,0.024350388619363,0.00525413272740672,0.00329942234298148
-0.0102761936981351,-0.012489302108397,-0.00056604411939238,0.00461035802639623
0.0112977862605271,-0.0524991511877281,0.00973154657975372,0.00500309724894101
0.00435554076116988,-0.0590389510941527,0.0286346780078382,0.00534549316488026
-0.0229857318315982,-0.0210372098485721,0.0267424089916889,0.00502672209226608
-0.0488239280765371,0.0124169832425889,0.0043964667803617,0.00249802154141577
-0.0674817253967716,0.00267593302054106,-0.00649340117809243,-0.00199284948235762
-0.0712439086201453,-0.0223875916779507,-0.0100822358541662,-0.0051981982472108
-0.0541323799014059,-0.0401104449176921,-0.0212193660533726,-0.00509635193269209
-0.0336790449131893,-0.0553804171524507,-0.0313953550321662,-0.00324321634107342
-0.0233359806196772,-0.0619984329972086,-0.0329090866876835,-0.00189346191253383
-0.0149682385476422,-0.0566837045496399,-0.0343574962710743,-0.00171601453523438
-0.00747715519751037,-0.0432663715486337,-0.0427134136011263,-0.00219881341636965
-0.000978347198797899,-0.0322492835149984,-0.042126244494327,-0.00270919579080986
0.0144096664615515,-0.0327930132112142,-0.022451546473972,-0.00273785652230246
0.0388053394454364,-0.0332003935670564,-0.000503962075144117,-0.00197733461252848
0.0567277359724716,-0.0131961866284135,0.00681937449312837,-0.000413457471418362
0.0583031223431381,0.0356756714026521,0.00246615903604094,0.00149667528714253
0.0584674318409388,0.0787159137310025,-0.00184978034721798,0.00284537820333251
0.0699447017509728,0.0744565648763316,0.000426167919303744,0.00312811778489138
0.0733135567967418,0.0406361541687436,0.00990325423317373,0.00300631492884457
0.0483927708044011,0.00879599949492932,0.0253547083911651,0.00438774616841884
0.00307822728754195,0.00450456517472775,0.0270239050655989,0.008189456183151
-0.0479818611194435,0.0259344683780379,0.000491807179632014,0.0106850217469809
-0.092145244519888,0.0146964626643643,-0.0232697802442115,0.00782460912628993
-0.11211865002048,-0.0329899095185149,-0.0322598514620704,0.00225649573157363
-0.108052991985165,-0.0525170317961478,-0.0424594875238655,-0.00233777933870414
-0.095028141412589,-0.0180674054810185,-0.0423617465940727,-0.00623120628700798
-0.0771519842093068,0.0406194533283375,-0.0282139007386694,-0.00926948283618826
-0.059233756091105,0.0722940859607739,-0.00937871607373769,-0.0101972016831802
-0.037516809650825,0.0600756932437923,0.0166932367752785,-0.00846033853211512
-0.00421170845002429,0.0339797156880996,0.0400585477329684,-0.00388318297573341
0.0274174998530879,0.0203020725233213,0.0423608049625312,0.00294444392127196
0.0428506901316699,0.0241700920365978,0.0242976137792692,0.00962251234265918
0.0434368695966899,0.0211910729259778,-0.00152938756114578,0.0129026488439612
0.0441404040512269,0.0096616034906887,-0.030741622847755,0.0112482806759928
0.0520190743347953,0.0052574412207938,-0.0564249516138321,0.00500609920957989
0.0650583464843104,-0.0101427029216113,-0.0600743309505358,-0.00294218250103261
0.0925536222078658,-0.0238103679643186,-0.0427564634070875,-0.00769633814449292
0.131540420311167,-0.0330201554288139,-0.0304967055669463,-0.00752374396614807
0.148319453404409,-0.0431996328175714,-0.0371773310891932,-0.004465828799428
0.108373675513618,-0.0270653321623141,-0.0446158989363806,-0.00114639860284809
0.0242595891952269,-0.00170695759545138,-0.0366707853893443,0.000763379591190549
-0.0498705617079917,0.00532422580410148,-0.0263799138511422,0.00118531845844105
-0.085101918298444,0.00126135152691086,-0.0257541381225396,0.000796568079541798
-0.0928348046425548,-0.00678973765467014,-0.0257943215694709,0.000271921957458476
-0.0841598262490671,-0.00588397511264628,-0.0180176834746359,5.04779076981061e-05
-0.0678039081240831,0.0146371598429145,-0.00406862081051329,0.000398738131312318
-0.0536177108288377,0.0363566158269805,0.0166077136908589,0.00156092077730235
-0.0334935007118055,0.0409881367955889,0.0485782195803093,0.00326794573182685
-0.00213605841316702,0.0376746478853964,0.0916429074541113,0.00521389326544999
0.0294484377888239,0.0416138517575799,0.131856127412062,0.00772327118808185
0.0507292785256817,0.070211887698041,0.144492447769312,0.0101873268330879
0.0554671356356601,0.113866089888828,0.114647443284855,0.00987677004153264
0.0440700120192333,0.110632600311319,0.0592028331099778,0.00508467148207736
0.0221886261820038,0.0539248303693348,0.011885445674837,-0.00129364033370938
0.00786607046504792,0.00675638219235949,-0.0101898251972967,-0.00498261092908664
0.0148059646632686,-0.0106468039982354,-0.0184018778118263,-0.00571881790871185
0.0219413256261619,-0.0222179959838055,-0.0269542873245998,-0.00600103370457526
0.0147054458905753,-0.035010617711903,-0.0331122451755619,-0.00654176092959598
0.00310335956358353,-0.0368918970143503,-0.0350410547290584,-0.00641068953990356
-0.00781359327285274,-0.0297376064018978,-0.0339614913541307,-0.00580905127969753
-0.0149476462934617,-0.0322208586049286,-0.0275171682366162,-0.00549584129717154
-0.0216594770636098,-0.0552844232102647,-0.0178189365962385,-0.00527963667816284
-0.0315790977933738,-0.0780285942674961,-0.00287531093911439,-0.00440489567423524
-0.0292005586250307,-0.066428363067286,0.0216567419359977,-0.00246150137772812
-0.0104103038173171,-0.0317796672136861,0.0503562636060458,-0.000188221334002286
-0.00119933438722102,-0.0142677260350294,0.076270799290228,0.00151685780295672
-0.0225231140428286,-0.0122738911787229,0.0829667609946547,0.0030849247544498
-0.0592257572598479,-0.00153974847678693,0.062845640139061,0.00493569908110131
-0.0770752555988046,0.015481337423186,0.038777095333011,0.00632583669462204
-0.0636073816925089,0.0227833175220661,0.0259326807921167,0.00655321367943168
-0.025332168581234,0.0151567857465027,0.0221533324248934,0.00572047998299772
0.0194089935347476,0.000716840652194671,0.0295340758927482,0.0040966096589465
0.0417428919231567,-0.0115266704713668,0.0457813178228822,0.00211618924510954
0.0410196941069572,-0.00833289039837042,0.057999104095025,0.000679809749276329
0.0440903219131264,0.0235624906891807,0.0620802076384655,-0.000160914405048368
0.0484218143939996,0.0637538570946978,0.0617992617484828,-0.000873944179527814
0.0367333087237587,0.0722894285877163,0.0480703504273211,-0.00149152087773469
0.0182392435032848,0.0390031200141645,0.0188298345483036,-0.00269744492332435
0.00582262435863326,-0.00496596493558989,-0.00464992347183883,-0.00463805142319413
0.00962989895652665,-0.027866878664796,-0.0171078806859566,-0.00593605091171448
0.0289535656897108,-0.0321707786981905,-0.0324503404738714,-0.00658961838207029
0.0425927509704951,-0.0317093494922966,-0.045040312292038,-0.00809283547392145
0.034509560159903,-0.0298478563816276,-0.0461064051703297,-0.00978043591993639
0.0109412448503403,-0.0285496074524091,-0.0353478774798011,-0.00945321082007618
-0.0057547374704387,-0.0308574122472743,-0.0142069070244278,-0.0064301825226536
-0.00816393483396288,-0.0344474231718392,0.00169323009496233,-0.00165676347993773
-0.00962878693072683,-0.0321364528499399,0.000999159581989463,0.00338147635536205
-0.0163200897918577,-0.0190148553877165,-0.0105674743474918,0.00698308122953312
-0.0200883726605495,-0.0163923715206578,-0.0114868765368844,0.00729560673933661
-0.0115884171443371,-0.0504394069781803,0.0136905342360817,0.005004650071936
0.00531330793616437,-0.0790872154438442,0.0410549643295055,0.00372001765124355
0.0219495783896661,-0.0357536709521289,0.0565596382019995,0.00484238183598785
0.0397688847474266,0.048890264340367,0.0763806617871143,0.00672025318079012
0.0500757251658245,0.0860100454864619,0.0855526287522955,0.00825162774611873
0.0427290103404077,0.060838937204402,0.0577020662721149,0.00925050592581246
0.0341561939362502,0.022950958185267,0.00633393008977362,0.00853537004938821
0.0354753522477358,-0.00116802752551477,-0.0401930116119353,0.00450576963539039
0.0387410585017562,-0.0189738740197444,-0.0671766690626026,-0.00244208688662929
0.0404807885290075,-0.0341778905189648,-0.0720559426171428,-0.00958895105339226
0.0417583378066182,-0.0440220458588768,-0.062498809519709,-0.013839444842784
0.0412261157812084,-0.0504261219094756,-0.0526240297094994,-0.0141171661221185
0.0379277192543045,-0.0503387065493736,-0.0489686802861409,-0.0114143963093793
0.0372097804455336,-0.0386645656081444,-0.0445965561250264,-0.00721705684943963
0.0395829224226691,-0.0187084497235347,-0.0314969333337419,-0.00309645708307764
0.0365602153276823,0.00346909120080413,-0.00952795742947674,-0.000157216382658516
0.0283128859656524,0.0228408807370671,0.0164880949851585,0.00181903607113813
0.0200476266010948,0.0316700886200005,0.0365837804507589,0.00373444692011248
0.0106750179288656,0.0302961821492969,0.0362526691513433,0.0055871737543181
0.00429873645487877,0.0308977904366364,0.0216408296234637,0.00644522299451508
0.00590268068784415,0.0328990732468855,0.013584070222733,0.00624594079364589
0.00883962767558103,0.026236339737362,0.01575433092294,0.00608947135321582
0.00712330558664059,0.0174663907777089,0.02119512173391,0.00644811588113441
0.00089884543226184,0.0134365829260373,0.0225885786376313,0.0067826012672106
-0.00528790722836065,0.0184855005902806,0.00694740880458894,0.00663904758137333
-0.00796080427994014,0.032762823311712,-0.0198182286004966,0.00481637220977141
-0.00843932824606035,0.0373489931324233,-0.02653613822633,0.000476611779312346
-0.00917804951386407,0.0333837933219477,-0.00678262009288248,-0.00374628540677974
-0.0140479521773074,0.0360899645736215,0.020485108769784,-0.00504008127306076
-0.0224403794589359,0.0350944189759509,0.0413483397060646,-0.00386147087669656
-0.0262449036421744,0.0217445269617483,0.0467214476300164,-0.00194047942814704
-0.0234691517374495,0.0112130956686323,0.0360880146906306,-0.000900513005985103
-0.0211480794076555,0.00636685172965003,0.0184022135405577,-0.00178070691316456
-0.021460336075043,-0.0213468453666375,0.0067329903764919,-0.00385591445386411
-0.0175026408608884,-0.0673061756998481,0.00516633093919274,-0.00493548825560394
-0.00191968473635518,-0.0777398343565393,-0.000629320182151656,-0.00387941654337359
0.0188841295140306,-0.0421387175205557,-0.0156597490101281,-0.00198134225441437
0.0258132163372119,-0.00687005266799535,-0.0272330402233805,-0.00135069716450114
0.00680054086969927,0.00613728859192159,-0.0315717293883155,-0.00220956507281462
-0.0257187711838133,0.00810151375312035,-0.0329774264498329,-0.00292114777402015
-0.0407261950972254,0.00613017013396605,-0.0293960422743113,-0.00262708051466116
-0.0244795177355075,0.000442102015677931,-0.0226037132811876,-0.0016612227124392
0.00462751915651445,-0.00612424722171689,-0.0204530955161445,-0.000459346508093062
0.0218391732931712,-0.0151891186663054,-0.0252621995059917,0.000471590827953053
0.0191445487588106,-0.0353453710887966,-0.0357918668047408,0.000742028670511981
-0.00459662952859416,-0.0572487182505311,-0.0541780089417992,0.000468215970750626
-0.0501784635340303,-0.0621234833948843,-0.0728328351349685,-0.000253369297293833
-0.0913873264346584,-0.0506215593627924,-0.0674498200183982,-0.00141517218070122
-0.0983114241796669,-0.0295327885464571,-0.0312840948575421,-0.00169884238261748
-0.0778254149573673,0.00380545552836477,0.00369748654332133,0.000580076307203972
-0.0621573233125516,0.0465423434288817,0.00824007699476363,0.00438701914176604
-0.071263929035009,0.0829521620285148,-0.00808310466556617,0.00605706916007175
-0.082193398803523,0.0934937549849178,-0.0295965778359344,0.00337105426827498
-0.0705611001119344,0.0768634257055325,-0.0536946618823127,-0.0018356386546494
-0.0478199119552131,0.0602308041538771,-0.0684878932194047,-0.00637363454740803
-0.0216888845024587,0.0581962196328594,-0.0646208591302885,-0.00855662452313395
0.00463441178015978,0.0553926330822745,-0.0541345671102401,-0.0079378240137168
0.0142673478130541,0.0427582803070733,-0.0454400824355851,-0.00522359409187436
0.0109813595604892,0.0203273757687351,-0.0250741767542217,-0.00199403979193764
0.0131721324672661,0.00287112531734676,0.0224670588060005,0.0011936446482688
0.0203858794995768,-0.00889759640495769,0.0813418776527117,0.00487313128885898
0.0300620377966011,-0.0620788312390173,0.117399620257465,0.00920671478633687
0.0401760364880408,-0.122647628474485,0.108910754304868,0.0128600143336702
0.0437015632089961,-0.103091495252649,0.0706027890469133,0.0113399176372511
0.0545391986737999,-0.0413729158316849,0.0440601563784447,0.0024749536074817
0.0751274871318832,-0.00929316699226368,0.0336451185248257,-0.00750461144441835
0.0721407398461935,-0.00495064191654348,0.0223074605490433,-0.0112318085828867
0.0360829877629388,-0.00573250420559575,0.0118520698495197,-0.00823858163150899
-0.00787228219242578,6.58278083926975e-05,0.00924116634647335,-0.0030458391478224
-0.0355083029700749,0.0206071792399084,0.00444600177842516,0.000882826698820156
-0.0385658157491578,0.0568316105804816,-0.0193316983840594,0.0022463078009086
-0.0257489643007751,0.0829806431509555,-0.0398860845741096,0.000740981154726433
-0.000365337499760553,0.0790279808599964,-0.0320474710964334,-0.00103213101223051
0.0321904945360727,0.062150759716327,-0.0121622069008314,-0.000132127564368655
0.05371192009767,0.0483239561567053,0.0031838061761124,0.0026970328418798
0.0660797572643682,0.0373762464877825,0.0156498202438235,0.00530892719823229
0.0845133467761818,0.0290337348246256,0.0298615774724303,0.00687852577809531
0.103826241084261,0.0198744485691918,0.0447691543239662,0.00715452137049053
0.118457357055861,0.00131693439176799,0.0618667009956839,0.006263976957574
0.126474123390979,-0.0241579835515471,0.0757713325465492,0.00563821152870913
0.119223028923611,-0.0226149479633352,0.0648639091579239,0.00592345671030222
0.101751166989831,0.0119020256494549,0.044385109220632,0.00480721958739973
0.0869226616060585,0.0298628895975797,0.0510218546620194,0.00160129247530285
0.0731402465684321,0.0155869782760645,0.0699932872224299,-0.000256477503206413
0.0376687126805225,-0.000275852101084929,0.0736444542540307,0.000569868943934113
-0.0312615141096906,-0.00133662759000307,0.0676706368575855,0.00171026126187423
-0.0944158045489954,0.00168447200401178,0.0615017749565315,0.00177443977269315
-0.0996678581810609,-0.0031756933349201,0.0563195029979927,0.00110338818813928
-0.0547180825288094,-0.0105509483901459,0.0506997764626718,4.63704942774697e-05
-0.00558699995362374,-0.0129787092844687,0.0451167471245566,-0.00128135435920782
0.0302408014346937,-0.0130215119374489,0.0431038541093403,-0.00230569202774528
0.057479972241679,-0.0161266904508444,0.0382406143639801,-0.00243978041957454
0.0734447744927937,-0.0218118332684369,0.0248962138443608,-0.00210000144111204
0.0768325201790962,-0.0292803903073089,0.0100776140632205,-0.00206421596537195
0.0727247020047191,-0.0397348901204506,-0.00131316005358709,-0.00249745593446033
0.0639526655088412,-0.0428837990325745,-0.0105011071852407,-0.00297002264915417
0.05495338694272,-0.0372421370133652,-0.0198538098654825,-0.00295933393676734
0.0579315193144424,-0.0387949751348111,-0.0286592738044257,-0.00261789399224004
0.0662770965060785,-0.0518878834590276,-0.0354621582043999,-0.00226354453503712
0.0563394873403762,-0.0667102098610277,-0.0406808525732071,-0.00164764081138368
0.0302637850493618,-0.0771483495258847,-0.0433562217969301,-0.00085398279383707
0.00625932767137531,-0.0765300129655502,-0.0464382651379429,-0.000199800526215026
-0.0109940738634087,-0.0548905227933195,-0.0540938372498366,0.000351694020534613
-0.0268820342231047,-0.0288070045425095,-0.0609594772078842,0.000551261942706858
-0.0385244729112295,-0.0202929609160492,-0.0607176821917419,0.000144174225584492
-0.0357788666071187,-0.0162288431033444,-0.0575779492284484,-0.000292609857400216
-0.0147215771302417,-0.00681598245482776,-0.0556961658168913,-0.000268218119024503
0.011381707692584,-0.0123550129002082,-0.0581264865718621,-0.000246592293816113
0.0183949229096546,-0.0371723543466627,-0.0699078866095768,-0.00102676002846191
-0.00281942587697231,-0.047520538873149,-0.0816106881979667,-0.00288007267622595
-0.0406479265990833,-0.0354069595816719,-0.0830632095390024,-0.00514477464306709
-0.074881512300296,-0.0432587443881328,-0.0723237643774346,-0.0066045600924217
-0.0862777413314557,-0.0935167734178459,-0.054982814344662,-0.00640579637155989
-0.0727305096570413,-0.146322038036294,-0.049476708706976,-0.00453273271448158
-0.0558197059634998,-0.15147738676648,-0.0480853309677664,-0.00135915349640573
-0.0546552108460925,-0.102568289232975,-0.0425228738977277,0.00259613385943946
-0.0651012396874025,-0.0381566206548223,-0.041447545185264,0.00541667126698037
-0.0723579789153153,-0.0122993926932,-0.027206894437129,0.00530507902910065
-0.064589869493888,0.000683075398803953,-0.00533806960262781,0.00397917438941894
-0.0498833220595393,0.0555232665841807,0.00267545064446684,0.00282909169164569
-0.0444861689708006,0.0962026514175156,0.0122808860742231,0.000656173758463297
-0.0352187564717995,0.0628168567457979,0.0205284901504232,-0.00173576447138432
-0.0105466096996859,-0.0014858275432509,0.00359440969845977,-0.00287175156023105
0.00757640233393597,-0.0340674229978295,-0.0283778261773659,-0.00397458084789598
-6.51427232588597e-05,-0.032238642632227,-0.0452778592440649,-0.00580361614193279
-0.0115145360293493,-0.0313864793281434,-0.0426704840250184,-0.0061211564025703
0.000124470028876993,-0.0398592635724149,-0.0419383575513659,-0.00368765018085649
0.0273440021017097,-0.0381425677821734,-0.0459073280658935,-0.000754733241919102
0.0508836607417135,-0.0268420028391538,-0.0362151333430471,0.000826452563517364
0.043748042136355,-0.0238394220993077,-0.0158298261737942,0.0020509912364905
-0.00236460553700365,-0.0174828237458479,-0.0116345640650581,0.00449136808095298
-0.0428620548848063,0.0159034567910229,-0.0291380614400269,0.00649044867885488
-0.0452663710492166,0.0460893980656458,-0.031276976691897,0.00441593378516613
-0.0317143182489179,0.0506650016877401,0.00853568632138262,-6.31177124270571e-05
-0.0172566799242298,0.0604095353250622,0.0584830087393525,-0.000657612782243106
-0.00151225072123878,0.066785547849453,0.0829724433755328,0.00386777076483171
-0.00226460375321037,0.0574695759003545,0.0875308432513018,0.00853190729074354
-0.0218520097659621,0.0523922988796723,0.0875522966898501,0.00954513983205096
-0.0403280792285077,0.0486185610458767,0.0846605922860901,0.00749742317711131
-0.0465161357826391,0.0430431316163102,0.0694422763848332,0.00471535120669552
-0.0386147059629353,0.0440749325402201,0.0419375348434061,0.00192381301276056
-0.0268738254969784,0.0525488225130853,0.0199610129525612,-0.0014141099233796
-0.0262032667802122,0.0525506324805301,0.0166799483041802,-0.00423733187929518
-0.0286519787831159,0.0240514114942687,0.0265577960889291,-0.00449433815228669
-0.0171399262548942,-0.0290429579099122,0.0337169688487178,-0.00213913202200064
0.00366857046011317,-0.0695187867035321,0.0324021719382501,0.000691685539000659
0.0214622462983144,-0.0599380182458032,0.0273827101849747,0.00184733522481531
0.0237697653151166,-0.0103952819382153,0.0164460895230578,0.000898828203162675
0.000626021247382903,0.0314056982253944,0.0033169935519778,-0.00129244938354275
-0.0325905564838511,0.0302299428269673,0.00477300055772255,-0.00317330171527684
-0.0489792112059216,0.00754400816089664,0.0210412837355477,-0.00300414246515515
-0.0391975910318492,0.00536996083986982,0.0369303339880246,-0.000793752041150623
-0.0152622689485936,0.022544716932803,0.0454579836237714,0.00148699218181138
0.00148849642141159,0.0349760418372109,0.043357775456778,0.00195736059818404
0.0111197066469019,0.0338614450783192,0.0354542504007138,0.00062413947418884
0.0253706195798368,0.0271657933598986,0.0324402577616207,-0.000655293139565024
0.0374242338616074,0.0255101756598835,0.0310648548449448,-0.00059961236351579
0.0461233844885673,0.0250275683114833,0.0247835598063989,6.52537359895214e-05
0.0519330744776677,0.0125973598862012,0.0197541045799081,4.11195206925035e-05
0.0459824569491352,-0.00950979285026073,0.0175220432736994,-0.000871610122064937
0.0390168846605751,-0.0294802874463342,0.0114884946464685,-0.00198103122218217
0.0477364901816027,-0.0463003497037825,0.00513488063823348,-0.00302589239604302
0.0676044980666222,-0.0587345969801122,-0.00711459448456591,-0.00426609049245335
0.0706261816140289,-0.0703452633390787,-0.0356402298572683,-0.00619584872501529
0.0309813380583647,-0.0910125607625532,-0.0674209554381243,-0.0089040177056206
-0.0446063205229843,-0.101498308294389,-0.0909185216412472,-0.0106196257745946
-0.117564625293569,-0.0937095923962097,-0.103273886799736,-0.00976483771532958
-0.151602757632256,-0.103604408205534,-0.102556868498226,-0.00747865683288822
-0.147310216276997,-0.130879327484649,-0.0957305911077561,-0.00489387186836572
-0.122922043848505,-0.123111312110943,-0.0814063507258746,-0.00138052594845247
-0.0927950168670087,-0.0584455879012237,-0.0551176211596031,0.00297333913199508
-0.0638558841554633,0.0159106385861875,-0.0220896559902984,0.00644485921409086
-0.0302631856794193,0.0380618062527563,0.0161428692200127,0.00837520350719854
0.00756730750932402,0.0295669199642204,0.0521152610159267,0.0103182098996852
0.0369120411561514,0.0455873548797861,0.0655152416305926,0.0126294664668447
0.0545052952807086,0.0622674053836152,0.0503025162487209,0.0128759040032292
0.0641319224178156,0.04998409178136,0.0246314332994378,0.00927726780630271
0.0702351232838968,0.0452936106530883,0.00597686283416179,0.00286684559431513
0.0828257520025641,0.0725304403377633,-0.00505059424709711,-0.00398945364911512
0.092579484380945,0.0838529061395892,-0.00467668849925584,-0.00993800157429681
0.0655390377265525,0.0476527155131973,0.00655608854881584,-0.0140580053280448
-0.00222775316508723,0.018559949392292,0.00525832964516947,-0.0143608766757525
-0.0672438007157436,0.0254212644518194,-0.0106084458873826,-0.0108200887451203
-0.0896462030417201,0.0253226008487971,-0.018281560514848,-0.00634533574753563
-0.0698730381174821,-0.00622749331195527,-0.0163660532181656,-0.00283970741344015
-0.0407619001434986,-0.0455094636226133,-0.0200477396643778,1.59115138582792e-05
-0.03507676972634,-0.0586956785788487,-0.0288126632864221,0.00257616275729172
-0.0513606705072569,-0.0506853537390902,-0.0327788332194748,0.00416834110174054
-0.0643332807539152,-0.0310268894055447,-0.0339134339885266,0.00431143309185028
-0.0583668813088333,0.0138860304032011,-0.0356353372460454,0.00360127345337056
-0.0397024038284072,0.0495259635267499,-0.0281166014474382,0.00293823151796979
-0.0271603045826927,0.0223244247231877,-0.0133870099744653,0.00380720213502778
-0.0221397740827571,-0.0353781043941258,-0.00869085216060725,0.0075429716809759
-0.00983103806404749,-0.0517279704724936,-0.00515794047475425,0.01259546200528
0.0200213392223842,0.00983842281269098,-0.00350737205086318,0.015616189840728
0.0565394986353573,0.11131360006226,-0.0108408230669968,0.0133843242818549
0.062548706123368,0.145028771665828,-0.000180978496132321,0.00595921087485153
0.0207200298160261,0.10685672520446,0.0165361776532875,-0.000793882213934421
-0.0349054508666237,0.0781168768650833,0.0125997706192813,-0.00304136056064183
-0.0580060692126605,0.0641312111323926,0.00786620543914228,-0.00328061402737663
-0.0402343654937045,0.0534983685843613,0.00979153756599121,-0.00376164729479253
-0.00130905275780867,0.0558763968062944,0.0113420966476678,-0.00408319303053648
0.0359060877951819,0.0514764423323101,0.0253100962894897,-0.00347675959431656
0.0495211834456674,0.0221006516708536,0.0496936887815952,-0.00153017096836537
0.0384047389978722,-0.0161271764172909,0.0637943080048956,0.00169918711340276
0.0177754762116468,-0.0443858483104571,0.0600891677324656,0.00579847686964191
0.00102566633845834,-0.0519973080390317,0.0297734513053071,0.00886358682396475
-0.000533635315046476,-0.0340011598580878,-0.0188965867391199,0.00749847060317847
0.0109557106840302,-0.00158169942346947,-0.0514099741711479,0.00152998070351137
0.02126398131751,0.0422248251613105,-0.0489828278670127,-0.0046075843273371
0.0306785157622095,0.094435911954376,-0.0156590372547902,-0.00702513475996739
0.0492347553762502,0.117552952588154,0.0200309556275193,-0.00566069702044793
0.0674433482984533,0.0872103079477206,0.0292659168946803,-0.00223310134150395
0.0692924310447244,0.0337536978672045,0.0230876146244083,0.00187321062592643
0.0543148994830247,-0.00892903273635268,0.0202650552823255,0.0053224204853396
0.0344554905432695,-0.0262479059571806,0.00824337855866353,0.00659641766113805
0.0236837391650228,-0.0152580103698734,-0.0151902474928182,0.00472196089084382
0.0208211743599213,0.00865683441331587,-0.0365157438364983,0.000197696532521832
0.0149501066305413,0.00897518247849456,-0.0622752151937862,-0.00554315854405691
0.00575815717727607,-0.0357555704359853,-0.0879699480822006,-0.0108836055221247
0.0013766149560752,-0.0823482146360817,-0.0963386264166266,-0.0140936049999713
0.00130467183980979,-0.0964548628964472,-0.0837523602844766,-0.0140692879279111
-0.00610197351426714,-0.0862640215328476,-0.0650053730845717,-0.0110380660254399
-0.0289973473921745,-0.0642361976063192,-0.0653703624991235,-0.00653223184532604
-0.0607188505371969,-0.045515823607117,-0.0857055436861613,-0.0022015288443185
-0.0826642223272085,-0.0387376771235127,-0.0925858010824616,0.000987739879570857
-0.0778569563478291,-0.050081075512024,-0.0569353140027988,0.00296943333965904
-0.0397817247480604,-0.0600144684973945,0.00765766322662796,0.0056051843219486
0.0287802211565412,-0.0394597479960681,0.057999068546226,0.010009146691615
0.0958504854993103,-0.0318553630348751,0.0668701011733014,0.0134347644498111
0.100149548944177,-0.0437896946047903,0.0534967441377852,0.0129437735412863
0.0565892741263716,-0.00668801606623586,0.0469936674855807,0.00918965474376364
0.0422693739162733,0.0528421011809695,0.0431081925296505,0.00406367280347674
0.0429726962763873,0.0964774404748363,0.033334414643038,-0.00147951020914073
0.00756801865413224,0.136108247661466,0.0228260802670715,-0.00607457125919183
-0.0519307025356675,0.163923778324441,0.0150522995838736,-0.00842000308480823
-0.09654650111908,0.176681361197628,0.0100926133451171,-0.00894849708757187
-0.102162734057044,0.164406687879513,0.0140784180013206,-0.00864503828847387
-0.0800519944251962,0.103243904602706,0.0189415336508519,-0.00726563564418757
-0.0553461178328702,0.00152014973896708,0.0017025731378829,-0.00442550400353306
-0.0326423561533117,-0.0659592944713127,-0.0324438422708311,-0.00121807352340803
0.00290186509499733,-0.0521079340950349,-0.0544697318817124,0.000515825335737418
0.0478500299347886,-0.00767624338421125,-0.0480675339633315,0.000393610639834598
0.0682276392432405,0.0184199804489958,-0.0241685712038945,0.00014939201056415
0.0437320176330983,0.0236122037161997,-0.00519935095009391,0.00111827097022067
-0.00103694743256968,0.0121223229536188,-0.000484165804831509,0.00266933540261095
-0.0318386078863725,0.00399013329152113,-0.00152932757463497,0.00364183351465632
-0.0469353586536547,0.0267131182046763,0.00144669810930854,0.00337176508459368
-0.0518909047961552,0.0564129837001736,0.0125189666507971,0.00166565562359531
-0.0496555766085993,0.0562366921683009,0.0316049609126434,-0.000375199061900654
-0.0505847336584494,0.0455032281153363,0.0453509621124049,-0.000583309079942373
-0.0527440144941911,0.041387895875946,0.0424552718263963,0.00148105120928657
-0.0464639264995767,0.0257593213101328,0.0331356783636191,0.00383688355182134
-0.0330507747583896,-0.00647797561321257,0.0265575861615266,0.00531653118367063
-0.0196496310626943,-0.0269257081352895,0.0159306409343503,0.00634173451151717
-0.0101759226436222,-0.0283807643462567,0.00390794272405705,0.00678102350791535
0.000484035521798806,-0.0306989324587204,-0.0067306784432467,0.00629314592879035
0.0248180193635322,-0.0242198873700771,-0.0226690291144771,0.00435368067258337
0.0584094343182412,0.00633440746878886,-0.0353510170426683,0.000566361181065965
0.08410073297029,0.0432552745833706,-0.0299031159815934,-0.00405030970007033
0.0968670399940663,0.0444779718045844,-0.00482161875191131,-0.0076802213800839
0.0885395383375478,0.0116839498812408,0.0197392462579142,-0.00864542951661001
0.0524177028119928,-0.0108056585410594,0.0271827338763025,-0.00695756383553516
0.0118748455665319,-0.0173138718375658,0.0171169005203741,-0.00422185620677561
-0.0133786250632063,-0.0341165522408355,-0.00515857529157134,-0.00186346439514535
-0.034661307941424,-0.0512261061365988,-0.0253648622830309,-0.000543698288838194
-0.0533421387739119,-0.0440185591803059,-0.0329090354909507,-0.000132354238130401
-0.0537294645618748,-0.0227727148583892,-0.0329977016642313,0.00021875447943899
-0.0405497115496518,0.0132993952746379,-0.0265116532302276,0.000861551837246349
-0.0261135996677634,0.0549851088168218,-0.00506482462186742,0.00114790452253475
-0.0169832058476383,0.0628071119755829,0.0167793120926622,0.00109424349578964
-0.00830546618395039,0.0335781591386106,0.0132342214827144,0.00112525026436306
0.016336813943473,0.000393549423814199,-0.0133450609276034,0.000107979641570228
0.0447420841063975,-0.0207061220256859,-0.0276213799000345,-0.00289057746659719
0.0542843801033525,-0.0461649146361235,-0.00834033774035603,-0.00560832997024182
0.042536102301663,-0.0747065044197943,0.0125027781292684,-0.00510172661030299
0.0257746902759464,-0.0818981301628849,0.00092913764280238,-0.00207028783499492
0.0352089508790504,-0.0745615687297042,-0.0320119304052923,0.00017433302157094
0.0627382826011092,-0.075768915569646,-0.0654375883180143,-0.000503975444312345
0.0618642745898855,-0.0797249561928007,-0.0911417588285192,-0.00369040871484628
0.0284114732336707,-0.0743663384017947,-0.108344818414426,-0.00709429502796512
-4.63152120250138e-05,-0.0593561490273336,-0.114293074370362,-0.00836787083217667
-0.00698882333174653,-0.031232960491905,-0.102475496213466,-0.00663576911848511
-0.0119173434407703,-0.00336781945085809,-0.0884579378567282,-0.00289216737673192
-0.0226426765931852,-0.0104307417044538,-0.0850467483230888,0.000332261923616936
-0.0179560851347332,-0.0633029580457574,-0.0725503280826411,0.00155784803163059
0.00909299848007558,-0.103383285571761,-0.0359917652891118,0.00182165113964952
0.0309340054734816,-0.0708755288676388,0.0132889467406502,0.00221800514667339
0.021301199015084,-0.0132472988566494,0.0492337700124515,0.00302899928914472
-0.0127075617311403,-0.00906861047836188,0.0602781448055783,0.00478061931238894
-0.0408841296420782,-0.0469080263058219,0.0703880960338641,0.00728384939325978
-0.041418816109968,-0.0576557600000851,0.0898271074309437,0.00885889738500735
-0.0242364719724492,-0.0350109893295781,0.0891664380042609,0.00682403046113894
-0.00283268548292363,-0.0423740715677217,0.053368653612368,0.000437273262197262
0.0250624293172565,-0.0791554038940393,-0.00144633786403356,-0.00660557786532849
0.0440241273432781,-0.0901266522913695,-0.0474028854385853,-0.0105117006257076
0.0352721304042858,-0.0678039179566299,-0.0693102638340457,-0.0105241744258302
0.0131747869742671,-0.0403273382597298,-0.0700784782156433,-0.00738825321128233
-0.00259365001357735,-0.0213454889517519,-0.0520168948873767,-0.00280197421797704
-0.00729025220848085,-0.00716537047792246,-0.0263035321574966,0.0016449838070481
-0.0057253775171811,0.0121511445039859,-0.0112544591572908,0.00539694152146561
-0.00709862765728723,0.0435457631896926,-0.0121718614303873,0.00803755320500451
-0.0140863206361963,0.0816381271798433,-0.00820248746872521,0.00853147611122403
-0.0260015238649703,0.114163826283715,0.0203699720357951,0.00700577268039043
-0.0395502310872968,0.121135318091169,0.0518021949739619,0.00615285593132257
-0.0474473947450167,0.0970116404575931,0.0579266361238814,0.00755836719733055
-0.0488926215051828,0.0496472034131537,0.0551659239521903,0.00963976750752554
-0.0536367631053308,-0.0120999902314284,0.0717116830871833,0.0110268103002833
-0.0630340938672379,-0.0663397743524112,0.0921989312464371,0.0111615170130967
-0.0596364883220847,-0.0761943440968999,0.0711781350390405,0.008608372573354
-0.0343291115649716,-0.0412086598571425,0.0165491968846332,0.00190711710608761
0.00230998370954461,-0.0154657464810131,-0.00303375894232998,-0.00704910328700187
0.0251598083578508,-0.00253184648667282,0.0207273908449081,-0.0128017659665142
0.0165920377980529,0.02532124383726,0.0349470153218436,-0.0128367320980683
-0.00680671597982255,0.0531613006023324,0.031090990845789,-0.00944090030029495
-0.0196529429399326,0.065708773964025,0.0445526155111522,-0.00492546389521635
-0.0159092263506838,0.0596223983766515,0.0735311370999954,0.000109868909710702
0.000225135078555011,0.0249598146178448,0.0748365694240454,0.00516707309347965
0.0207818214102824,-0.0279266565596081,0.0469918714403574,0.0086410940959988
0.0282713254151849,-0.0546503469243712,0.0245871411189863,0.00897139379911641
0.0148373724886476,-0.0442402387612688,0.0176606546523024,0.00639427669692425
-0.00530507356929369,-0.0349753581774514,0.0159969908326234,0.00255261375646571
-0.0172742459048142,-0.0319057058219748,0.010236757773927,-0.000706479159604015
-0.0171942783129656,-0.00213758145211204,0.000990661657263655,-0.0023426656614979
-0.0102090255952841,0.0454095825321236,0.00145121776864559,-0.00272773681427627
-0.00427552927891286,0.0662979899682608,0.0130608050442121,-0.00209411153592903
-0.0043660030343383,0.0571745809522152,0.0219875488470138,-1.65560290245571e-05
-0.0110506799299778,0.0517713575643668,0.0271500457545972,0.00261801099647286
-0.0205920800549385,0.0538530947529434,0.029635181276558,0.00406795014973175
-0.026253500735191,0.0432043298785411,0.0275523172063897,0.00359501662804181
-0.0300720591266184,0.016931855928093,0.0238718016270294,0.0017478729543496
-0.0482727387440857,-0.0148335699500527,0.0241289403963875,-0.000642918962364435
-0.0681188647859472,-0.034515979926531,0.031855107923071,-0.00300535134103359
-0.0508927702885729,-0.0359141370643209,0.044245725014726,-0.00452439783232993
-0.0122398590937698,-0.0171393425026799,0.0530328949569053,-0.00426385063202991
-0.00480380220983775,0.0346383395742951,0.0385826776207125,-0.00273985193724092
-0.0299313143791747,0.0794864276489153,0.00795759028614295,-0.00264566549407938
-0.0480150262340004,0.060400977575325,-0.00879799134909202,-0.00485807756312434
-0.0474968213707197,0.00844666200111915,-0.0216187244441064,-0.00693267416051174
-0.0501962741320444,-0.0306748370980941,-0.0481124998006171,-0.00756152931779305
-0.0569629146162856,-0.059066585488889,-0.0699935937600372,-0.00759992190759323
-0.0367082052441608,-0.068521304036619,-0.0677152105231341,-0.00756023710368322
0.0199288701354032,-0.0540600503223094,-0.0467122204547875,-0.00688308152928626
0.0675695347650458,-0.0461428869873224,-0.030341120770895,-0.00521863106061602
0.0556200372344298,-0.0689123846365453,-0.0326139803123285,-0.0031799475834263
0.00416031672755734,-0.11164609404841,-0.0451269671803939,-0.00141674571024641
-0.0199727664225224,-0.139997123745216,-0.050457502261644,0.000102656235103911
-0.00471489478872929,-0.115552058955431,-0.0423579105716845,0.00143795006507818
0.00858904661902009,-0.041648076813118,-0.0288929997646873,0.00172977138865875
0.0120892102095,0.0356826015377138,-0.0128961536760152,0.000591257399627772
0.027426473771083,0.0873899453748951,0.0214166196258509,-0.000335786809034555
0.0421229871936661,0.11440363606462,0.081372223334179,0.00124587362628007
0.0107958435252348,0.121748188478143,0.130408574537508,0.00617566818032516
-0.0643891118059106,0.0967089903364488,0.12682996504289,0.0121268247874085
-0.12083622002301,0.0306707251009019,0.0879684281027437,0.0152216384799487
-0.114538367852387,-0.0354277927237368,0.063992405346077,0.0145650327316173
-0.047746032981686,-0.0299919141877274,0.0436508933465705,0.0105768209836819
0.0427019018489687,0.0223631047528356,0.0030166084229592,0.000995258926925695
0.0986460534626981,0.0158112215694982,-0.0296407192174371,-0.0124260912225534
0.0993696876914712,-0.0510730054094817,-0.0458834588250892,-0.0210850444126145
0.0869928002489139,-0.102366166363975,-0.0549311568159556,-0.0204456231047176
0.0802177522731872,-0.0978030561568742,-0.0569548136605649,-0.0139812374902331
0.0558526482271718,-0.0578162415459859,-0.0538502268909069,-0.0070318232311544
0.0164186144500373,-0.0310355238468297,-0.040610595505412,-0.00239480927879649
-0.00942239311469989,-0.0275079887258461,-0.025087799568588,0.000248676125699178
-0.0174069069179335,-0.0315732166075859,-0.0218404381060309,0.00205190609641431
-0.0255868671858532,-0.0258999601240866,-0.0216432866394236,0.00280385468921235
-0.0294599739458524,-0.0197921225093707,-0.00874303658466872,0.00235497986793069
-0.0206624974961002,-0.0452397274762831,0.0128427004270047,0.00275974466237753
-0.00415433815069984,-0.0736610084939684,0.0235946849731163,0.00573388894253064
0.0126634975139692,-0.0644327751868735,0.0149339071429495,0.00979907203639496
0.0179081749683043,-0.030821176189799,-0.00152699170144852,0.0121742971199131
0.0335997915106594,0.00470605488280793,-0.00417119159698931,0.0117921127515181
0.0788991707826207,0.0200385894748695,0.00305139741895577,0.0097639479335702
0.104535616145828,0.0387708630321021,0.00193773473533426,0.00680958347274381
0.0863636239948428,0.0841050072683621,0.010952734609524,0.00261050560109579
0.0819767717273967,0.0950282062081812,0.0454028855767275,-0.00159683309738599
0.120336266580005,0.037160503299749,0.0716859849476236,-0.00332651462970592
0.136523386882161,-0.0492664067088472,0.0514061458812323,-0.00209200332758275
0.0852896785475528,-0.109230514046599,-0.0029013411850779,-0.000374784777848028
0.0145821956048998,-0.0841259157948734,-0.0428045411890805,-0.000552423199611016
-0.0199667226887706,0.0214766579190976,-0.0339963338452967,-0.0032923549232892
-0.00143571869739664,0.086954899677181,0.00818291720351705,-0.00786849960183807
0.0511621960652372,0.0302735811144209,0.037397990790423,-0.0112833975877013
0.0814569712008885,-0.0743213610805863,0.0419384354889531,-0.010449689284632
0.0541737668899654,-0.112710928852919,0.0264233204028443,-0.00551173379861658
0.00451458408114076,-0.0563825597595472,-0.00501441203873595,-0.000221000603819152
0.00257130492262606,0.00782501751288874,-0.0168156613617773,0.00162129040183673
0.051696428614273,-0.00500406677559939,0.00554429137035713,0.0012573267878774
0.0839259412330658,-0.036595315874393,0.031518362780521,0.00313541663396048
0.090687479282854,-0.0098869406890063,0.0362231902534424,0.00808812539985869
0.107596933862859,0.0262156402876341,0.0327307100227482,0.0123805237098702
0.110465164042323,0.0232269077540743,0.0422757446127855,0.0138974059235489
0.0864373808780851,0.0230560269694607,0.0404351575994343,0.0142756250443234
0.0705578827890646,0.0612846074296515,0.00151095534030062,0.013492647593536
0.0567534411189035,0.117971831419903,-0.0355418655634373,0.00882013631879074
0.0284247646473066,0.154540910319848,-0.0177497020684217,0.000923261176506901
0.0038549803631658,0.145158546894855,0.0353539931288028,-0.004928876718481
-0.0140072991586358,0.0888943890096668,0.0594475064337162,-0.00651144459102338
-0.0454625915005085,0.0270313141159369,0.0372759156271797,-0.0075627293486735
