-0.00505669850434904,-0.00124010243188149,0.00250522841601906,0.000126902247839761
-0.0144821204637628,-0.00691672091194148,0.00508083877677262,-0.000316026654183783
-0.0224665348850844,-0.0114982070428198,0.0056026258070737,-2.56893788281756e-05
-0.0264528243226819,-0.020344911400493,0.00601867266129468,0.00104721593988435
-0.0236373759280599,-0.0362462649167105,0.00564354134376608,0.00225153070067854
-0.0206455285641308,-0.0537193200020078,0.00567291323100508,0.00271980232608158
-0.0211767444965708,-0.0623769555114495,0.00701363734576215,0.00234237476152941
-0.0173622127329307,-0.0582339318714921,0.0084803369084431,0.0015779182476899
-0.0087806065317023,-0.0495887578959665,0.00860815545591638,0.000703786506665375
-0.0058998916066818,-0.044954229589064,0.00650779237504431,-0.00030950627575699
-0.00917563213857157,-0.0438448444853852,0.00413740284537734,-0.00130864668135932
-0.0107274985622425,-0.0371094751855618,0.00199478863488261,-0.00171604134471001
-0.00606183634820436,-0.0214232963573098,-0.00179165812979073,-0.00133142478943653
0.00525641851372326,-0.00728783988016082,-0.00672680065562196,-0.000642671555133264
0.0173070884224212,-0.000214770178971604,-0.0114595768934448,-0.000337811986379995
0.0235280462508224,0.00598150332526475,-0.014839125230938,-0.000795609912380339
0.0235767244295828,0.0197262915501205,-0.015855455754509,-0.0017085521992968
0.020429624530403,0.0407431394291625,-0.0164074121367248,-0.002771499148298
0.0153753579581197,0.0561490177827682,-0.017046383634942,-0.00433048318858826
0.011875102535598,0.0614234161184291,-0.0139256428368943,-0.00586573656157218
0.0118551266726959,0.0564940358022058,-0.00722127180996329,-0.0058608769387214
0.0107524706895283,0.0332858778306113,-0.000606960376723186,-0.00425948250123574
0.00671296568158628,-0.00207037973460472,0.0053332221213396,-0.00226712458621672
-0.00100922253705703,-0.0268579746455954,0.00902015122161714,-0.000677724849341185
-0.0183060908514065,-0.0282511042725942,0.00947620220225319,-9.38015039103363e-05
-0.0373870378138176,-0.015125259852941,0.0106885625769941,0.000185374068060131
-0.0421248904269599,-0.00566846683159495,0.0128266836916136,0.00221811359049432
-0.0366386096149496,-0.0125604088940623,0.0127602792434087,0.0062917537763107
-0.0334370738174609,-0.0355227382419502,0.0102351419960724,0.0102697389966978
-0.031825777020274,-0.0551863333088325,0.00757714971673289,0.0120542433681674
-0.0193971147808155,-0.0482266983181329,0.00788172264115792,0.0113023813624377
0.000109235920122699,-0.0178214484495317,0.00853807622415923,0.00828590073644806
0.0073344827782227,0.0139939095556286,0.00659554868418382,0.00307470422414098
-0.000304210560908798,0.0316237675875265,0.00384808795933202,-0.00298314117421511
-0.00971880799352352,0.0336117916447691,0.000777951516362667,-0.00719713837684784
-0.0123615094663865,0.0293639361110239,-0.00294707608880525,-0.00797971851603449
-0.00944832263287006,0.0212951520279341,-0.00547037317739018,-0.00635009352410619
0.00382694678746959,0.00258252899798834,-0.00578298385706614,-0.00396482937409012
0.0293176109731741,-0.0234932516266765,-0.00604172358605347,-0.00189201891902597
0.0535991060841304,-0.0373719331758587,-0.0054156571705163,-0.00137441308520493
0.0631370433448411,-0.0319496690733759,-0.00228604343974572,-0.00210389760601819
0.0466835851067607,-0.0307907141317166,-0.000995479131281604,-0.00203792137123031
0.0110630846752432,-0.0505750301302161,-0.00195380422949166,-0.000769001230672609
-0.0155032836325666,-0.0733998249478502,-0.000825037670367749,0.000423967227947784
-0.0215308909836198,-0.0746667485857045,-2.86143083767874e-05,0.00110842538247547
-0.0215220320016083,-0.054828270011542,-0.00196992027801338,0.00177958400905144
-0.0243813733822615,-0.0289495673467714,-0.00228516072931743,0.00307445236343291
-0.0243696594195265,-0.00699457888834715,0.000602546139002277,0.00554624753817711
-0.0200797526149517,0.00430445494965592,0.00158668153621938,0.00855827153260092
-0.0168139304470689,0.00443607628828209,-0.00290618728974305,0.0105187433531168
-0.0162246725323474,0.00306870633315105,-0.010241332803355,0.0103817073422887
-0.0135930029026852,0.00959921054612108,-0.0163771742453883,0.00730330982959169
-0.00547155418685341,0.0179604395019788,-0.0191717827877286,0.00151989832043948
0.00528636855806432,0.010679353097975,-0.0189018948725499,-0.00382980870627088
0.0158966272746004,-0.0136665633225509,-0.018722920075107,-0.00548447103452204
0.025532466804467,-0.0361855491905298,-0.0209226328093346,-0.00387211126332474
0.0350799874921802,-0.0407343184355556,-0.0218272185444084,-0.00144301559928239
0.0476789639307558,-0.0337086438249735,-0.0182691546677069,0.000458989985480968
0.057761128740043,-0.0327339517582399,-0.0129099670778356,0.00124117924067883
0.0551430956915469,-0.03899466335224,-0.00773363963301215,0.000461456774825669
0.0420338724204616,-0.0419834808461483,-0.0052695440598867,-0.00159462485967402
0.0282868888270622,-0.0368666826246633,-0.00592259952945985,-0.00387521475902604
0.0195186163231094,-0.0251711436291885,-0.00395721404358236,-0.00455166552303929
0.0130015887672974,-0.0135284434398387,0.00193376541495789,-0.00142347858160222
0.00406521770380885,-0.00973831194656602,0.00541378569304294,0.00529343699865491
-0.00266343270787229,-0.0162002707766339,0.00451447734935546,0.011456432500423
-0.00172238268067957,-0.0238047313157163,0.00281975806910362,0.0130786602236374
0.00347466148013153,-0.020616411404426,-0.000604554064845051,0.0100802845266791
0.00921995997835074,-0.0123347602955913,-0.00637362673469147,0.00471704186897741
0.0143753964326861,-0.00794778086093513,-0.0106522882395699,-0.00102838173138275
0.0153819155352574,-0.00474410538529024,-0.0116040477429863,-0.0051756179947455
0.00946372033370563,-0.0025283757164447,-0.0097807134741147,-0.00586540556686741
0.00437663874010515,-0.00346627645398593,-0.00715019346550916,-0.00416562583519521
0.00919809219834723,-0.0016333943837691,-0.00590813311119955,-0.00388582621159962
0.015517027592612,0.00699801052569094,-0.00689168671055747,-0.0069386853250662
0.0138421861728674,0.0138077499417253,-0.00947522700412436,-0.0113039978636369
0.0096124174796525,0.0117018764806041,-0.00962376405884637,-0.0137153926320311
0.00544597682093496,0.00250967014058793,-0.0042911345475649,-0.0124081904012345
-0.00268089952346118,-0.0077249513536671,0.00189362725232746,-0.00766842580189736
-0.00885108413695371,-0.010365603409768,0.00225745854578815,-0.00129337345912831
-0.00460482019113091,-0.00440054579742746,-0.000390347968043603,0.00430136202696439
0.00314086187797581,0.00294059507021924,-0.000345014033433008,0.00739098908157237
0.00572758012674173,0.00958955414728591,0.0012045047150608,0.00811431005666183
0.00746145476387126,0.0171459326169315,0.00342257130957176,0.00762553645147401
0.0126269853646036,0.0229667675554198,0.00581263319247363,0.00663049977283948
0.0148107781769594,0.024753319334787,0.00588851735343938,0.00529908875609719
0.0102873057249704,0.0251869239038401,0.00499181298317007,0.00332451021970075
0.00243263578254065,0.0256706055552148,0.00451974539411253,0.000599978222719304
-0.00867869125061494,0.0194099776533526,0.00251012483666111,-0.00182902907655513
-0.0203521269303649,0.00885922286981075,-0.000264995954805551,-0.00304543812322793
-0.0251591837165845,0.00965625458700494,-0.00189230377006438,-0.00404953543970343
-0.0208529997048363,0.0246693611739108,-0.00496842280336381,-0.0065968415826294
-0.0131362397744145,0.041901029667269,-0.00942637832422172,-0.0100551390562318
-0.00939098370761814,0.0440134753755795,-0.0111386858691801,-0.0109627400551543
-0.0130825294100443,0.022747288223268,-0.0113195539528782,-0.00754288400080187
-0.0231228080570462,-0.00447017584086006,-0.0107052225043318,-0.00259792494385675
-0.0321918954728521,-0.00838384620864983,-0.00657022218603158,0.000578500599307029
-0.0335886229299431,0.0146651126276974,3.87359011069129e-05,0.00211767674043668
-0.0286883176871461,0.0353613910397218,0.00490428715374149,0.00304614790629757
-0.0204127699170636,0.0344323950223877,0.00551481010212619,0.00332814185582557
-0.00681473369206915,0.0216309898206103,0.00349367906243976,0.00368568924422014
0.00905045767286094,0.00683235240074438,0.00258507328902888,0.00496028794996395
0.0113771930943808,-0.0111228263972347,0.00397205449347339,0.00625168904417114
-0.00257318909109182,-0.029647696644875,0.00389001097359924,0.00586915390513084
-0.0153131599029761,-0.0396623300767631,0.000683738572056201,0.00309073923695602
-0.0197936176453007,-0.0352915385007569,-0.00194531779785981,-0.000802414602594207
-0.0234020279681146,-0.0218444406795475,-0.00288876605641028,-0.00322641810884651
-0.0303032921696056,-0.00776356095640093,-0.00300436949979667,-0.00301747487489705
-0.0386828977924956,0.00502960412464029,-0.00218415419494769,-0.00128160215844279
-0.0421414145653514,0.0148428556452421,-0.00225083450964,0.000483452358876797
-0.0324961279343487,0.0219008238752489,-0.00380316545924357,0.00138476487380955
-0.00909712243171269,0.0322019254890969,-0.00488371963064833,0.00119066378454761
0.0172302537005416,0.0478993420420333,-0.00435206819149433,0.000471383797895429
0.030634652085688,0.0577157915986876,-0.00332661698947987,-5.52070928980673e-05
0.0291289062679755,0.0482101941634984,-0.00282647015796714,-0.000167676702543793
0.0247809632416518,0.0270377275249611,-0.00376025165922888,-5.22959538376147e-05
0.0273387366789593,0.0148289924300433,-0.00646458222209801,-0.000128433314469438
0.0341480106559132,0.0181540375870098,-0.00834716309386168,-0.00059992468860509
0.0296084014721585,0.0225488767982786,-0.00790261189823037,-0.00109878261616337
0.0123198985323156,0.0106294564034829,-0.00544647997072404,-0.00117873330389993
-0.00388971765220532,-0.00981539160401647,-0.000973136826129084,-0.000559840781274276
-0.0135421110965741,-0.0167027345808455,0.00382463011198692,0.000722279456936239
-0.0137306666415925,-0.00833983529689014,0.0069236481416528,0.00216457304639605
-0.00598159321490106,0.00160114660861093,0.00907343870564342,0.00323480365783424
-0.00354538153951921,0.00549472530704858,0.01134613300393,0.00365905942230494
-0.012224897253009,0.00510026792219906,0.0123428313166178,0.0033988761025779
-0.0209593937357545,-0.00158907778566812,0.0107454801305104,0.00256184789504358
-0.0203830789481186,-0.0168742621341895,0.00995082615472696,0.00137114755156984
-0.010043486301531,-0.0237912819535357,0.0120779242069129,7.00238535465952e-05
0.00661295172431936,-0.0135117236549701,0.0128700964628755,-0.00108294330611749
0.022156965944138,-0.00283891142235049,0.00946986107447993,-0.00188682536225873
0.0300998345542311,-0.000440474878818365,0.00495240951858686,-0.00235296344672891
0.0280764152704926,-0.00222971047341575,0.00273887486771506,-0.00265711799211315
0.019290223132702,-0.00568131122218805,0.00218810689439756,-0.00283694976154518
0.0118089798726586,-0.0101233847200585,0.00292920084450152,-0.00273398865551177
0.00965631783414948,-0.0119758729143366,0.0067988393985284,-0.0022364228090504
0.0126101678789352,-0.00400111046130576,0.0108704182644978,-0.00128418357816892
0.01969690834086,0.0103729828871309,0.00979843064069493,-0.000232714725480633
0.022925176560705,0.02034837165747,0.00613082522580804,-0.000108111756806846
0.0161044075375932,0.0262757785819057,0.00405553995736117,-0.00136529214086831
0.00810732438238624,0.0304995618335887,0.00290844993440901,-0.00286257973795422
0.00723673754396009,0.0292919596885607,0.00349548042742387,-0.00314371502220543
0.00790907290320824,0.0221477522986771,0.00760742621323171,-0.00199666225978039
0.00464236365595106,0.012885044712099,0.0130630139733274,-0.00031776621895217
0.000992695780931784,0.00510435783153326,0.0170423765404356,0.00115430331559157
-0.00288350781511145,0.000285394809905123,0.018664302583512,0.00223818935591782
-0.00833607221370566,0.000427632144481042,0.0178796744064644,0.00262334622838407
-0.0119145017844269,0.00289164597360499,0.0162976187620514,0.0022276606355484
-0.0130337572910623,-0.000440106067839459,0.0153148578542091,0.00125939946907674
-0.0122406096904497,-0.0105492117322543,0.0152400816084536,-0.000137628113124281
-0.00778916420219525,-0.0216146649120897,0.01590909255833,-0.00148368871092312
-0.00147317193777047,-0.0261305181470311,0.0155264440973222,-0.00229653129650144
0.00272929557228706,-0.0215697623616474,0.0139779738154091,-0.00240576075403726
0.00455508829819881,-0.0164863587418458,0.0133372374307886,-0.00201675702681214
0.00359463453754619,-0.0151742532676801,0.0128783499586182,-0.00175636808699432
0.000162573357409681,-0.0140440917543038,0.0112072094237652,-0.00184303876632434
-0.00255501430739613,-0.00835392245993562,0.0101990775694684,-0.00188879209159624
-0.00454465883393538,0.00415529577147088,0.0100699976344073,-0.0016221259460528
-0.00596683035509303,0.0168265555650678,0.0103060957032063,-0.0010784239025432
-0.00256672775710767,0.0242116693747258,0.0121788105681987,-0.00035969012269658
0.00579176429634267,0.0296198206333715,0.0139943988046181,0.000577554965808152
0.0117543568949114,0.03603181350713,0.012654115798444,0.00153884705190572
0.00970950425231271,0.0424375915837855,0.00858897888471911,0.00201566987272403
0.00152568402611796,0.0545734584853849,0.0071183362341213,0.00179147664254976
-0.0056677103082656,0.0700930060414214,0.00969253489215867,0.00115824744304696
-0.00928269029269768,0.0717885753314913,0.013790143407287,0.000735064211680693
-0.0147945032412599,0.0608594712957402,0.0193762790857938,0.000874382470202715
-0.0199209231740476,0.0524435593441255,0.0234642654213095,0.00123014698614014
-0.0186990467815438,0.0508403603113245,0.0239621652097693,0.00121282478255801
-0.0167132525049696,0.0487334559448874,0.023093477818931,0.00076834536146605
-0.0216413771299516,0.0350175298777615,0.0213435627259438,0.000394995087930294
-0.0336663463178892,0.00939371047141128,0.0177000384220439,0.000268178861174628
-0.04482135096791,-0.0179981116307573,0.0141714402622499,2.91201093496724e-05
-0.0487487778712901,-0.0460769086439512,0.013156957317136,-0.000418139083230969
-0.0437191803744261,-0.0836429363058285,0.0119728488783168,-0.000740769386657162
-0.0348346469928023,-0.120930719109526,0.00971995215144657,-0.000861944601539469
-0.0330401874217207,-0.127055132697679,0.0111169427203351,-0.00103634052541497
-0.0355002256723086,-0.099839228555597,0.0157645192110889,-0.00111550370772262
-0.035804589626557,-0.0694185046512197,0.0173073971692372,-0.000675939021893834
-0.0321985679341908,-0.0444861664853463,0.0158699851706654,0.000245341382889064
-0.0197152623827544,-0.0185045083703942,0.0159622208164731,0.00115698663357214
-0.000863565652002928,0.00851337736132177,0.0163216660959853,0.00155476548822703
0.0133515523440233,0.0409835553099136,0.0155511326201872,0.00134670780090266
0.0144767743284347,0.06999782446763,0.0171210860388348,0.00113130183418809
0.00830314278887766,0.0788439638255893,0.0203809624744169,0.00151689536214497
0.00877472706476803,0.0744326858805408,0.0221118985900204,0.00199367493623811
0.0171427182978959,0.0698168922130737,0.0220509635395219,0.00170844339274298
0.0219097940605937,0.0644937729683326,0.020367081740094,0.000617288944081867
0.0165137356027819,0.054836680071694,0.0196609950425846,-0.000668754183127255
0.00683336963250687,0.0401695408730444,0.0212159065003832,-0.00126474608699112
-0.0016019080190281,0.0233085969310267,0.0203489150389033,-0.000957448256070086
-0.0108315684043043,0.00457669975140571,0.0149448869480188,-0.000292799197587833
-0.0219739993640019,-0.032166156181994,0.00865168388781661,0.000280648514773583
-0.0308591224324284,-0.0918677062232955,0.00378315414200786,0.000432138255401554
-0.0363013284790321,-0.138856368408333,-0.000484171275605769,0.000132774200086133
-0.0444791286792551,-0.141280017018689,-0.00498133051365975,-0.000401247198753083
-0.0540586453292062,-0.10667724730608,-0.0077364497511879,-0.000949554713816132
-0.0538931785149049,-0.056998907653051,-0.00799947259191224,-0.00128848794810819
-0.0406822514596407,-0.00682414260407391,-0.00750017651723134,-0.00123992690107303
-0.0227688204752587,0.0277018833244568,-0.0071218875623633,-0.000581520418064572
-0.00754747846085607,0.0329107400626876,-0.00612712864068448,0.000463493962948925
0.000274201559609805,0.018026865111583,-0.0034954536965701,0.00136986489752413
-0.000879600975926381,-0.00131571823115126,-0.00107463592776822,0.00201888473968266
-0.00284760438475178,-0.0217357917038198,-4.74877705222386e-05,0.00212789534404972
-0.00288618060565015,-0.0390223126183576,0.000149769514193921,0.000590070353564772
-0.0128674625258387,-0.047574465018927,-0.00136530261001918,-0.00282886284773397
-0.0340456328017573,-0.0463017733260131,-0.00369268917268622,-0.00580000672058298
-0.0452967247539689,-0.0429764447276766,-0.00477230051118121,-0.00544151149571115
-0.0331523142256743,-0.0422484401587229,-0.00520956493301439,-0.00143301787627191
-0.00744366326858602,-0.0338664232244374,-0.00638507445944058,0.00378480447105844
0.0137674903661183,-0.0221092559145318,-0.00970157569347227,0.0074737251223401
0.0228645490403753,-0.019326198036033,-0.0142068085132488,0.00832148213734264
0.0256895101083284,-0.013888153213201,-0.0179981567092111,0.00586271927868004
0.0249302207416473,0.000789836310521271,-0.0224011209744262,0.000536503040697283
0.0179928370915059,0.0144295402902487,-0.0263447778113666,-0.00526873693535803
0.00728461986152156,0.0351948598630516,-0.0259065866739777,-0.00840452908535076
0.00112449624773768,0.0619275324582086,-0.0217245024567956,-0.0075963399655911
0.000469160499485161,0.0638095925530112,-0.0182973838286609,-0.00412993283880491
-0.00336775316577906,0.034862253623639,-0.0173867899560286,-8.41768558621546e-05
-0.00729108735037819,0.00313342896723739,-0.0158313328693856,0.0032958357416764
-0.00392081980997641,-0.00772884701658388,-0.0136181919305327,0.00532054127850295
-0.0011173528810359,0.0029297160715553,-0.0161950508154443,0.00567343539532322
-0.00168834401469666,0.014587447662446,-0.0229761779055097,0.00469855749347639
0.00286489132295148,0.00251096501918825,-0.0299965670246331,0.00256312332055692
0.00635493986337104,-0.0400968083642472,-0.0365672007048862,-0.000533512525800767
-0.00324641003662501,-0.0843693592440707,-0.0407695406491283,-0.003344310097286
-0.0154990048502532,-0.0852861682131499,-0.0399277625372121,-0.00476745558800219
-0.0107004001701931,-0.0443545065814721,-0.0345245624849851,-0.00481903013145643
0.0127990270417696,-0.00966924236863616,-0.0271258060256521,-0.00353261903158331
0.0461060772442707,-0.0017664879682487,-0.02087463337501,-0.000698319634364961
0.0813416303936856,-0.00136095728008087,-0.0184102428567887,0.00296213092748935
0.104112866883333,0.00558904172713226,-0.0190306556583888,0.00566586415873983
0.102612211766089,0.0154923530994809,-0.021225519058638,0.00568221556330869
0.0820445592521918,0.0208173127437407,-0.0247988545035143,0.00252088498168666
0.0563496713979478,0.0202423117017693,-0.0304042983550689,-0.00245669574797161
0.0368260917300009,0.0213542014703007,-0.0361200627033864,-0.00656008907158832
0.0283640157272212,0.0288413994494204,-0.0366138227247066,-0.00687786795397229
0.027195276776036,0.0339176100372199,-0.0318169052758276,-0.00265764731448912
0.026924142342526,0.0285840208382938,-0.0257682498106849,0.00340752558632787
0.0227616316442334,0.0190409268807296,-0.0205078379014925,0.00837994188278593
0.0108213741644046,0.0205142704971473,-0.0172626634193647,0.0115439336750765
-0.00480752082719259,0.0282464481920536,-0.0157863356720953,0.0125247115062209
-0.0134829457213512,0.0197392162241543,-0.0157714014480571,0.0102380882274026
-0.00977502321487105,-0.000922118970173944,-0.0165111795072597,0.00457115611668442
0.00291666263177407,-0.0142741570697866,-0.0162811183066225,-0.00263619033615661
0.0169264175171954,-0.0142662459617958,-0.0149504544034437,-0.00934444077562209
0.0293867327450352,-0.00201463749101873,-0.0138372854702413,-0.0142101624902475
0.0446227105625557,0.0151591557329794,-0.0148837711345074,-0.0152455203479392
0.0593255223591208,0.0268151652462942,-0.0175806903077509,-0.0115770334385306
0.0639351498664543,0.0267898938764973,-0.0209538974628241,-0.00567340127631565
0.0598737680777449,0.0204192191293916,-0.025223978199499,-0.000523907098955409
0.0519494768216813,0.016835623014456,-0.0290472702557245,0.00350008483848287
0.0449834624705757,0.0095649597125628,-0.0305730861369295,0.00692703641363428
0.0445249331074729,-0.00613742454065667,-0.0282956498531474,0.00838064747196591
0.0403937384523329,-0.0283145116358859,-0.0233958303441968,0.00609665528608561
0.0208086030736025,-0.0634493902316231,-0.0193164260288839,0.00187986787510038
-0.0101184813914523,-0.101732086431403,-0.0178475927883133,4.98275343660407e-05
-0.0375998656081639,-0.10894404567711,-0.0184072875633596,0.00118086768067576
-0.048239425010493,-0.0735501976848376,-0.0183886574006682,0.0013248567081773
-0.0470032771843536,-0.0231892082119646,-0.0155580121468239,-0.0012298850405496
-0.0418900289006741,0.0161371688908522,-0.0114467048317203,-0.00379081787926378
-0.0318202020019102,0.039858434080072,-0.00774548757457011,-0.00414153488747883
-0.020211578400838,0.0499388401433297,-0.00313750975867595,-0.00311576408959467
-0.0157888662195513,0.0467160508141518,0.00225164612883269,-0.00206585814363877
-0.0210919856995661,0.0330288723876739,0.00483434898370697,-0.00100469457088154
-0.0293887867874771,0.0158563838502879,0.0024211209250602,-7.35223751563048e-05
-0.034044224752803,0.000321594673296163,-0.00300538456702324,1.26176517752546e-05
-0.0321043027831594,-0.012360475297234,-0.00730533942648589,-0.000988443952248123
-0.0219387034578257,-0.0203078538350697,-0.00695605479222597,-0.00235426908963382
-0.0108354683045901,-0.0228912438425749,-0.00454974603543919,-0.0031342165294164
-0.00912747472552773,-0.0225014646580301,-0.00383427185177352,-0.00294370424166994
-0.00882215810383935,-0.0214257173783753,-0.0047797934257794,-0.00160774364910902
0.000298332064661431,-0.0192959512156274,-0.00832235731211896,0.000923974692995048
0.0106418244874614,-0.0166738322145123,-0.0116928119337981,0.00447465249479861
0.0138880700265032,-0.0171343813380586,-0.0115285866383752,0.00818218357679424
0.00973664286799179,-0.019254630283016,-0.0107346395342278,0.0104741662212697
-0.00195879455289775,-0.0207493061524105,-0.0100429060777834,0.00968268892464812
-0.0155108948947155,-0.0202360445876208,-0.00794250809836536,0.00498317732955366
-0.0214088502833466,-0.0122561042089102,-0.00739999625861734,-0.00236364415131655
-0.0229568745541116,0.00175966538968107,-0.00780881206327972,-0.00920117929255573
-0.0267557686334295,0.014150457732921,-0.00399920624702046,-0.0121889386445406
-0.0305415387977967,0.0217183582120933,0.00207664274329209,-0.0104066373111523
-0.0291951904644125,0.0259850485679162,0.00521087044009221,-0.00577272684206716
-0.0239280357395656,0.0284506884872888,0.00551305671927736,-0.000805492309258997
-0.0224911806748107,0.0286914002792061,0.00493745359172708,0.00286242671638598
-0.0219055580896647,0.0238689277660245,0.00452576125685256,0.00486299311751499
-0.0129683623607761,0.0131348007238887,0.00450400531823256,0.00540092184891864
0.000856046813262746,-0.00110126844502111,0.00360508581838526,0.00473677869845408
0.0117587981568747,-0.0245030428833758,0.00112824503378312,0.00350056975605383
0.0166418188460788,-0.0556643046007538,-0.00104947731821131,0.00220530220172564
0.0134758684488453,-0.0710254977585111,-0.00118285439570982,0.00112471947870396
0.00886642627550313,-0.0514327735134673,0.000934140380358328,0.000731661681217379
0.013731901389351,-0.00934503074045755,0.00396235232065908,0.00119716569861904
0.023783805035833,0.0220587718838572,0.00445992361373819,0.00212751896377622
0.0293576089730825,0.0300021234009316,0.00383951716051479,0.00290476433817843
0.0290621158819292,0.0250966160069905,0.00589856538233868,0.00278005749289493
0.0237987402522206,0.0183379560068859,0.00757935978922827,0.00159165729803424
0.017541345962939,0.0160366194941359,0.00719596212058915,0.000476177051346858
0.0141564461958094,0.011785834589723,0.00670999312511391,0.000546913049903534
0.00884710292716281,0.00294326625707953,0.00556113986814737,0.00177321650517722
-0.00101851938262082,0.00340198249972684,0.00524259105275513,0.00360728712435288
-0.00905669540524807,0.015092355514731,0.00728962471076945,0.00493855092815742
-0.013967027556836,0.0232465670432602,0.00952579986482585,0.00444309469579075
-0.0177165049588777,0.0183690858512665,0.00852691445914096,0.00170777456183437
-0.020860406124097,0.000953442895176345,0.00539293468471698,-0.00296856647500349
-0.0253116293717659,-0.0173442862467683,0.00598851029303082,-0.00773955497901868
-0.0258011160903344,-0.0241003602995089,0.00910760295267293,-0.00946747511749339
-0.0133349357797585,-0.0218493541764935,0.00928021230583554,-0.00771203161402882
0.00809705044402228,-0.018556058938524,0.00790793188807415,-0.00526266853061035
0.0238459323248156,-0.0172044439979704,0.00774635450293333,-0.00415734995621269
0.0334984330215839,-0.0166623273432263,0.00793527558957981,-0.00366261869254415
0.043087904036432,-0.0148902501034539,0.00879126610766313,-0.00189588282029577
0.0455322729535927,-0.0122824788737301,0.0117726782954548,0.00189350256297237
0.0394616218183655,-0.012222423289009,0.0152945091468316,0.00648302925084044
0.030846724361062,-0.0160197086226756,0.0165224674387278,0.00936773886541557
0.0194625833198845,-0.0193202927749321,0.0148116528326575,0.00895733577785456
0.00419851688460258,-0.018510046155191,0.0123501373354155,0.00591842309213868
-0.013719384530768,-0.010615888636484,0.0124713749038234,0.00212337906582874
-0.0313785945838296,0.00348282014547379,0.015022359706043,-0.0010470107348068
-0.0438558143280891,0.0145519095298533,0.0178077660126508,-0.00308827214849257
-0.0501685434897464,0.0219000918491123,0.019583431112431,-0.00380904609143491
-0.0529631156130983,0.0254761310317296,0.02024740581411,-0.00352553764095368
-0.0463526891700324,0.0176000698537658,0.0215891782511649,-0.00320898493938498
-0.0279873854942875,0.00524462600761656,0.0228967479398648,-0.00342856311317497
-0.0123059850972909,-0.000204783948169657,0.0216185829716419,-0.0038017583711476
-0.00694594138391743,5.76544385254736e-05,0.0193685563787827,-0.00356058030056278
-0.00639028685257512,-0.00136931496276656,0.0187291564770684,-0.00254145838480291
-0.00420448620280956,-0.00786693021900883,0.0196478875384846,-0.00158791495992284
0.0053437211093777,-0.0124028942076792,0.0198939368734004,-0.0014026512073259
0.0160838505586073,-0.0110886993527435,0.0188010734705731,-0.00215511706895042
0.0161128300296439,-0.00821775800760968,0.0184004150843615,-0.00349302542877719
0.0111932999351426,-0.00401457563580631,0.0188662471207858,-0.00421079309489887
0.0134692140647609,0.00172341824873504,0.0197319191939215,-0.00330842145909631
0.0173506837243713,0.0043344095074731,0.0205389171081437,-0.000848957796036168
0.0100323782133833,0.00168146613064419,0.0209280264010954,0.00180497015466996
-0.00613329693525707,-0.000944697384206141,0.0211869796970813,0.00310293743769647
-0.0191864754450395,0.00114557215967262,0.0222912642333406,0.00321587890380376
-0.0244573260659092,0.00572669137081754,0.0248731898368703,0.00318613523638181
-0.0246537208337664,0.0108123919660601,0.0270413760013808,0.00330915931096321
-0.0229670965440752,0.0186790294052118,0.0284030551103788,0.0032690456034552
-0.0192227296955308,0.031185144539483,0.0307754721280488,0.00265531033237998
-0.0137697865045101,0.0427576848909678,0.0332652350388819,0.00154944873056366
-0.0114713351966202,0.0443667205166019,0.0334546867822606,0.000534386583345188
-0.0116855241793875,0.0363846633300444,0.0328631569468992,1.94162399884887e-05
-0.00692083553009346,0.0257186282730307,0.0318191213921889,8.82295321862729e-05
0.00492228271967069,0.0180758801442757,0.0269546679028145,0.000327051980701986
0.0202420948373296,0.0145889187424879,0.0201233967296617,2.17323380634947e-05
0.031701968163221,0.0129691642944967,0.0165145722226741,-0.00076856745910761
0.0289904390201032,0.0136131006551898,0.016763458504746,-0.00135938445027609
0.0130739280990075,0.014673569556195,0.0182920830992043,-0.00154130904265581
-0.00359697116199673,0.00837603337107733,0.019652679550252,-0.00133429419388974
-0.0142720389866282,-0.00869816292934896,0.0212342260447987,-0.000695649254804192
-0.0198874315157658,-0.0275320734698474,0.0230803217618915,3.27600364373549e-05
-0.0219755795119507,-0.0390463689558684,0.0249599194655972,0.000392574244885237
-0.022459232767886,-0.0421154972219507,0.0267371060466415,0.000560461547813411
-0.0232557671743127,-0.0365369877248904,0.0280264785092778,0.000634111994162519
-0.0225940231549917,-0.0243442269036438,0.0282613994084166,0.000355202453632325
-0.0180526877051464,-0.00767197324035762,0.0277634690668879,9.21476548715566e-05
-0.0125406333057701,0.0143372737109203,0.0270143031606515,0.000129461600739453
-0.0065917644664964,0.0403385717173059,0.0262014509817007,0.000358760050516869
0.00463699895001893,0.065991140238088,0.0267580481983387,0.000694400564819616
0.0158667316833311,0.0807719390010347,0.0277855950588417,0.00120794778597901
0.0180493381681132,0.0772382311082586,0.0281536432781115,0.00196073305309888
0.0166721384539409,0.0662097176240397,0.0264632631688585,0.00249063578796188
0.0181222997695332,0.0562055652002698,0.0226006555795528,0.00233363509812838
0.0160726077124183,0.0418954998292973,0.0201556653431493,0.00160419964527748
0.00895110157821982,0.0262597789827458,0.0196394096656005,0.000905137302949571
0.00202968369114684,0.0133678105976,0.0196882823524517,0.000570915699409745
-0.00513255142301874,-0.00998326848533584,0.0199125789897286,0.000463725604525975
-0.0117699327877155,-0.0440125314533631,0.0198825966409747,0.000577577020795393
-0.011366418483699,-0.0601674121922166,0.0187023655829575,0.000895802334746354
-0.000190290225454047,-0.0460361654704215,0.0168732990676071,0.000893488767116174
0.0105639236815945,-0.0232789599541573,0.0138394540559616,5.2964468655804e-05
0.00169567428684276,-0.0138657287777397,0.00818104197089782,-0.00131425093643971
-0.0235231294798428,-0.0196101417912731,0.00321784255027761,-0.00285466436942998
-0.0404192117671534,-0.0267121796514704,0.0012137814675633,-0.00473334555684687
-0.0368509336439336,-0.0200762271008433,0.00220253116840711,-0.00620848859559821
-0.0158666512968589,0.00263769345400722,0.00563266107421512,-0.00585169777818609
0.0112471375629296,0.0292543421292095,0.00718222087619142,-0.00377653555467739
0.0255705291837121,0.0484861664318459,0.00704604333566394,-0.0012848067333255
0.0204521486810198,0.0589341403403065,0.00901657914467113,0.000601450132086797
0.00575534662925917,0.0575166498838841,0.0107002617848139,0.00140945336697176
-0.00582991969368872,0.0472528868320241,0.0111307795236686,0.00148142504048958
-0.00538684321615102,0.0383236615878769,0.0127663082557222,0.001619146412136
0.0046264305108316,0.0275987069195426,0.0141330911478084,0.00212349706325023
0.0138212701878406,0.011282177006336,0.012306660886712,0.00258536822288485
0.017786614684505,-0.00676270234260431,0.00833331644290468,0.00231871710248294
0.0193089093662836,-0.0238297339579907,0.00608726856851465,0.000866309289003399
0.0162421404832523,-0.0357485240687438,0.00426320708938544,-0.00160215486273161
-0.00142938257919262,-0.0414920080363058,-0.00014444515357307,-0.00431252662614742
-0.0291652847712224,-0.0429795484589262,-0.00256016087606996,-0.0059015495935641
-0.0376242929130847,-0.0379962962731054,0.000494879603985893,-0.00510503448284902
-0.0148701290370708,-0.025633614285511,0.00413787294265285,-0.00223044027601724
0.0107432696602609,-0.00758526614180648,0.00246679003172261,0.000800993370128585
0.0223080290518637,0.0214118886958941,-0.00588523240448929,0.00246088942315314
0.0321964738808951,0.060665402607688,-0.0169063862490408,0.00258937280883075
0.0376714344917995,0.0909333747760975,-0.0250078143303776,0.00170530973115123
0.0240022845652028,0.0984899871609704,-0.0275107319897446,0.000874736525656294
-0.00293022391416126,0.0846585608058616,-0.0260446255726559,0.000464922275488725
-0.0260230068852261,0.0450690962508192,-0.0248491516635745,-0.000477218822246037
-0.0360077301048046,-0.0130788807536325,-0.0244260418133082,-0.00216894674829798
-0.0329227636858707,-0.0453926508465071,-0.022971598901069,-0.00375983713326632
-0.0279122608463649,-0.0230336345598663,-0.0235083198035307,-0.00456362211093972
-0.030290349680818,0.0184902810886333,-0.0265485854319191,-0.00443769349090841
-0.0314143516383102,0.0315481460544484,-0.0299272027829071,-0.00342861189234155
-0.0268559526694624,0.0105380413045058,-0.0349632307583294,-0.00150377260764744
-0.024342723195048,-0.0252274486563972,-0.0413964548749565,0.000410365075145662
-0.0206485784038617,-0.0498417725868082,-0.0444586207196465,0.00112438049789877
-0.00659000065420768,-0.0430293440947053,-0.0392634088727351,0.00145703436049656
0.0120605686253277,-0.0168019927888391,-0.0309598869390572,0.00331721714971012
0.0232779853678141,-0.000593965393614615,-0.0267684986295943,0.00667962309707585
0.0342504756283346,0.00194500189959947,-0.0250255871071078,0.00943319485112872
0.0563069666409494,0.00609762912977382,-0.0233086015816883,0.0105140688645573
0.0774050127338714,0.0146924241623288,-0.0229323580652764,0.0101422053563223
0.0802689488679084,0.0172325974805328,-0.0253101445795673,0.00797901308926166
0.0612275609103399,0.00875738354199787,-0.0303751798060409,0.00355309892793644
0.0282615674014391,-0.00311825252389376,-0.0375186505399301,-0.0032817923609738
-0.00375711085074265,-0.00964722512245713,-0.0473542126334652,-0.0113190813376419
-0.0224502799904503,-0.00793870237911678,-0.0555889218722698,-0.0177339211355282
-0.0237145605437092,0.00555071340060593,-0.0547085142721149,-0.0202653935287741
-0.0140888408625244,0.0242906247962616,-0.0484022649896685,-0.0180262483761944
-0.00820643735438982,0.0280858319929796,-0.0438848103290529,-0.0111824916290011
-0.0133133981792891,0.0169497786936015,-0.0425933061423765,-0.00159009717198226
-0.0146987626827777,0.011842294911224,-0.0427079979806812,0.00724337154700829
-0.000460604874100625,0.0177744503459469,-0.0397986958820878,0.0135397073513449
0.0133727982329624,0.0218743229458984,-0.0347847373347222,0.0187336710203503
0.0176861399085613,0.0159520526544756,-0.0328665071188312,0.0228792659333388
0.0226471745001103,4.28615823865539e-05,-0.0338134520385261,0.0228465152803424
0.0255484922253927,-0.0225014513972662,-0.0356848712099381,0.0168177010770469
0.0239750855329786,-0.0440433212285293,-0.0373233536984822,0.0072748894979857
0.024571947245191,-0.0518940896544393,-0.0376674051220179,-0.00164354936917272
0.0228325923372139,-0.0414769651035936,-0.0387214788766189,-0.00793834478159454
0.0171202983885266,-0.0243945376440155,-0.0398143440043179,-0.01205692674461
0.0141872664337529,-0.0159536647738217,-0.0396608258498533,-0.0147342198037873
0.0146196677755206,-0.018540984532173,-0.0393290258576262,-0.0159217904362917
0.0147972662823819,-0.0203515589672725,-0.0367332865806897,-0.0152099353494623
0.0123992720860135,-0.0168233351750444,-0.0309244069508537,-0.0120547473018112
0.0080018285706608,-0.0141381077347996,-0.0258061322785698,-0.00639700243430429
0.00459122814883854,-0.0103087979364675,-0.0227715805166194,0.000637547135539526
0.00455271600459068,-0.00244215860550417,-0.0187216197018677,0.00696620401613162
0.0122294856172565,0.00238838455360581,-0.0138384745222785,0.0104247602632022
0.0265125238545412,-0.00100107393068198,-0.0118638085329979,0.0105000962434646
0.0311769872530637,-0.0081474834487012,-0.0129725580830993,0.00907602855312942
0.0160880114302787,-0.0104392449419544,-0.0113575272429581,0.00825439888166716
-0.00593189097121526,-0.00516042982392182,-0.00776214323922305,0.00816608554899422
-0.0204252667942544,0.00229983048523494,-0.00702694862203875,0.00776242482495997
-0.0311621290274748,0.000838062679837712,-0.00591604562635244,0.00644518673274717
-0.0404340134080744,-0.018952582859906,-0.00387265309851175,0.00399349746026201
-0.0392856169315936,-0.0459887250617382,-0.00405806928799402,0.00058035318708238
-0.0278027661170415,-0.0560321533461687,-0.00480678551052685,-0.00280541127838206
-0.015386664331845,-0.0456316086543457,-0.00419172593441103,-0.00525025349772346
-0.00559925075481514,-0.0311896224012223,-0.00405524793124911,-0.00639937748141955
0.00483834824667619,-0.0180321761754597,-0.00455719147463452,-0.00623329716311326
0.0118433398953602,-0.00110806961008223,-0.003850765299631,-0.00516902045806867
0.009606278890585,0.0150440309051604,-0.00260523648647296,-0.00367667619587179
0.00466900692275801,0.0253254249248148,-0.00205133593691616,-0.00207447551745182
0.00547149771883929,0.03189527316156,-0.00292048205184967,-0.000767223106094037
0.0141541692286901,0.0363500774797964,-0.00505301516685661,-9.93334357289005e-05
0.0262534358193885,0.0357665841785342,-0.00550092277703785,8.23003756408478e-05
0.0357045672621964,0.0284206484326349,-0.00104227834924427,0.000404111768214544
0.0362551589819564,0.0200002524138802,0.00470186062398036,0.0011532945078744
0.022546347833138,0.013545641839422,0.00661746168102071,0.00207744652826077
-0.00386195555954211,0.00679998709029523,0.00596334576115162,0.00301054090286434
-0.0337328989756247,-0.00179758783542588,0.00432762657526556,0.00398558173079822
-0.0503251377161587,-0.0159791028031992,0.00160154652925671,0.0047821045788894
-0.0460830145187161,-0.0347927102511874,-0.00149741343413984,0.00486442457445262
-0.0312943259380063,-0.05062360864755,-0.00159011957790044,0.00407903614612167
-0.0178525127899717,-0.0598713711786535,0.00153509432340926,0.00252504970540062
-0.0124282593863157,-0.0589050379798946,0.00470347799522479,0.000234351590627538
-0.0147453920122733,-0.0478161492114289,0.00842424679982464,-0.00190782994084616
-0.0168269735203857,-0.0350993576730398,0.00969269527634355,-0.00266994773517974
-0.0142451641770501,-0.020323155797621,0.00621325388527029,-0.00224668345773866
-0.0117745637589356,-0.000404302347700926,0.00314741422454909,-0.00171182542977274
-0.012608155787634,0.0129752449239552,0.00312567436100204,-0.00175430282142724
-0.0100796967404212,0.0133803049885417,0.00507096843313844,-0.00246445006354128
-0.00219826027005239,0.0123232395526992,0.00656342378009818,-0.00313295294243377
0.00463339709217025,0.0179181474814655,0.00590115923911913,-0.0031702343261681
0.010305600972448,0.0263685615143667,0.00258612153978793,-0.00295883987629548
0.0122139861571936,0.0286504392581882,-0.00303023324518878,-0.00298254306670326
0.00699900413594459,0.0151569970041668,-0.00721254471368432,-0.00324847431507487
0.00355085963558958,-0.010675307441851,-0.00674595736337401,-0.00348730630277241
0.00114077788104928,-0.0321001885783547,-0.00234431497475854,-0.00313160940515219
-0.00702548915083284,-0.040527138564731,0.00307580587837098,-0.00175439481853667
-0.0129224241582501,-0.0459220954737688,0.00816196438639361,0.000206010492984062
-0.0123272544245129,-0.0554897874673199,0.0115457219418159,0.00165895835587582
-0.00916255361536756,-0.0581534815499163,0.0136429994605808,0.00200254797494123
-0.00521222473151966,-0.0489874231573737,0.0170745243780475,0.00160496385897503
-0.000755937383468776,-0.0394517494563664,0.0208220625796787,0.000972054286597421
0.00201783396827147,-0.0370371464963105,0.0225101241831253,0.000296497176099225
-0.00398137063923618,-0.0381484195916401,0.0218660993291412,-0.000213877144485013
-0.0154586113829129,-0.0362506396558131,0.0210628927560737,-0.000512643621633292
-0.0160531227706252,-0.0264911834359081,0.020552877637502,-0.000981907683485769
0.0011177054979186,-0.00844082845692247,0.0163584017436689,-0.00192141445065804
0.0270651839525804,0.0111822027333199,0.00784175585544854,-0.00310213338203142
0.0401465303584158,0.0211414079043368,0.00167429760790942,-0.00409447881205109
0.0276880219863342,0.01867999009393,0.00169885867137123,-0.00470967265504787
0.00497117577353055,0.00900074615153524,0.00353595818238727,-0.00475488289785241
-0.0137969040130297,-0.00704946116286938,0.00396625400972838,-0.00412689063253904
-0.0274925067017341,-0.0202394978245114,0.00544757779023516,-0.00307639593374361
-0.0368308913364584,-0.0160999099906556,0.00831176292687624,-0.00180285673200314
-0.0431153008325321,0.000982246448592489,0.00982095112324942,-0.000576525975674985
-0.0458278445594303,0.0212996008591566,0.0114336268733908,0.000379552096128296
-0.0468459962428508,0.0443302317541497,0.0131690165789632,0.00131186948061908
-0.0469809769178217,0.063821888208959,0.0126866496990487,0.00234828806697668
-0.0440731371133627,0.0669942081019523,0.0129204534874141,0.00286954788055692
-0.0343256119381827,0.0507855447808077,0.0154988834130163,0.0022942137194565
-0.017017046404236,0.025012537616892,0.0184059473899589,0.00116616623187861
0.00338841081101539,0.00338739920351486,0.0192086259978393,0.000523799187508166
0.0227452838206048,-0.00259540624120676,0.0181922070961553,0.000479590851101456
0.0333844546710486,0.00827187882978316,0.0177041131755199,0.000284928985010651
0.034319077222228,0.0244166787385174,0.0180014558186079,-0.000394703003914907
0.035444547943391,0.0346193732245124,0.019351216981176,-0.00112254205968603
0.0365898970410658,0.0373327705716358,0.0214534622113115,-0.00134118068311582
0.0263652260037391,0.0363036291828423,0.0222531430235993,-0.0011220418210443
0.00737700292665962,0.0341417976946879,0.0213654304538458,-0.000970723861450994
-0.00645419856808357,0.0344465895640113,0.0217391852684976,-0.000972412810436697
-0.0125357559218748,0.0413598736682651,0.023315058359409,-0.000793977830954938
-0.0127579959773193,0.0493945996432527,0.0231069787276749,-0.000379129192005475
-0.00655114076380585,0.0414921125531457,0.0211086749329154,8.63241985824086e-05
0.000500133952240232,0.00580315594234261,0.0194592460464895,0.000568793496647635
0.00565614053701927,-0.0322058259388068,0.0190198540395951,0.00116436964347976
0.0147308411453826,-0.0261733919669977,0.0190662283284421,0.00201704846442271
0.0232417772014523,0.0231358016154758,0.0182420850230055,0.0029828897114656
0.0155856342210385,0.0645110261287327,0.0154103726607493,0.0036887660988239
-0.00463081337591893,0.0631752590605854,0.0116290175399944,0.00379112970222966
-0.0163023353684421,0.0404646177195416,0.00719512136952857,0.00296887283790974
-0.015874411287479,0.0415669374869803,0.0031421034972515,0.00137190303317328
-0.00994422088266506,0.0744391582605775,0.00369061109373242,-0.000131618792748906
-0.000411289072973921,0.104243500623961,0.00851733522342763,-0.000811100369940009
0.00654707095154734,0.104164040871,0.0122563979411843,-0.000846077958326468
0.00821448501946792,0.0772832959643569,0.0127351248779273,-0.000720112396465505
0.00822712322732044,0.0429321203358432,0.0140292835022555,-0.000621712203489514
0.0100440696325275,0.0182768376836794,0.0167774280496742,-0.000569491439867332
0.0142408223562409,0.00246480191855359,0.0163296711977482,-0.000369646325945448
0.0183678545469175,-0.0137812721174006,0.0148656961287584,-0.000129659637136358
0.0236652621553195,-0.0316748575125893,0.0155109255140766,-0.000302163993598926
0.0286599599757425,-0.046249336509336,0.0165566545649817,-0.000643579461746472
0.0278144186185928,-0.0539044618697724,0.0167663898454236,-0.00047783879570418
0.0220475918082612,-0.045849490060883,0.015937344691713,0.000160579069546226
0.0155029655112563,-0.0193006022955493,0.0159235055329781,0.000834298814704648
0.0118297455889247,0.00927406284101752,0.0165756805437955,0.00161092351405869
0.0116712193115237,0.0288562987288431,0.0157037515448567,0.00237396757180519
0.0102651261300141,0.0401338700574197,0.014317001800916,0.00246359943034995
0.00387482326089736,0.0434749984369768,0.0137782880629446,0.00193626622345574
-0.00192800719938208,0.0409233072889697,0.0124418732558541,0.00142949814668722
-0.000255934641235945,0.0349917044886659,0.00908999049414489,0.000796859843677311
0.00673072451636186,0.0270691493904333,0.00629671601072862,-0.000760915540323326
0.0124912342449534,0.0169198617588291,0.00633980928650737,-0.00297744738486437
0.0121165515667464,-0.00188864415275482,0.0074610933804789,-0.00420773573533553
0.00636195347184778,-0.0356092400144064,0.00644509046388183,-0.00365692005621489
-0.00389604511493994,-0.0827341449205193,0.00402531152215082,-0.00222464928062035
-0.017043454402636,-0.125993408474042,0.00234430680501324,-0.000728960629339135
-0.0284412104639186,-0.133613841484613,0.00268202812560163,0.000746145898640498
-0.0342478990483113,-0.100380937288891,0.00510123198261253,0.0023934748722419
-0.028342610243198,-0.0521688626691548,0.00728128549255298,0.00444167151506035
-0.0120379319582711,0.000496809723121772,0.00918631391515001,0.00646964438740405
0.010123015658702,0.0496644296927238,0.011040082434143,0.00730254046239462
0.0301695446296714,0.0717756774822622,0.01328813716219,0.00590921804489414
0.0370425160269428,0.0635050998300347,0.0153675278845286,0.0025597850075492
0.0348688013725378,0.0419770743008307,0.013741286901357,-0.0016930019036932
0.0244751699417974,0.0303228560628162,0.00915303365357889,-0.006338011178469
0.00683078524289762,0.0412256427102345,0.00488226314868719,-0.0107785915062683
-0.00206214209586024,0.0530549493263319,0.00113514790793881,-0.013243549972286
-0.000178716509014441,0.0416005342987767,-0.00304574944171652,-0.0118941470195172
-0.000703067302551755,0.00836606621463126,-0.00402699635007718,-0.00690532382601159
-0.00271790124486962,-0.0421319128347359,-0.00171722377403556,-0.000456020104848666
-0.00587038883968416,-0.117395642132463,-0.00394556681650873,0.00471059561532331
-0.0265164315948676,-0.198755104783453,-0.00919969676993633,0.00733316642563106
-0.0558706317981839,-0.229688878367204,-0.00764986354996517,0.00851126236691482
-0.0610910929888177,-0.193201435110037,0.00152995588734144,0.00941659880084918
-0.0328173397382284,-0.131469107708133,0.0114893487974689,0.0100150114246277
0.00919993475723901,-0.0757547142815754,0.0163219530927584,0.00999645006708016
0.0379151621989034,-0.0347589615601016,0.0157900152783998,0.00878850898575168
0.0429047003209142,-0.0161564534279554,0.0158267547466991,0.00604504600655374
0.0330787347230993,-0.0139097377394355,0.0176431268687635,0.00242933952161445
0.0175627571699819,-0.0149238757956077,0.0153006287997803,-0.00104553710670861
-0.00346240629009429,-0.00634982804148233,0.00670324579797685,-0.00412275960278243
-0.0264850467171779,0.0281088692509604,-0.00026565330985873,-0.00766849244937582
-0.0432737249870181,0.0778469433697594,-0.00109801850403029,-0.0116665046094026
-0.0530396679027155,0.112922219970245,-0.000929463878298655,-0.0137223443042477
-0.0585804402533793,0.125461935461372,-0.0013335510586967,-0.0116551989627499
-0.0582995889254473,0.117106158995581,-0.00186086218764154,-0.00619935129545342
-0.0542447595756932,0.0925274066529306,-0.00383687500809206,0.000113536221016871
-0.0578266901134936,0.0723248052157967,-0.00629666797140708,0.00521219758369998
-0.0615765878693164,0.0659629162646283,-0.0061820076433792,0.00821273493146712
-0.0461054209513807,0.0518370268660313,-0.00441982892242431,0.00888796386848469
-0.0232224429367187,0.0143197342186841,-0.005780942569954,0.00725234549853677
-0.00900603118306445,-0.0346455331837615,-0.00831701535295238,0.00455459495304399
0.00589437617108718,-0.0957249963980342,-0.00676250158565153,0.00303400112813727
0.033645294729922,-0.167072036416401,-0.0047105465357023,0.00253821876491153
0.0690282051025515,-0.197528501217285,-0.0053695184026719,0.000268465748712664
0.0899196268813918,-0.143459177576594,-0.0023291262315118,-0.00355533879254174
0.0780105813729855,-0.045948921786761,0.00267303668234056,-0.00469095113913002
0.0347975756689413,0.013212345030811,0.00147744027368793,-0.00152409267153702
-0.0148603325448498,0.0187958971416542,-0.0027968764769325,0.00297958762989687
-0.0392617601334224,0.0228406457477281,-0.00490636745790398,0.00610398223967619
-0.0319332613585823,0.0503399757960378,-0.00562172843381936,0.00707251333464796
-0.012404145674983,0.0708051521279392,-0.00489498241101639,0.00562063634728424
0.00177331821280371,0.0547752585159927,-0.00254216161177283,0.00169103530873856
0.00366157135051592,0.00849336098914706,-0.00172203694168197,-0.0049935925631721
-0.00672021067811108,-0.0383850643537365,-0.00197080567327718,-0.012899272001481
-0.0197754633794213,-0.0551321093859211,0.000216929546158117,-0.0167107685862074
-0.0241072822857459,-0.0286019110553484,0.00199234614593907,-0.0129805072518941
-0.0188878643439286,0.0269029324731462,-0.000616570653004506,-0.00545032128979121
-0.00964596406597667,0.0794415887570863,-0.00394283691536009,0.000382375867131017
0.00308595913535767,0.101902944366352,-0.00334440505738513,0.00370760201796413
0.0109939813497267,0.0930766122810518,-0.00115821272801095,0.00567712211129879
0.00498819029912715,0.0668523097979958,-0.00272995550606321,0.00605331221238261
-0.0031030822935025,0.0369214483947247,-0.00826022767909915,0.00466893625429565
-0.0039411929226366,0.0138011798855055,-0.0145531027419781,0.00250126038142173
-0.00210291286333827,0.0132250326551044,-0.0187895526514838,0.000689952087438508
0.00227718687534233,0.0301159287744982,-0.0191399697034944,-0.000173994410041318
0.0107200057644431,0.00817331726747997,-0.0180658808653375,1.21828790447982e-05
0.0233083664732678,-0.0643087918030671,-0.0170566065724824,0.00057036237036487
0.0403616541138119,-0.11597428421187,-0.0124137665908376,0.000670891849556502
0.0474056364048498,-0.109579500928504,-0.00483700983290157,0.000817844403873687
0.0379705051035729,-0.0819763132072464,0.00080927623513233,0.00164074120524605
0.0267147836739388,-0.0621000428452642,0.00359774322532193,0.0020651870376855
0.0136171346966363,-0.0476805383951774,0.00253129882299872,0.0010769118271151
0.000453232042184286,-0.0389619372414623,-0.00464104431850168,-0.000994335134944854
0.0069264499178485,-0.0352066471019752,-0.0145049156160825,-0.00336470990548264
0.0320806491010919,-0.0170235406918571,-0.0201267085830604,-0.00501588399967137
0.0503472429136221,0.0233502754258991,-0.021658183308166,-0.00519617939810744
0.0486837650367587,0.0610915353096256,-0.0247914322333137,-0.00425306703106362
0.0356247535739875,0.0823560991744772,-0.0293379862782307,-0.00320393671153064
0.0212593849957709,0.0942045246941702,-0.0318996471360507,-0.00281370228561547
0.00673040363924549,0.0954628054308291,-0.0338586540274216,-0.00301977392357853
-0.0196957399095553,0.0767599440865286,-0.034142783357244,-0.00287996047041462
-0.0549821265904401,0.045255231481479,-0.0295763859995356,-0.00164493734025025
-0.0642572329935639,0.0204163883784806,-0.0198521095260356,0.000503452645487256
-0.0454220909697619,0.00289895931788925,-0.0103300685700096,0.00276802751178213
-0.0299067659669622,-0.0190747766521233,-0.00905724980586956,0.00421999653292616
-0.0183175977393878,-0.0336352800961781,-0.0109945435955576,0.00453317707866765
-0.0132842573588073,-0.0263760380379219,-0.00981030527207287,0.00439180185630493
-0.0269065890486807,-0.00913458330510424,-0.00935082522054082,0.00470573095000589
-0.0458277820341886,0.00818739871135418,-0.0112092145848429,0.00525297614386536
-0.0580161722474057,0.0167428214654707,-0.0153833842376338,0.00497196092127329
-0.06183493647962,0.0102529760725447,-0.0218174943376534,0.00347476975366185
-0.0541406225979271,0.00402966761983153,-0.0272571722489433,0.00132579961715634
-0.036376681563146,0.00640667670666877,-0.0314740245015231,-0.000519546790780497
-0.0122416689352031,0.0121976594709557,-0.0374750454123601,-0.00167018829183425
0.014633223966158,0.0149786928111866,-0.0431032320175351,-0.00271198424434258
0.0306833718761607,0.0110169486006138,-0.0448884104130207,-0.00382636201476637
0.0223487223383863,0.00973915551890335,-0.0428123639595554,-0.00419521008159367
0.0117095578644786,0.0232025010913355,-0.0392977065479842,-0.00327659113087817
0.0378652519036142,0.0573119442797617,-0.0386657878242804,-0.00144444076862771
0.0827769306082466,0.0850391798814779,-0.0377049186360167,0.00060359550765822
0.103202090881883,0.0765710696281968,-0.0292363048198111,0.00234981644229334
0.0930065423797178,0.0633444042193943,-0.017862765015383,0.00327210813232183
0.0460166347083767,0.0725274664096374,-0.0121956406989267,0.00309607942683109
-0.0317427176659989,0.078878191738749,-0.0118303797204313,0.00251668071673634
-0.0876520797019193,0.0598209353070197,-0.0115633249805817,0.00217125865967762
-0.0923795930326996,0.0155269537943644,-0.00743905108572036,0.00136747380260906
-0.0750962630922671,-0.034748904711064,-0.00199079170092772,-0.000565274856893654
-0.0682548955224003,-0.0555048046397006,-0.000788059017771898,-0.00266710808844736
-0.0764392702549053,-0.0376909306245131,-0.00410838229535011,-0.00338845714346884
-0.0729148468801609,-0.00583577370619272,-0.010851255565236,-0.00244204719920432
-0.0371275824624512,0.0157185533719926,-0.0192227990402043,-0.00095159793347487
0.0094516097810282,0.00657869640377297,-0.0239688670087969,-0.000174227238371879
0.03845340091151,-0.0289344350785323,-0.0221285396029611,-0.000346829329083566
0.0457678303966921,-0.0572442100100145,-0.01773775461963,-0.000951335868864301
0.0461456929916377,-0.0677505321045616,-0.0157477959161066,-0.00177378688646151
0.0482328539393155,-0.0754709755361085,-0.0136879360286673,-0.00275793180524102
0.0462573559567762,-0.0779025471988527,-0.00898034821402105,-0.00275483214617639
0.0401594116169564,-0.0580962224392279,-0.00331229293275371,-0.000541022404464433
0.0355743069321717,-0.0245988950310455,0.00190777891255463,0.0029931899928424
0.0283519769432097,-0.0155042940574219,0.00683186880454786,0.00583484194737512
0.0110935708680797,-0.0414739718487451,0.0123408381719661,0.00672533745566898
-0.0102156393528884,-0.0698542536829051,0.0165815313131894,0.00550099785873267
-0.0270778856807576,-0.0847342832429091,0.0183881187028942,0.00269935826018193
-0.034798938574707,-0.0973360629256924,0.019133559771011,-0.000808568463889416
-0.0235704626324926,-0.107035354066212,0.0216293581800473,-0.00335330761901138
-0.000661202613080017,-0.0972756124491494,0.0245428937081643,-0.00338152441521561
0.0156342598344772,-0.0600886076406795,0.0187728973171352,-0.00133031653236509
0.0322023580832827,-0.0104971027255583,0.00473791896065827,0.000760128766214702
0.0567320639823063,0.0218712022030257,-0.0042134654486102,0.00132062188828996
0.0708613902944595,0.0329972025282528,-0.0062279098848905,0.000317573020089995
0.0648584882832533,0.0428067188563472,-0.0106436345936714,-0.0015586679332666
0.0520754297093789,0.0286697515532984,-0.0182796907409665,-0.00337840564943075
0.0406763362290761,-0.0347636066494498,-0.0216613852224108,-0.00408521919292442
0.0320452078694904,-0.0884643031184477,-0.0171651123895442,-0.00360414550054121
0.02796172753746,-0.0641823051133917,-0.0111349084031427,-0.00258285668518722
0.0241454317193645,-0.00699190374329795,-0.00931093329248942,-0.00142536495307276
0.014654437633436,0.00894221818402232,-0.00870086102176616,-0.000508892457260762
-0.00329471971251156,-0.00239725054119667,-0.00555462087695007,-3.21206714769566e-06
-0.024540170183447,-0.00560472565613401,0.000553528124866171,0.000289958316987047
-0.0375203675170792,0.00101331791946202,0.00979228509021058,0.00108955619741321
-0.0349546679659082,0.0108247795134275,0.0194425351474211,0.00294079040579973
-0.0186605293225928,0.0223849272293287,0.023627127079873,0.0049781080905821
-0.00266483595982024,0.0338020682600534,0.020528943415912,0.00592147434214877
-0.00148572997711099,0.0378731244033982,0.0132305937062496,0.00542980102258077
-0.00733550701262058,0.0319021580272037,0.00477866193462147,0.00348514624285075
-0.00491789814794646,0.0193443138489881,-0.000783496588745555,0.000196155918778534
0.00241712508493128,-0.00605810075468842,-0.00116932069516531,-0.00300223779589889
0.00348789164221151,-0.0425498648725213,-0.000902160919782394,-0.00428781737276158
0.00036395187186079,-0.0638518122443199,-0.00243776128285492,-0.00361320549737573
0.00993011930734299,-0.0546372387960989,-0.00394237500559628,-0.0022037491981507
0.0333533832967004,-0.0273411575638768,-0.00543283891548375,-0.000750568928647123
0.0541235074724588,0.00225656444255733,-0.00547004217189989,0.000716853090803672
0.0604319543181632,0.0274038563911266,-0.00309389085698171,0.00187631998982008
0.0483927668950515,0.0375913891338667,0.000922674462852179,0.0024533375169845
0.0328619849752639,0.0297098956927269,0.00662456572858085,0.00276769011815536
0.0318661434892659,0.0254624870893805,0.0114495323462674,0.00300944466512656
0.0405855068436102,0.0394906571330259,0.0118353144092667,0.00291762185154144
0.0388387429555302,0.0605977333935151,0.00821364295752319,0.00187904438701055
0.0131135323545143,0.0696747968891124,0.00659700550824976,-0.000627973375527306
-0.0284527955445777,0.0512764396226887,0.0100889121354212,-0.00390795826706765
-0.0681407512556683,0.0135409803699189,0.0142200791459783,-0.00623855007421811
-0.093968783346931,-0.00303027026235953,0.0159861714509247,-0.00663407862999503
-0.101829699568701,0.0292288495375221,0.0158908441755496,-0.00538135342403104
-0.095580656779937,0.0913180120977699,0.0153734890769192,-0.00314076770532304
-0.0839047444370756,0.144455503586065,0.0167490254500696,-0.000518658611368739
-0.0689544450011098,0.159986679141796,0.0193839056208718,0.00181184185957798
-0.04039503950356,0.141195238853235,0.0211543431951512,0.00322700556587069
0.00952078697273637,0.119442214706282,0.0226092532255363,0.0037384700655016
0.0688225905914966,0.114776694299463,0.0216910677812854,0.00354027187723189
0.10753306277448,0.10615608262718,0.0175128839216715,0.00270931985872367
0.108720783555486,0.0623975483755966,0.0163194335881956,0.00160870551679792
0.0870823291099556,-0.0166952482320287,0.0171813910015531,0.000555204299085232
0.0686194403250779,-0.0917265687067861,0.013686286472935,-0.000241405897745004
0.0550823275939742,-0.0981368645584463,0.00956718042964048,-0.000694860153953583
0.0408359828318492,-0.0597663349380938,0.0144752657748577,-0.00105615783986184
0.0300080960889403,-0.0640574152731438,0.0304699142507396,-0.00160509290272374
0.00437631205540555,-0.100575339851731,0.0477457348265727,-0.00219467683075868
-0.0338557994279332,-0.105808466957615,0.0595214158008389,-0.00211920282797794
-0.0534330395305386,-0.0673591282243697,0.0653814912169883,-0.000858089062925728
-0.0538131403777646,-0.0153930133694334,0.0666098660863351,0.000773605401504342
-0.0465550668746999,0.0213103207765455,0.0664605504839982,0.00161723071142336
-0.0289896850850154,0.0249004131041812,0.0668209963020425,0.0015806681205437
-0.001382141613665,0.00149567174920322,0.0684080935741637,0.00116532496418362
0.0278757155851025,-0.0208363867648555,0.0654853096014519,0.000969259155456299
0.049316599390341,-0.0378775074555363,0.0521800742543969,0.0009817722808942
0.0434155158299017,-0.0490607864426634,0.0321246514368048,0.000423790777996846
0.0101304551892,-0.0317697317641091,0.0110339330080259,-0.000940689162590385
-0.022399401280272,0.01051081489027,-0.00655185717380834,-0.00235877642257219
-0.0551900211897677,0.0330282556229324,-0.0204326896857908,-0.00327757667328073
-0.0906797701235074,0.00457180990032807,-0.0304959604373367,-0.00356835685185273
-0.0968274910925999,-0.0491173650671201,-0.0293888434241211,-0.00319784261673402
-0.0711037034915457,-0.0639439044134032,-0.0213541682866905,-0.00347780967183946
-0.046249937911654,-0.0194105862081553,-0.0146420757867235,-0.00557224396377907
-0.0288252741013999,0.0417246549725796,-0.0021222596038324,-0.00718893808746689
-0.00795471684171897,0.0803155912495561,0.0162000261647682,-0.00493064868002865
0.0171757464640115,0.0820977337380917,0.0283051202773578,0.000767917090160841
0.0458171616198026,0.0638200950647114,0.0330608082758964,0.00568566876822679
0.0694932295852601,0.0421247912644291,0.0388056753137867,0.00687728153720312
0.0702332950432895,-0.0123367628613517,0.0444023370778065,0.00502805042377914
0.0419297229717093,-0.105772260084399,0.0431872762411979,0.00136419494986353
-0.00124251052331725,-0.173038428536569,0.0322711469285705,-0.00370847516833195
-0.0270086398109958,-0.171221705298982,0.0148479512000686,-0.00915089648876209
-0.0122474055901572,-0.137705817776828,0.00238870463536297,-0.0117921663850134
0.0126435306164926,-0.119249237187577,-0.00399062595989227,-0.00797887863353663
0.0107906541141159,-0.101372762314482,-0.0122923621464176,0.000909300421611744
0.00434935780971282,-0.043805591696404,-0.0220387989507009,0.00838421503991952
0.018319951740284,0.0407875206686431,-0.029688711874783,0.0102231010035943
0.036434828838939,0.0981956996852219,-0.0321533923525654,0.00786504248932267
0.0375267320347993,0.104403590748382,-0.0325895952303651,0.00404856032444864
0.0172933057094656,0.0999930957050559,-0.0369517227605776,-0.00069105052899911
-0.0180309758291883,0.123933552441163,-0.0425076608006499,-0.00593508930411486
-0.0556062875648284,0.125410565674033,-0.0464137846571269,-0.00900291882432152
-0.0843365982064494,0.0414168037317262,-0.0476291349443116,-0.00890551605898238
-0.102119410278025,-0.0786922333657505,-0.040308604994528,-0.00827105220487111
-0.0991723653979925,-0.149810301844676,-0.023938687168246,-0.00753192293475897
-0.0712553743278788,-0.165859177734357,-0.00974502048337885,-0.00473844313716033
-0.0365360038077268,-0.14166556131754,-0.00588292815640541,-0.000204952065872237
-0.0103847715472139,-0.0716465611584415,-0.0106970161508239,0.00435042132518888
0.0137644785575346,0.0143575912931358,-0.0204244123766923,0.00775854172115227
0.0408833343716488,0.0762393779313311,-0.032051130955457,0.0093929975387477
0.0514096960974693,0.111854318775612,-0.0391432788034135,0.00903003748843496
0.041845880938276,0.129000950194743,-0.0363483427596877,0.00651621121685115
0.0280997349094662,0.129413691940092,-0.029584046220524,0.00249530801793098
0.0192987620898652,0.116933695640033,-0.0237195700068377,-0.00176911846103754
0.0203775808335786,0.0965857901858614,-0.0148806842701072,-0.00536904620706339
0.0148139225502012,0.0631575785196833,-0.00466653088752614,-0.00711603420091241
-0.00794970020107586,0.0110499757358724,0.000561369196878226,-0.0065038252144218
-0.0283567135831092,-0.0438700569500219,0.0021731936220865,-0.00475547890870769
-0.0388901619304178,-0.0854423451344802,0.00539201780193221,-0.00256793282989145
-0.050920898442975,-0.119818574990489,0.00900755451276724,0.000909466445662237
-0.0614961025189325,-0.156602754536889,0.0090927155376568,0.0055185449328521
-0.0656565147859932,-0.180356300257092,0.00561446113581363,0.00933631858734302
-0.066098903091869,-0.141911325705841,0.00271859151969157,0.0111703123703383
-0.06517884443669,-0.034613066236393,0.00254000819395701,0.0112527057725606
-0.0649002250027759,0.0484501766019909,-0.000943842653148584,0.0102940278041907
-0.0435985179459208,0.0754741161374371,-0.0100253181968854,0.00851913889224826
-0.00970345847713128,0.113476909039702,-0.0153973281860374,0.00553494823791021
-0.00146018903473766,0.15842367275779,-0.0123552509112776,0.00213678332244432
-0.00034236142666616,0.165710228458437,-0.00903297325825541,6.09870499443024e-05
0.0120492159029979,0.126563480986438,-0.00819736506771718,-0.00010645748492355
-0.00554444231044617,0.0442145322898139,-0.00346014937190306,0.00102432142210129
-0.0701925342778667,-0.0643854063800276,0.00292642458559172,0.00251045326459955
-0.140092787935788,-0.14541307607673,0.00283951588238563,0.00358809658891925
-0.175513669496269,-0.166638248551079,-0.00524748181581612,0.00336896355360958
-0.159531974014393,-0.142171854332232,-0.0146400973470392,0.00127560181095415
-0.104381605507986,-0.0963268076646775,-0.0192677562337324,-0.00173577676867318
-0.0404095919965112,-0.0951590812985298,-0.018076517612384,-0.00416155297941321
0.0135895099613494,-0.147304478946492,-0.011268517384142,-0.00516660997236798
0.0608673584657733,-0.168932237741605,0.000206284258824171,-0.00467678964914657
0.098023906503253,-0.130851922439461,0.0125759760351207,-0.00297433309185331
0.102150815665915,-0.0722205286441499,0.0192776467469148,-0.000188107816102498
0.0867594318198666,-0.00950292641898615,0.0191077649593571,0.00298373005887461
0.0891069549732965,0.0648849918890361,0.0159783630097098,0.00496846496226519
0.101200813769551,0.120486399296161,0.0123852914382042,0.00514458095607273
0.0876589800640584,0.132643636001262,0.0106595230950947,0.00481775629871006
0.0482251673051246,0.14043063704509,0.00690706254440286,0.00529673897217491
0.000863366331103177,0.154206116778487,-0.00551487170876312,0.00589023718359137
-0.05138393508659,0.118194976360619,-0.0171243341488717,0.00475834462704556
-0.094699717840639,0.0225891123198615,-0.0163287517879183,0.00141374844808288
-0.103034928283676,-0.0718610381777857,-0.0118038811756205,-0.00285735341465171
-0.0641966761872087,-0.125798752303081,-0.0115980825970425,-0.00643053581383305
-0.00253211589783359,-0.121477976123056,-0.00992507028752224,-0.00800814256502711
0.0455134796531674,-0.0557047089353868,-0.00623430110595341,-0.00702693797965839
0.0766949830855943,0.00804840666901852,-0.0033499858702886,-0.00416585192944872
0.100648909402161,0.0353289336749777,0.00252701867677783,-0.000724866464325083
0.109493430014057,0.0353917928997143,0.013172566511769,0.00233250149784594
0.111851729339101,-0.0250178240468918,0.0229586481983039,0.00442200720111622
0.132712829424963,-0.112228520457077,0.0238439793012801,0.00472090391763483
0.153946667848989,-0.130722751392428,0.0147905736313429,0.00300816177803137
0.144957499592941,-0.0761994834484811,0.00174198093757504,0.000474222851630123
0.120585900163573,-0.00569546597506118,-0.00749311685464932,-0.00188761333673424
0.104666329359094,0.0415713632214073,-0.00959605205616473,-0.00398482847768733
0.0911003892082883,0.0496364551737129,-0.0127669348649811,-0.00558766436367636
0.0866294012317554,0.0402264241754367,-0.0222070933319804,-0.0059799319221108
0.0969404951065388,0.0486034805005067,-0.0339433778548498,-0.00525646678184943
0.0825068744845591,0.0540620493460699,-0.0458139912432702,-0.00506893380038572
0.0190515349237173,0.0254496572787631,-0.0550436482510762,-0.00684298862409198
-0.0672999676139078,0.00837982303416332,-0.0581987969373825,-0.00977738523295949
-0.117895979099086,0.0346671602829956,-0.0539479244102098,-0.0109036435026636
-0.0868883202495933,0.058351733282957,-0.0399287320985793,-0.00784846064948264
-0.0164842740948627,0.0760404220954254,-0.0168577336175414,-0.0020657860593269
0.0245312270650268,0.124395268285943,0.00900204156831491,0.00295761949553456
0.0580543211406642,0.187763893395377,0.0338734613122979,0.00647599406737246
0.100870169880947,0.220622330774577,0.0535616708475412,0.00975514928408464
0.102509151932875,0.194423074345374,0.0633793865984142,0.0124350132145319
0.0517248229129178,0.111481068845048,0.067992423498651,0.0130889292905664
-0.0050950105826234,-0.0296237796076496,0.0700282218206077,0.0111933102980991
-0.0034433234485754,-0.188563802850647,0.0633760482307908,0.00659376718080257
0.0557558685837382,-0.287573902057587,0.0493306745586329,-0.00013569135859488
0.0875838827687164,-0.338310682572821,0.0382619758074455,-0.00611934188845387
0.0510361473833559,-0.359719101955328,0.0296499987454324,-0.00902118305052531
-0.013153552708819,-0.310929460969604,0.0123903064432872,-0.0100375696526282
-0.0507566167849812,-0.205481473448821,-0.00971163749485959,-0.0109992525660636
-0.0561673685261538,-0.0979512578193777,-0.0251694393956816,-0.0110234600243209
-0.068046445796972,0.034393273200084,-0.0351845995385793,-0.00776410468017069
-0.0920594632069458,0.218855931223233,-0.0471197046092638,-0.000582838249164641
-0.0818152896063737,0.357681545897106,-0.0630510319283052,0.00766730422352111
-0.0395082302103935,0.358800287968057,-0.0767188455181705,0.0113266104102619
-0.0354787576228979,0.263554962478366,-0.0764500105622729,0.00734900731195662
-0.0831591431284034,0.171217230656758,-0.0583611927773251,1.1118900452552e-05
-0.127869343255367,0.107851444304809,-0.0364079752827098,-0.00444992860430996
-0.135951720347291,0.0331559646148168,-0.022908876516307,-0.00553987509871059
-0.113766527953506,-0.0315084340826402,-0.0129665677690785,-0.0066851901716872
-0.0772527996894227,-0.0695853555617238,0.00690438922816922,-0.00871974557337936
-0.029817045584809,-0.131154557473717,0.033969020889797,-0.00848997059085915
0.00652059021055123,-0.212341315529657,0.0458286773198172,-0.00347100863318283
0.00321882904577326,-0.260558615794289,0.0342733826456362,0.00434004047850673
-0.0300121875072652,-0.241669535557696,0.011589770384896,0.0106021429026222
-0.0761276853040062,-0.14088254102714,-0.00946270063112861,0.0135709403755354
-0.111791787628635,-0.00332975731486188,-0.0249905062976794,0.0140013050448934
-0.101504957686364,0.0874809331508148,-0.036581930385277,0.0121419194356144
-0.0395891125779655,0.135682387399791,-0.0420095829617803,0.00791461287840724
0.0416925072189798,0.195342316810495,-0.0397874063237096,0.0018110896560894
0.100044366025123,0.226535566795386,-0.0336659552831249,-0.00547543148167583
0.0960370864428464,0.160971440313326,-0.0234424016641561,-0.0129924536715651
0.00820626298600483,0.0438271458410925,-0.00996570478377736,-0.018465978784986
-0.101652558429595,-0.0304410598535979,-0.000390043679360182,-0.0190304995159835
-0.12480170229043,-0.0451500494128771,0.00346650306480171,-0.0141364633226828
-0.0637959045377435,-0.0499641913400855,0.00713417978626759,-0.00621328067438113
0.000299788238789497,-0.0811805700845439,0.0182251066903789,0.00139213168662599
0.0517575146763178,-0.162341301013241,0.0429539787433142,0.00632283806509573
0.102899374998857,-0.329192000837407,0.0774783510051645,0.00818136013718371
0.135815543999419,-0.5331095337431,0.10414753417714,0.00863938469058556
0.143470939954557,-0.624161651468007,0.110270031308359,0.0094974951829884
0.157061061387013,-0.524068206806149,0.0993701262912382,0.010038622839087
0.181834342692103,-0.307036838922768,0.0775064642285312,0.00796041264293597
0.156248468045344,-0.103881488291419,0.050131037436128,0.00352855527610009
0.0611582874453483,0.002316794675296,0.0203197321484951,-0.000205819297075315
-0.0445532466798474,0.057656229188405,-0.014430644800337,-0.00239729738740449
-0.121575161110061,0.200303646977633,-0.0568835067582598,-0.00489330357421571
-0.170137390062827,0.44418258844386,-0.103024004586266,-0.00797597964024969
-0.180573846732216,0.664140197750856,-0.134688560285773,-0.0103095187602038
-0.12752636085796,0.776016278153354,-0.13910108308213,-0.0113378574640762
-0.0415618409446538,0.75780981692095,-0.120468612754788,-0.0111254885270798
-0.00768546560197228,0.591854586054557,-0.0829769221862599,-0.0093930337666236
-0.0391831968175922,0.318483192542569,-0.0330434231239439,-0.00663913526456668
-0.0690516550428756,0.0574654310492948,0.0156145690508682,-0.00464438517652683
-0.042487187842522,-0.141738275914238,0.0538308623996619,-0.00352866678818415
0.0405385900992653,-0.297577686202031,0.0813156910966892,-0.000275837133879454
0.120878711975881,-0.384498347160713,0.0958985610913589,0.00716229329268019
0.140228427020288,-0.389724907565025,0.093839289507113,0.0154661722825791
0.110382184264969,-0.346690080812139,0.0810600765234105,0.0195122093949253
0.0751374863848979,-0.256822244650898,0.0707424478620069,0.0190363394075036
0.0485553904898375,-0.112611059273206,0.0683743930663706,0.01728281760629
0.0300384926582598,0.0513801667080249,0.0634549743112365,0.0152988059279135
0.0166437375418477,0.201927805037399,0.0464672048549953,0.0114767026346922
0.00484613885069258,0.281939791645651,0.0266637793157339,0.00507835592166406
0.00272606266439984,0.219303838217297,0.0108910747996387,-0.00262789595750672
-0.00439754273917439,0.0433234961796649,-0.0106855904869863,-0.0104680254203302
-0.035450570206708,-0.125978872963883,-0.0364361948863148,-0.0175747267945016
-0.053803141142902,-0.166248948514314,-0.0471722598431393,-0.0216435330427152
-0.0365997029277382,-0.0515102619461004,-0.0385158161703651,-0.0208522571911556
-0.0177197459307384,0.0954265467652201,-0.0271800143959202,-0.0159487152143186
-0.00323368300173672,0.188681284512293,-0.0253993155598466,-0.0085363213711605
0.0163988795508279,0.260488598463203,-0.0316898789905789,-0.000213062201041083
0.0124979999396027,0.320381815131334,-0.0374848306179006,0.0070591310247272
-0.00902467558062328,0.339977864967922,-0.0420949462728611,0.0117216048621835
-0.0181701320566104,0.312687923273166,-0.0517370260732056,0.0131919460259025
-0.0239466796851034,0.27929722951002,-0.0616814455446318,0.0117397361647212
-0.0057882888838186,0.28191148634141,-0.0594905184857723,0.00847088109022181
0.0568601234664509,0.304490331004899,-0.0397404919889053,0.00516991315965694
0.121638385797362,0.265495975228202,-0.0136575241664869,0.00341722865143976
0.165106864237136,0.125922711338432,0.00559246552475327,0.00339057964830052
0.170320637585062,0.00548583994959989,0.0187341653158852,0.00406607900488817
0.0909393443889444,-0.00982828389805421,0.0303862835328456,0.00461688431882477
-0.0418302738811807,0.0537206370101258,0.0397575319266392,0.00479999818153048
-0.131094877414838,0.159632320591827,0.0385849104213267,0.00465529784128318
-0.133259487758554,0.20404180891371,0.0250735307833921,0.00463201425376188
-0.0843362645759231,0.104702795352096,0.00912443615463043,0.00547243619798201
-0.086708117015452,-0.0626516466011179,-0.00863091007665304,0.00690302104315444
-0.178153735618577,-0.170561392582601,-0.0268986604711041,0.00707419637044989
-0.271672401928486,-0.18157103138038,-0.0368950622368075,0.00410512203958254
-0.295608698326977,-0.153677829253114,-0.0429869842839567,-0.00223021458180002
-0.225037064818485,-0.152682328069142,-0.0484078153322303,-0.010349304562146
-0.0658826642136117,-0.162957660213183,-0.043566906270257,-0.01787065081966
0.111790630400817,-0.127097324873957,-0.0279398177695237,-0.0216654066851435
0.214117276558478,-0.0369360447354312,-0.0111479017218044,-0.0192556792780717
0.241431302472314,0.0598404840915218,0.00125596826431395,-0.0119914367887578
0.266290356964496,0.112413383320137,0.00553592298829753,-0.00385046617906635
0.283821695234586,0.104197930385448,0.00396649805268544,0.00245240504140126
0.248246965226061,0.0631340654907628,0.0090916969441617,0.00656748739914896
0.174900473565583,0.0505320681035292,0.0252433391761753,0.00952858100039746
0.103739399634682,0.0772124675809664,0.0370288992120624,0.0119822773651807
0.0397918203039403,0.0725502718737665,0.0346015163047138,0.0136908955571919
-0.0251737727474532,-0.0289233268931937,0.0316806133575338,0.0145120199308514
-0.0813838275724685,-0.190965697289034,0.0362017762242267,0.0135725172648142
-0.111456108580288,-0.274232527303546,0.0364390602701673,0.00948734114062616
-0.103358648307326,-0.224855926223968,0.0296122645254685,0.00303539586547643
-0.0729453659595521,-0.157355063139023,0.0269616013342523,-0.00322679520320506
-0.0616371303597172,-0.15353910244082,0.0307413306970564,-0.00760146276289157
-0.0875498322737922,-0.190743710639875,0.0371978622745675,-0.0102566198158563
-0.124496824223562,-0.244344880387681,0.0448117542666284,-0.0118580625222101
-0.145496503725041,-0.284727817426797,0.0463050427716911,-0.0118084386611131
-0.146581888903705,-0.270984371050247,0.0363092700478941,-0.00953365918472408
-0.114477243344987,-0.219705517595127,0.0202978365431552,-0.00598971558514339
-0.0443382667544254,-0.173453846173899,0.00881845148036217,-0.00223205362820281
0.0297381745057289,-0.124403063584964,0.00281809084693847,0.00135980609242602
0.067131997963677,-0.0413805001706635,-0.00474943246424726,0.00329737556274544
0.0598169236880716,0.0830225017597011,-0.0107849664936071,0.00210390188274757
0.0451043444478976,0.190468149515901,-0.0114228897004379,-0.000288301766731076
0.0703337759027469,0.239880865737643,-0.011837405659301,-0.000993184874994838
0.131846383269861,0.274289518609379,-0.0179128345335129,-0.000363142609171247
0.132976204902424,0.260176268161792,-0.0328096248223526,-0.000719178310656555
0.00786820781955834,0.149586353900719,-0.0468643520243241,-0.00303375712239544
-0.137134713487168,0.0577503171716666,-0.0457895560088824,-0.00604962467295278
-0.187243959401196,0.0448517102978821,-0.0301415403558941,-0.00790406523095385
-0.16094258210956,-0.00405335258845169,0.00100327570198967,-0.0074885774122046
-0.113812850608889,-0.120076844442651,0.0437258375194724,-0.00427222153947764
-0.0726463863839096,-0.210555894945963,0.0751303729564613,0.00136014941381027
-0.00311941577272754,-0.244409603574726,0.0884137663105676,0.00719470045738054
0.140335041400829,-0.257535652877542,0.0958865240586288,0.0107241255717697
0.281446927444525,-0.261746792082708,0.0965112763735361,0.0107783655568349
0.296337679758817,-0.289377471384229,0.0833192720966291,0.00749870080020748
0.195594208061056,-0.409550831937139,0.0676569675324405,0.00339625993963589
0.0932408269316529,-0.551369929065485,0.0646311472587211,0.00151858887627504
0.0432211830318216,-0.522232135086462,0.0664023568560715,0.00185293350100662
0.0216413136102723,-0.302503318817593,0.0579642569788869,0.00216184031675152
-0.0154009529344574,-0.0477284596886559,0.0429044209678229,0.000762633168822323
-0.0904596233925415,0.161271212856295,0.0324351379987948,-0.00164961042626874
-0.140289161951494,0.33935830300104,0.0276704961114078,-0.00346713016060142
-0.0877176184536371,0.506505167565611,0.0297735498329375,-0.00453862178839919
0.0355161631571556,0.640432629297948,0.0434366733619937,-0.00467958929821012
0.134292375520969,0.646077087106473,0.0558446728188843,-0.00222966227773074
0.172010803060519,0.473355731147376,0.0456499931370869,0.00311520195139237
0.158276966237243,0.195390777665183,0.0161131981950379,0.00692539374279988
0.100240171068152,-0.113771439585803,-0.00718288111036813,0.00365338088552275
0.0281838004585404,-0.351902654882064,-0.0179214885009165,-0.00501808314534501
-0.0639364990461258,-0.393452310445164,-0.0257025591045804,-0.011052802959592
-0.186354060164451,-0.27725108924887,-0.0199930833569026,-0.0104861538898056
-0.277674524434944,-0.134541917535117,0.000475083047311156,-0.00518950687458013
-0.310659865389428,-0.0413145363905611,0.0128971490375333,0.00258673165285885
-0.318697578111913,0.0110371237771795,0.011296971291077,0.00964883198088224
-0.292577537670071,0.0774459216670903,0.00369887270320056,0.0119999730751598
-0.171024041231243,0.169055020274346,-0.00728322547401486,0.00902230387391994
-0.00357932683619777,0.242195305977251,-0.0115178321532878,0.00340403454718369
0.0702090288155796,0.202693575145852,-0.00263762450072565,-0.00233384056773478
0.055822463014909,0.0447408336524494,0.0120022498317415,-0.00681151581346313
0.0601121284235656,-0.0833268006234542,0.0297847466467492,-0.00918998766065367
0.128765047071052,-0.112713616792903,0.0569335652761847,-0.00891018212936723
0.205307106932721,-0.116061252895756,0.0880662805156008,-0.00538380184288912
0.19128756358621,-0.156359716198974,0.0985342859213657,0.000424251058512761
0.0993837746568019,-0.211207196200453,0.0784346336675956,0.00490840418920577
-0.00340650371486999,-0.186846371896393,0.0421881340801221,0.00565677485370093
-0.0872783354127498,-0.036484879592524,0.00568477080916017,0.00435644272804826
-0.0910173114988658,0.178741147705065,-0.0215283538755471,0.00347472506758976
-0.0222244479203139,0.376280131691629,-0.0392339240506022,0.00353769775796612
0.0142318705632255,0.46515880464641,-0.0477203597222616,0.00422705789404145
-0.0191478908535865,0.350083806181713,-0.038372410424234,0.00471832680993273
-0.0878875980539803,0.0565845673772454,-0.0202957973213084,0.00371498266640521
-0.144560935638382,-0.211828014815488,-0.0243386865810721,0.000394502710513393
-0.143665405308602,-0.215383371871957,-0.0493830445540552,-0.00558316838172342
-0.112823206550154,0.0581419876410909,-0.0669540492251949,-0.0134920409435656
-0.107823386364258,0.359453861515056,-0.0787614715875485,-0.02067557113634
-0.103567388039369,0.482278993285482,-0.0993845833750246,-0.0248746299750115
-0.063564553420417,0.432205014694454,-0.114296156495311,-0.0253265039769331
-0.000149021622551475,0.316182234965704,-0.100490620236945,-0.0205261185178752
0.0814998577274995,0.222216887877003,-0.0625885970017744,-0.00969282911286831
0.158176887829787,0.155847988716428,-0.0238446215867883,0.00391258802813282
0.123828864317544,0.063653465798979,0.00569435751562473,0.0148134871856924
-0.0109136803474634,-0.0470922841161292,0.0317926450056422,0.0198999940772583
-0.0453082690462207,-0.132299837512069,0.0562609053944702,0.0198914452679096
0.0417647329416194,-0.242052287587701,0.0716048139297438,0.017801630391345
0.0805335836953036,-0.381436563449546,0.07204427721945,0.0169899445227028
0.019170908216127,-0.426786912425178,0.0551262314966282,0.0183719135772103
-0.0861111113075971,-0.361867295678601,0.0201457735043045,0.0187085087624491
-0.175291385893617,-0.273246201242925,-0.0272148877576918,0.0138135096855969
-0.179820827708563,-0.143616712082947,-0.0686363350621154,0.00415478908071443
-0.0823346890056125,0.0238927161361755,-0.0878945588990278,-0.00595105417373068
0.025411286813893,0.157049703837989,-0.100566612761431,-0.0144374318834183
0.1055695572523,0.30276124677198,-0.121716300488178,-0.0222686198333738
0.212577444998606,0.445388774627731,-0.124210161346625,-0.0288866359351144
0.314272428732553,0.420196561202023,-0.0836124206320513,-0.0301300798755552
0.32603324096614,0.224354015938174,-0.0164228035815322,-0.0227982021773377
0.27461348589654,0.0432697877163161,0.0393092343389859,-0.00946653443645806
0.211517094206065,-0.0325681919313855,0.0639164164024959,0.00440892405866651
0.0955204000298317,-0.0812060791556989,0.0722712344865974,0.0153779902428625
-0.0570886984075595,-0.167772581741487,0.0760355809819199,0.0222513621789818
-0.161705519072341,-0.253188408976605,0.0739321412089363,0.025053278725798
-0.224320621824851,-0.283836329555837,0.0598997896432384,0.0247912459738724
-0.267860846546433,-0.249544604684464,0.03085287544313,0.0221626262200018
-0.21752298327412,-0.144456217442684,0.00683743227096723,0.0175124594105473
-0.05484858211514,0.0175097622898777,-0.00520049195557638,0.0120551667626047
0.144068680772527,0.171606918753746,-0.0268293794707569,0.0058490592756764
0.31018567514129,0.243212852614341,-0.0547115112088419,-0.00271214084549795
0.34747960235653,0.213655797734317,-0.0678564470036304,-0.0121256867441789
0.224873341215687,0.143822158407193,-0.0733431435518238,-0.0180177378283581
0.0239653235011966,0.0955180692756419,-0.0911916812356767,-0.0192326706054209
-0.174444385666775,-0.0249005811595648,-0.126309690372123,-0.0182443577893327
-0.289189631625616,-0.264745833002225,-0.150653659469992,-0.0166258786510089
-0.285156618391786,-0.394783238810119,-0.134885147024282,-0.0133821558427686
-0.244777684952664,-0.309209313372488,-0.0960917949917006,-0.00784284247317828
-0.2196807282399,-0.159225045832023,-0.0612434669300981,-0.00155138314405229
-0.181983674897846,-0.0412078314552586,-0.0319548142803874,0.0044197618464884
-0.132489968740875,0.0368865693998285,-0.0055428758456946,0.0107971524872622
-0.0732167915868998,0.0852987915726683,0.00760325655891381,0.0169538774513347
0.0194133725975077,0.0953940038069334,0.0079238459505947,0.0198274342495027
0.0970457553741441,0.00295821636943672,0.0176349485215542,0.0178447544185727
0.0876488752200076,-0.173756236073649,0.0378418652096084,0.013186485901086
0.0260470186215606,-0.299632535554644,0.0476150203758181,0.00890491632430543
-0.0129040135555622,-0.342682125153181,0.0455392616672084,0.00546284965154721
-0.0153852774035156,-0.349778004029421,0.0409095336688691,0.000967315361865149
-0.0293634993284963,-0.306737301001635,0.0348303728094754,-0.00516852522517718
-0.0704045669628782,-0.184172918498646,0.020843572499156,-0.0101155933465944
-0.0910546810248347,0.00921321093427585,-0.00624300860668542,-0.0113022598296077
-0.0850065150242841,0.227656701919328,-0.0441676501281602,-0.0101326462389758
-0.0874498293488146,0.417517104837066,-0.0889184116328891,-0.00996713736275552
-0.116807630397941,0.498553682909387,-0.131996904301457,-0.0126007880920143
-0.153467024778016,0.420468972490689,-0.149290372328226,-0.017111659126851
-0.128705263685448,0.252203571634792,-0.124277206652491,-0.0202069760727368
-0.0346278038145277,0.098613550353605,-0.0869579436622985,-0.0191592197471075
0.0781851865679535,0.0160120263822587,-0.0664177665957831,-0.0144353676948762
0.17543291092499,-0.030797052500509,-0.0543789709845997,-0.00806510536420836
0.177148622813519,-0.138717520386039,-0.0532675046818008,-0.00150558909983653
0.078169508653572,-0.239860568964066,-0.0686043025533684,0.00367760305811624
-0.00951546650736013,-0.171144216764341,-0.0765814136676301,0.00543138400196901
-0.0663177056509171,-0.0183980088385229,-0.0666108248808535,0.00459340324692229
-0.1335909656336,0.0444004368321814,-0.0531452836481716,0.00463721450934656
-0.190659394101356,0.010578323233507,-0.0367387697603354,0.00754358318040657
-0.196454366665637,-0.0506919777629837,-0.0130821399531988,0.0133482609758466
-0.129680741962335,-0.0966414124217017,0.0135306205397233,0.0196254102299015
0.0035817793696887,-0.139847112954809,0.0418311689349957,0.0219412762954085
0.169408672993032,-0.224095182587211,0.0725664120667575,0.0186801257689965
0.279673704295139,-0.359154232307939,0.102492835081495,0.0132677309382384
0.257519439620073,-0.446980840226527,0.121280116725925,0.0103338890529222
0.170074277917179,-0.391246622239685,0.120131817310289,0.0107717598090351
0.0904920436995986,-0.229686352997824,0.101983357175049,0.0104079472136197
-0.0667609403413455,-0.0390940407935926,0.0747727134018799,0.00428405974280974
-0.306600685367819,0.144866840530989,0.0390650731389514,-0.00730168058203018
-0.417136494965421,0.333529045587465,-0.0116937195795271,-0.0195284446066861
-0.312508458337162,0.537461614922062,-0.0668371657708959,-0.0290154496924283
-0.133642823890991,0.637551927582552,-0.0954795762099119,-0.0347660091677597
0.06896170649658,0.523605007147176,-0.0919935659834995,-0.0349081705106038
0.28896355057319,0.294887228662878,-0.0765620687745864,-0.0276071011724049
0.417962619873453,0.121118511323209,-0.0570923740019412,-0.0137416294889093
0.453442871185118,0.0465489163063261,-0.0362430853137216,0.00288703124803893
0.426648413383381,-0.027519072541616,-0.0168042913070465,0.0167771853765202
0.274851394385868,-0.162460170518115,0.00249349737667803,0.0246695792767176
0.0444758495018879,-0.286953120252512,0.0132400062253562,0.0272685199758632
-0.109170925715946,-0.291114692285511,0.00733737241816535,0.0257314471943646
-0.133864984005351,-0.175755568901607,-0.0034437812784119,0.0211317606875313
-0.105952872277219,-0.0579805046409585,-0.00650075198755751,0.0160884016164357
-0.0909011799497755,-0.0168818062394044,-0.00234986900992965,0.0124391343582538
-0.09525743971443,-0.135117232781374,0.0127049278429523,0.00960575736591208
-0.108333633536713,-0.427975443067923,0.0427707043449512,0.00624830168162391
-0.101380840266134,-0.632331972988263,0.0768590198485371,0.00217012066604819
-0.0302065021547191,-0.566569637633842,0.100408348202437,-0.00118564446149319
0.0898566461104784,-0.395455300664994,0.102654021597556,-0.00295496150045502
0.178409686253979,-0.219059081309883,0.075830972765086,-0.00467874125076972
0.218899496867889,0.060474481178595,0.0265666613215201,-0.00800972169608998
0.257876880751163,0.487876778353887,-0.0305134943987698,-0.0117383065777559
0.27342625027979,0.933621113976117,-0.088722715218648,-0.0136589516594135
0.202923216660931,1.10149560242524,-0.133860353299738,-0.0141133859169871
0.0568645401706154,0.892889277057224,-0.138556309128866,-0.0142610657595572
-0.0774296017370944,0.559628936019921,-0.101617289546717,-0.0127345162650235
-0.0986842152238704,0.258580086729064,-0.0513310327242977,-0.00775244510084642
0.00397543723732798,0.00979982835413684,-0.00347291765688293,-0.000601604404543262
0.111822170692664,-0.150971644982813,0.0391208859410548,0.00607475710995246
0.139687909243432,-0.24798585359221,0.0677680334126911,0.011065805764946
0.112437919594582,-0.312385388466033,0.0761090019191083,0.0142362473105001
0.0518919387156432,-0.359071899372953,0.0653310156619866,0.0150040833937794
-0.0464454114670901,-0.368954290377639,0.0343188850393124,0.011936369404869
-0.152274412589102,-0.330654040721607,-0.0124009461351442,0.00507823024197433
-0.233250147768622,-0.220764348254152,-0.049123008806095,-0.00242044504482309
-0.231288148478414,0.0342509968572295,-0.0540946338306546,-0.00660444436791669
-0.0702779683017031,0.281425831308734,-0.0331036215231084,-0.00604749990808529
0.14519450098314,0.279841965868095,0.00107206363791247,-0.0032567378407538
0.252719733430998,0.0895746488113248,0.0387566825767205,-0.00149210989138269
0.273357462034092,-0.100061923023223,0.0675010610392112,-0.000544950777452785
0.260028521241977,-0.209898127632112,0.0791736780225643,0.000782936963215094
0.158013029526998,-0.229449332905898,0.07008375803154,0.00159844852664751
-0.0620074469335332,-0.161153456777757,0.0424243309631194,0.00147528917444901
-0.300270231482126,-0.019063565918805,0.0113597690161789,0.00120401594932361
-0.401870163537349,0.150349117294444,-0.0103664152599376,-8.68799205502565e-05
-0.30222543993228,0.308837655807079,-0.0224834313656438,-0.00463568335244198
-0.121971395297765,0.429416628282148,-0.029660623962297,-0.0116755434466981
-0.0483070656206738,0.421555484568665,-0.0301779595247759,-0.0166316096972212
-0.0802167579615561,0.290977013836417,-0.0104294653578541,-0.0159152963395425
-0.013920465300588,0.2028039730225,0.0311725037124982,-0.00993564447222383
0.237089535081138,0.171914141873886,0.0804500899815624,-0.000807647900409669
0.471376775433715,0.0585474457143885,0.123097388179458,0.00997131848433233
0.5224725893813,-0.0924036009241112,0.146239334574781,0.0200926182301085
0.477681394047843,-0.154836554606196,0.154417483383908,0.0265608973910852
0.397114027865072,-0.159380248277405,0.158200782082447,0.0285803400948551
0.171041091137687,-0.213046499592642,0.148038002316247,0.0271843292205024
-0.208388983412934,-0.334393800340191,0.107684554786386,0.022555193299722
-0.54850047978941,-0.369657531847441,0.0402269308711409,0.0130824445116878
-0.737842130633267,-0.256562017236987,-0.031205961625773,-0.00132653590323411
-0.823294525304961,-0.0872289892417715,-0.0918056138530947,-0.0152325233246354
-0.776819999199815,0.0993996055734517,-0.134690084353969,-0.0236268328987223
-0.527021662658763,0.236619067748698,-0.141274900723762,-0.0288319844004314
-0.167842244453422,0.245688508973323,-0.102823531405407,-0.0339044868103822
0.157049662449098,0.149132080801723,-0.0411852408703833,-0.0359727210608151
0.3977568545091,0.0853524326978075,0.0152200805554742,-0.0299341886541812
0.545630928081571,0.0875003918937395,0.0521401667941239,-0.0148526878052777
0.565098432518276,-0.0539721062858835,0.0798688893288679,0.00386150890031711
0.43562850520816,-0.32891703410988,0.114649236206492,0.020588321201171
0.233149162895524,-0.481598107940259,0.146199446669816,0.0334959250748696
0.0688415970642377,-0.502397151802464,0.170162260081787,0.0406724961543595
0.0160234975648502,-0.479229563560436,0.188662190143417,0.0406816185750659
0.043906265012622,-0.364458524752445,0.175368788304086,0.0353972447509756
0.050564749918459,-0.169943108433619,0.110155581095744,0.0270384065749511
0.0122340889441458,0.0765421426497844,0.0128924251243575,0.0150415105927193
-0.0449003249103279,0.356298485440844,-0.0794694695041227,-0.00161207958797323
-0.128514941553758,0.495543161936354,-0.135314185624804,-0.020616678355674
-0.201270417178322,0.437056277572593,-0.120743573453977,-0.0356752831556417
-0.192617705814634,0.386788049187205,-0.0453191224126244,-0.0398603237539254
-0.125018203326333,0.408904641558246,0.0182663499021486,-0.0319094344395253
-0.0439242864164798,0.38809188109243,0.0471960984973883,-0.0187320414041179
0.0447100277438171,0.21123832357558,0.0691007209014068,-0.00860476583261716
0.0833630298773289,-0.179719742534658,0.0642644041767208,-0.00359369957450285
0.0208674498817234,-0.563491409579626,0.00615676082054809,-0.00199621582855807
-0.0797548298369219,-0.611975131081816,-0.0881596461598323,-0.00318422919897607
-0.129917780733066,-0.395482841872159,-0.180441886724187,-0.00613132480483587
-0.102076783105307,-0.246357139096853,-0.224131234087582,-0.0089317854173112
-0.0398902853952204,-0.177827055160676,-0.186071891480718,-0.0111458170989971
-0.0103792602431825,-0.0376917293753245,-0.0939253209318139,-0.0109495608412131
0.00921682199284529,0.0903696287078267,-0.01343586976262,-0.00392081562769581
0.0650233985234175,0.128108006562779,0.0305181562030246,0.00969491065254956
0.145927404697922,0.162513591886602,0.0462555829703267,0.0225756720534094
0.220961406123394,0.221951437480363,0.0430308944027468,0.0272819750307736
0.241080004722238,0.226620142099138,0.0349455916978671,0.0210137646876907
0.183131801461885,0.134370254290003,0.0315952547615372,0.0064579819368547
0.0774373238746064,-0.0252031141105628,0.0293566348693087,-0.00841072894517487
-0.0216342454096305,-0.145244894502077,0.0233780191028188,-0.0153755544355611
-0.0772686642367569,-0.166819822058198,0.0195600565187214,-0.012720351063713
-0.119812472917593,-0.203564020175513,0.0207474835710793,-0.00605450069137909
-0.170383223748207,-0.248754853702415,0.0224147561318311,-0.0026431289542897
-0.165759880759007,-0.131763890677344,0.026770164048595,-0.00373061856157541
-0.0685230360234646,0.0996226865052066,0.0386943732576772,-0.00408205528932876
0.0533601658683741,0.28195341836809,0.0507891814856015,-0.000155448444448213
0.0878072940761689,0.416938382378574,0.0453519323538148,0.00590610934944616
0.0228402112523269,0.515111650821167,0.0103788365533079,0.0103256737678178
-0.0402780343877199,0.519292365833235,-0.0397643407004299,0.0105093335649737
-0.0787720954155726,0.388319249247996,-0.0849391037382983,0.00349909357048835
-0.141627271235247,0.153508990828834,-0.125625288473696,-0.0114615790351502
-0.243533881739967,-0.165554330851553,-0.143632940826083,-0.0271789044095539
-0.374926372346807,-0.550309985767343,-0.115246440487697,-0.0332343233849388
-0.401569348574958,-0.727636856399587,-0.0600385613086584,-0.0267652089702827
-0.168162202659913,-0.539299412976695,-0.00748657160554313,-0.0138935790655657
0.199239512890093,-0.192751142741774,0.0240225654325436,-0.00225987704786438
0.419384932940212,0.126518526425906,0.015936795845522,0.0055478538064977
0.381501934393143,0.354943528870171,-0.0276940737962675,0.0108061515358005
0.188496845709103,0.478132152225632,-0.0658791045620083,0.0140615695062938
0.0230146424710071,0.496540201643169,-0.0725616964566172,0.0157945619761051
-0.0332249102536437,0.391685935643694,-0.0608362738391062,0.0170167802803537
-0.0736560678298605,0.222516344037107,-0.037166855698439,0.0170313828350013
-0.166406046087552,0.0923616151733119,-0.00913142695645147,0.0151664299193025
-0.196884043948892,-0.0737158618287932,0.0128513014099371,0.0127732506680597
-0.0846168233261158,-0.355075955124431,0.0421850823209908,0.0117327531593665
0.0467856957208904,-0.597889056442987,0.0837958577645851,0.0119681325073788
0.0929352332996941,-0.611158624116284,0.122360385872422,0.0109826831944081
0.10245913428115,-0.34564952690104,0.148339138462352,0.00778924233782827
0.113105524999425,0.0535464755859537,0.151576538060997,0.00418727941389127
0.103648667998551,0.355675347282863,0.125917989394088,0.000902366971903223
0.0725750524272658,0.402257140612448,0.0878447397334374,-0.00291334379603541
0.0199290734330135,0.153801470023945,0.0586350079203748,-0.00752777061670824
0.018183395990308,-0.221677878280529,0.0463026888986327,-0.0124460668029769
0.121882585389675,-0.468659380355705,0.0494341445861422,-0.0161255821842278
0.190482236287001,-0.47721115359006,0.0590248811247175,-0.0152961944798823
0.175941482528211,-0.262771052799311,0.0553194557317228,-0.00728108458421282
0.182769990743555,0.112756716518889,0.00515435401741249,0.00480300937551092
0.122306144295732,0.561047412396355,-0.103760488954683,0.0126396899144592
-0.12411918251783,0.909211095437296,-0.211865143853126,0.0119657126916725
-0.383058602106375,0.916730139069074,-0.244433998912206,0.00836051559343697
-0.43038382984033,0.533730297763259,-0.219931917214367,0.00891166309756285
-0.322467379699654,9.12479769323848e-05,-0.202590570075916,0.00993402279511683
-0.249406943298398,-0.380657888818864,-0.187160223315086,0.00334466013548099
-0.196692660589231,-0.450785884429402,-0.129041332183709,-0.0104584741125854
-0.0435215518509249,-0.353193445781267,-0.032167692082001,-0.0246373213201937
0.169185133897768,-0.343075462549687,0.0524224096596926,-0.0305641148585607
0.316343339550629,-0.359529168577954,0.0882614292743503,-0.0243349126762904
0.346702482944469,-0.244977551012186,0.0801139038484922,-0.0106892194607948
0.257899292808658,-0.0742084195046367,0.059302510312657,0.00600037382240454
0.106069448572,0.0478573747174275,0.0461274162982694,0.0237426940005719
0.00928780686890841,0.150008003156824,0.0252020695183285,0.0369148826103477
0.00492104470372278,0.25841438535066,-0.000776303031930242,0.038405925927583
0.064817508227753,0.30540522058006,-0.00524546107433384,0.026969242717065
0.131181455884681,0.193735584825872,0.00920183908145233,0.00939849616075234
0.14077205813947,-0.0586689749152101,0.0343259099696856,-0.00600639715352753
0.118804442420077,-0.272788984140541,0.0635150351598813,-0.0148613335114892
0.0894438534802585,-0.267945162547205,0.0804048340480895,-0.0159119487893138
0.0701202641049501,-0.0297922459502181,0.0756603054197199,-0.00978358278738557
0.0953777276549251,0.280451205660398,0.0437585514806532,1.8966774196349e-05
0.111959196552191,0.553823804754297,0.00345510939962973,0.00839415096320978
0.101249963689843,0.694754183259421,-0.0103353770847698,0.0128457584341081
0.0933898860044054,0.541484349058221,-0.0116975069605927,0.0122657950027881
0.023897371442141,0.114522404001579,-0.0417747039541633,0.00544860979974559
-0.124094754731527,-0.426247014675667,-0.0935160727952942,-0.0055772432363733
-0.253900159182177,-0.848520896457968,-0.126892999287904,-0.0155636721943336
-0.349665656055658,-0.90124513700847,-0.130593898733698,-0.0193794277218317
-0.485507557114193,-0.590425407739846,-0.122669923530461,-0.0170886472903209
-0.613106660194592,-0.132023491128947,-0.104876954498971,-0.013827901622473
-0.572694093523165,0.235076613057997,-0.0810018590121473,-0.010936834329564
-0.299387135159347,0.353545957040781,-0.0678798171828548,-0.00652525187726908
0.0631887415062714,0.231151101650209,-0.0511470277817735,-0.00180440723595558
0.272222800792551,-0.0162594400672075,-0.0158262507081193,0.0031115080060283
0.331661048644455,-0.233597086248661,0.0332452184913672,0.00985906861142503
0.446733118849869,-0.282308316519661,0.0940266724713408,0.0166434819195814
0.577146738850679,-0.212837474405037,0.14863635371133,0.021127583879407
0.524313488079021,-0.260695478227185,0.172059500174807,0.0221835134028207
0.28405393088119,-0.318418860596953,0.148675921475123,0.0157647683613185
0.0451256089329966,-0.0500624770788233,0.0788548332322925,0.00033945946974262
-0.115259730359413,0.34916425690242,-0.00516088999162648,-0.0149229913197892
-0.250628126236419,0.478647464330399,-0.0562840908594292,-0.0200192537958486
-0.246088096260116,0.382283276474404,-0.060984756591964,-0.0175493998835093
-0.0620461705768914,0.349203135579117,-0.0545847882253647,-0.0156205004305862
0.0786004384046698,0.423345132369149,-0.0599949214262633,-0.0145410736159183
0.045432511723948,0.377422532171104,-0.0597673100151783,-0.0100205378176969
-0.0262433141304528,0.209611505603009,-0.0396581979598394,-0.00154432507965879
0.030153378389541,0.111836467944322,-0.0169188163245707,0.00694714707110946
0.16280337537792,-0.00634122369933865,-0.0138649801308622,0.0101808291613792
0.164181134556062,-0.239013041573134,-0.0175404881991484,0.00774116792105506
-0.0445245312275852,-0.400202168520851,-0.00405324667577378,0.00489796705412089
-0.249747747642369,-0.375402067858509,0.0123063799414595,0.00463725593788835
-0.265610581596669,-0.340245552919175,0.00595375375594129,0.00389278052869799
-0.186614962033332,-0.371037837383104,-0.00776310502562912,-0.000640714617366202
-0.141554921399318,-0.235130587155087,-0.00889070622916476,-0.00675612700624737
-0.0956083614982,0.0538528562578483,-0.0108468016062104,-0.0102018494289918
-0.0132108354720654,0.231850824201974,-0.0170360485258294,-0.0108462954030496
0.0229180477063385,0.241023844121883,-0.0141512365564198,-0.0109833541121781
0.0218243523822167,0.146790700721555,-0.0121040667161176,-0.00998869448844796
0.0450702329190646,0.0542717273509074,-0.0288169834490747,-0.00718355137949479
0.0141636921625996,0.0956114732919456,-0.0495604877287779,-0.00588333153258568
-0.0554803919221221,0.177117817735162,-0.0456592467751825,-0.0069107659105872
0.0119458725088528,0.171749016922135,-0.0148203876113194,-0.00708485509633316
0.192690128048596,0.158769083801679,0.0262838502446085,-0.00613486489542985
0.304804209514403,0.119067057232402,0.0647117830053938,-0.00507466880329726
0.318670216921958,-0.0118381737386929,0.093048879850127,-0.00327560063100053
0.30157701620894,-0.140520790303614,0.109505882414444,-0.000571915142687925
0.256092980494642,-0.242938285276027,0.108600368405371,0.00358259015529801
0.114069850172244,-0.412243884485449,0.0670353703854226,0.00938590104393512
-0.136210078074776,-0.479397186553828,-0.00599313273583588,0.0127655092540488
-0.327940371261532,-0.172060844940268,-0.0470972237675476,0.00923839209226666
-0.324746388738976,0.210876166285505,-0.0373387087576743,0.00252962292508325
-0.234639473662367,0.127873143331226,-0.0221542740206035,-0.000459366174792919
-0.17507667672486,-0.22577278223138,-0.01477103478612,0.0011241337791187
-0.121354289383335,-0.18342936148189,-0.00921670344302148,0.00535306068307448
0.0124359869595551,0.268864990176962,-0.0133719338934855,0.00850053596219022
0.186832088250324,0.586188752504231,-0.0123139577536633,0.00643737623396997
0.224409413797095,0.56037687120775,-0.0103469617463063,0.00215639663708593
0.123201116263042,0.339961447855494,-0.0350233143369171,-0.000113514342936943
-0.0800115155128516,0.041446929802945,-0.0625278029194158,-0.00304380891916729
-0.329197905134662,-0.0884670407231927,-0.0513803434982395,-0.00819214455907357
-0.291611545445734,0.140643300340057,-0.0161463568613478,-0.00941542738604365
0.0880760117922382,0.374500117858159,0.0150104073953834,-0.00221352838257028
0.346826810688388,0.218298265082474,0.0413945726611819,0.00809075848747507
0.18091013940862,-0.166208822620332,0.061809700050428,0.014385278945414
-0.225884023992125,-0.408238624772881,0.0728315431441675,0.014290733356303
-0.418144689663468,-0.422347322333293,0.0725275720184057,0.00910017671447252
-0.242514312175987,-0.342072960190113,0.0528653971035767,0.00561305048492444
-0.0274922327366626,-0.369662355433762,0.0229757431772708,0.00942967735816932
0.0418668447100541,-0.55606336951055,0.0238190843930623,0.0161963176625926
0.0421446089322899,-0.603820358554344,0.0668163865736646,0.0198339320780347
0.00637075711991738,-0.383864610680449,0.119366408922678,0.0200322560538199
0.00181133194099206,-0.170144784705223,0.162613010985839,0.0158225399009068
0.00839140774096061,-0.0975814484596468,0.174707582247679,0.00353877269458687
-0.124033763776465,0.0217676883932007,0.128147355542587,-0.0151725505063643
-0.281404032134052,0.317869761059184,0.0538613510182119,-0.031265683593406
-0.18152656680612,0.580285311880906,0.00951772790673769,-0.035272378746541
0.141387166097909,0.589345549972994,0.00317775366723316,-0.0251028647578571
0.427499106171129,0.443155072441602,0.0100909764914852,-0.00774739198612884
0.485304597456823,0.322992500180483,0.0136684097564032,0.00786504872809671
0.279113753561439,0.318554929613032,0.00143603716167089,0.0173086769074559
0.0116772713292637,0.30395132915504,-0.0487546369230493,0.0197053017755796
-0.168049019167968,0.00912217186352077,-0.126183366063962,0.0141123316344495
-0.367268894133103,-0.345941440676982,-0.184887522661842,0.000366394620018222
-0.643676344032127,-0.363185810857457,-0.201634472621268,-0.0160490632688373
-0.783444161473664,-0.24268776639381,-0.156458515915955,-0.0253617936754829
-0.527299138226998,-0.215913935540456,-0.0533973753546658,-0.0224799960094623
0.0119667712711481,-0.157083787452742,0.0445184999367978,-0.0117975407094026
0.431269888431645,0.00836164990114505,0.104601100153748,0.000251927322687646
0.475276385975655,0.195567975952252,0.135071724388684,0.013003464226589
0.284370363179951,0.276451328140756,0.142554806590463,0.0263411172414225
0.175560501440405,0.206849033050659,0.147516429997977,0.0363015702113471
0.171804296534914,0.0533459002449965,0.151178541744273,0.0391506408351866
0.118157493560675,-0.105668565534471,0.124958766881214,0.0322395278145628
0.0324931894719419,-0.208651358426962,0.0738512886590838,0.0161633069454011
-0.00991597392156113,-0.179524554105912,0.029946968913733,-0.00145677132374814
-0.0414413561162512,0.00140630009388304,-0.0171143549669462,-0.0145469633892852
-0.116810845785203,0.205481268116819,-0.0791518631588358,-0.0252408302788356
-0.180029491338187,0.241721731673233,-0.116499121237187,-0.0344470210406619
-0.162210708562497,0.137788340551855,-0.101824866211575,-0.0363479750785917
-0.0858489522361269,0.112644251433767,-0.0596489462383932,-0.0276104013851556
-0.0481744078503217,0.10651969665425,-0.0229669048879182,-0.016046524444192
-0.0964860381820735,-0.0454196059215819,0.00420637437578249,-0.0127522622862028
-0.165364232139643,-0.220729242870927,0.0326970346780742,-0.0177630544884486
-0.180338241876652,-0.312771867431537,0.0528092809146313,-0.0200491238040186
-0.0627950396040947,-0.384317036897721,0.0558785856662078,-0.011409707488145
0.154189874061836,-0.374902573682509,0.0579237678150411,0.00465519131054827
0.355827650128772,-0.106177361553918,0.0601772825755963,0.0207442464294835
0.491057028350726,0.318808695356278,0.0606892820706791,0.0330818838620099
0.539475278950134,0.519706839840266,0.0686949440773183,0.0415698567322569
0.517474263378863,0.332938057676152,0.0733051294768606,0.0469304284143113
0.453995849646356,-0.0492472425463931,0.0653726230124575,0.0450344636445573
0.351090254979787,-0.375242794620101,0.0557811040939873,0.0316798740248765
0.163639166107013,-0.519362033733216,0.0564562069662441,0.0120531582416112
-0.14928727468849,-0.485364760031448,0.0575496988730157,-0.00507197003312865
-0.505672224646766,-0.35795398817098,0.0220980235944831,-0.0202441547469981
-0.751254501437857,-0.150701645605608,-0.0687049482720143,-0.0380434996093343
-0.803618547447681,0.183443123119584,-0.170810078151227,-0.0511834016164743
-0.630963042500896,0.421033793901016,-0.199626015046879,-0.0483652777051618
-0.305828213804768,0.36211622573281,-0.116839755075342,-0.0315637738643993
-0.00774911081872542,0.250867427826287,0.019058908384448,-0.0103995196601584
0.231717770844003,0.215386924170118,0.12009369151251,0.00925028051194505
0.462569198190762,0.114683836720894,0.170229644917767,0.0239226622565718
0.630009062631653,0.0250624859672446,0.2117282123217,0.0317611538382322
0.678838398881687,-0.0190246443019882,0.242678538046059,0.0360549294590447
0.619129882785261,-0.203212085819586,0.211549944232842,0.0409104590026898
0.45672861099152,-0.483051346424013,0.113963853674382,0.0441285840498485
0.23844601552602,-0.428560667552294,0.017976822419157,0.0376026615011373
0.0691092873593242,0.191541761491487,-0.0256529407441631,0.0150596298680735
-0.0451137899167099,0.780413621602891,-0.0452801634671047,-0.0187319772702716
-0.220486071295315,0.742972528130702,-0.0741746977505487,-0.0498530469851569
-0.493110159155154,0.324034581005884,-0.0934105955094367,-0.0676975524646929
-0.675409615832603,-0.111638708972843,-0.0803672019416201,-0.0700094663909502
-0.641902764052223,-0.574275392884854,-0.0494542317632294,-0.0567292627851131
-0.518087707302059,-0.904969996383005,-0.0311810967721741,-0.0314871067363911
-0.37916457471216,-0.714379740128658,-0.0344736594234196,-0.00510446508034935
-0.197864539186804,-0.154963580899323,-0.0521798464822036,0.014914003302982
0.0562629581378039,0.234016721318157,-0.0632149224221555,0.0282618139349598
0.404309737859196,0.331883240957316,-0.0491820306707861,0.0341226766256607
0.644077976287348,0.31841691777428,-0.0150166244973717,0.0310489280116644
0.578298362041677,0.235673347925998,0.0245171052162385,0.0211051286312045
0.36208109650626,0.0920492166693587,0.048594896468405,0.00879269537240399
0.15967788802759,-0.00508719316136901,0.0471981406005595,-0.00246037675809207
-0.0500237059187814,0.00605283444435868,0.0311625338680887,-0.0109641750997493
-0.232875393787268,0.0636585908700747,0.019045273506597,-0.0144809189904954
-0.289053022081235,0.085826874098177,0.0254529282534076,-0.0114809646538838
-0.195954714649922,0.0769526346140477,0.0466727260662174,-0.00471703159043311
-0.0075105887003466,0.0412962919324228,0.0791954577516393,0.00208313271425831
0.212377383805573,-0.00253355894865503,0.12172771943713,0.0091302539443246
0.384291699756711,-0.022270568121208,0.150647279946467,0.0154684999735196
0.41340530400893,0.00940237178964734,0.148301032892898,0.0143394675273079
0.276659637819326,0.121861424117632,0.101552110523467,0.00228333145117113
-0.0231362224482214,0.176963856962812,0.0103248730191989,-0.0151851732361167
-0.482513340372287,0.139584019181205,-0.0734005123739333,-0.0301821008953627
-0.881766837664475,0.0646922385709196,-0.112388055786673,-0.0377161237462738
-0.925466292522982,-0.148088791518443,-0.131484282518759,-0.0377838410482228
-0.631259382560624,-0.310897993588269,-0.151138779156935,-0.0334471313901892
-0.191874777884441,-0.173526149522506,-0.143413247925755,-0.0239521772530671
0.246260587157773,-0.00589695463270509,-0.0888330254396121,-0.00527482469742246
0.504248665434757,-0.00238693817021336,-0.0360973329458327,0.0196634434025132
0.45837426113162,0.0130539927527968,-0.0296270308081275,0.0388845171340368
0.251372143033131,0.108085576937992,-0.0556666636459916,0.0434798607681766
0.10580201279258,0.236885940376549,-0.0913115400058172,0.0345519425121938
0.0311158963375366,0.229167479775619,-0.0977088210026865,0.0174866704049709
-0.0556414891051169,-0.00125130601102152,-0.0534782833884359,-0.00148012602180594
-0.127130398372574,-0.202711163363929,0.00194269145200548,-0.0142611172108095
-0.111115683952331,-0.257095255515206,0.0442101361163378,-0.0157036113739489
-0.0108272704732492,-0.278092182692376,0.0786466872867235,-0.00977498702969608
0.128938596157603,-0.263365034362551,0.0929941773944531,-0.00430442740896954
0.211646499159079,-0.147924239417935,0.0821354037856326,-0.00195002102833768
0.16867472271429,0.00418160742648899,0.066494380220669,-0.000777685940066612
0.111241774830581,0.026356373468772,0.0659359175214967,0.00206359694824395
0.0662109239196987,-0.0916650921236734,0.0776554000572883,0.00841617678441594
-0.0818256549791553,-0.131583786249456,0.0774460082540747,0.017485663864814
-0.25765786589884,-0.0267348215842932,0.0592929738107985,0.0266717304859931
-0.359033099761255,0.131571470347679,0.0421214845576739,0.0337431418234219
-0.440496720915396,0.250077383897306,0.0370457549708717,0.0367141200488521
-0.489533763327283,0.198391377373162,0.0472743291018566,0.0320023247896752
-0.262314334179958,0.0664196279938642,0.0632636661541636,0.0174778375526508
0.269500441799397,0.0354358201638351,0.0539515139796424,-0.00323059827318379
0.625693972396167,0.114053536503947,0.000507522022945711,-0.0230222703968028
0.524034565793547,0.0665548922075327,-0.0986184192736847,-0.0359914974755474
0.148118095085741,-0.168565824814962,-0.215529766166936,-0.0399662063317918
-0.259733276725691,-0.260766094984723,-0.278152629314958,-0.0373897629088071
-0.477686149520397,-0.298125615629723,-0.244931222600688,-0.0343028623248375
-0.31254459826395,-0.440365488343922,-0.145541126110633,-0.03371755430146
0.123262247766244,-0.450181323133007,-0.0380820875566953,-0.0287619902772024
0.462597472674196,-0.334127184126724,0.0370007734264182,-0.0119029117042386
0.490198961701313,-0.194911530240563,0.0605924723244212,0.0117253294464978
0.287304099658358,0.0462778102796055,0.0333141787473252,0.0290633931329928
0.0542464208833908,0.367645818384,-0.01801501776736,0.0329069104974391
-0.122946444639335,0.565999006078743,-0.0508946234570516,0.0281942422201176
-0.252226779937217,0.481281296044308,-0.0229613038363657,0.0235630252704788
-0.31023862161794,0.230916589203885,0.0654425047375954,0.0222369638800135
-0.278040689561555,0.045093626795478,0.148510010895541,0.0240008974757613
-0.199361590055034,-0.0541335030906966,0.153492024167978,0.0269774215856034
-0.0660933690299353,-0.0353022030064401,0.0910151526680102,0.0262459908654875
0.123469275316306,0.190210470727141,0.0159174011440077,0.0166030798250531
0.235786204830534,0.336935782659892,-0.058581860088322,-0.00153990319244336
0.242366203071242,0.123212231773185,-0.111866611374509,-0.02259719506602
0.264242308257229,-0.185327737903376,-0.112202752173861,-0.0408189278866057
0.296818925115089,-0.260335259254127,-0.0837481452219422,-0.050345534003009
0.282192368142176,-0.155246601152457,-0.0635839127395793,-0.0460755950349487
0.25483733720046,-0.080092141601833,-0.0429909724218997,-0.0294178887947484
0.228168426524495,-0.066783079849188,-0.0108375230399658,-0.00940077496090951
0.196735099302807,-0.0554823163364485,0.0201848525316179,0.00522613265192737
0.148581196573599,-0.221399313835366,0.0340885808334183,0.0136548339352662
0.00517928340295837,-0.521021807733138,0.0171567284031403,0.0186045548884327
-0.210644930977216,-0.497972489201363,-0.0141567192989569,0.0193180559563693
-0.388023897716071,-0.245179698358705,-0.0252350281151788,0.0147001536902948
-0.579119246872974,-0.296584886067411,-0.00296700087921334,0.00773525311333915
-0.75612292542217,-0.527821365250855,0.0299952266172953,0.00443287536485228
-0.608799636249243,-0.413573450313115,0.0222805639403093,0.00583951029483964
-0.0991099397583786,0.00497415461094153,-0.0357634064982333,0.00392345512954349
0.350821218076406,0.319987050919333,-0.102078345462669,-0.00636281893622357
0.555060057435576,0.55833436689252,-0.146072127138515,-0.0194322147120137
0.63496738842583,0.849581319128756,-0.1713679158039,-0.0266700312886389
0.583296524277734,0.928579898187197,-0.168875932749763,-0.0262200274514137
0.336319160734532,0.656163942982124,-0.103617546208648,-0.0230720308711704
-0.0501643723606169,0.239757044209662,-0.0109946473188653,-0.0186889187221826
-0.367711693067793,-0.116940526756303,0.0372725085481833,-0.010705813525215
-0.457373211841335,-0.339624615033115,0.0471766667316611,0.00183230101750179
-0.345169724682346,-0.339885244058645,0.0656267310948454,0.0207799415489706
-0.119135227185825,-0.155414903039609,0.101824281162002,0.0426628814857099
0.153566104085329,-0.000782989113945129,0.133695238171939,0.0561923217384861
0.400963011826347,0.0290080735004391,0.15253546963191,0.0561770417381815
0.490520173166665,-0.0619780313477572,0.151991482552547,0.047425341032724
0.365642913766831,-0.166753129148473,0.111924525862473,0.0350632501691445
0.108880016089402,-0.214126569351951,0.027048370220417,0.0195757075782619
-0.238939754894731,-0.277446165295123,-0.0805016697553255,-0.000672733797894322
-0.618531983964496,-0.371236958803712,-0.168848850548844,-0.0248257651553516
-0.735126480442748,-0.359574533371948,-0.203107392645719,-0.0466621329984005
-0.394475056244503,-0.136570343577305,-0.188473947146322,-0.0563145188496611
0.130589683116197,0.00833496972182096,-0.140672727714399,-0.0488172773457738
0.436808873654839,-0.114391760924899,-0.0674836903990897,-0.0304200316863687
0.394411847676665,-0.176359931849546,0.000538660824275894,-0.0117853083601768
0.157522522821393,-0.000457691481965561,0.0181683080775101,0.00402553433606696
-0.0963109743058225,0.217480193000274,-0.0235023162570218,0.0212828105288983
-0.317351652815715,0.387614554457048,-0.0794664739058347,0.0391019124981327
-0.46849409201245,0.497764898765421,-0.10955967587019,0.0479496072386677
-0.446626852893186,0.434714867314782,-0.105948724297068,0.0416195102925194
-0.203397479476407,0.226535004607704,-0.0608733719067574,0.0267543903984665
0.110868241426663,0.00429440161778993,0.020193785196328,0.0164875597559123
0.304033977933002,-0.14104747586761,0.107908756506689,0.0143129025629677
0.380542441305233,-0.175312953292971,0.180676677243096,0.00966800799735613
0.410986546149796,-0.153445069741546,0.215334442124286,-0.0044367172936347
0.371346134355719,-0.0421610062725472,0.193892855770321,-0.021954185488961
0.252740540865091,0.173735961597712,0.123220895846085,-0.0357336641402336
0.107412216508109,0.189388889310434,0.00634171244513182,-0.0412516056967002
-0.00518164363443802,0.0113744338820419,-0.121330985345733,-0.0354025255237312
-0.00411213182069034,0.104218805049107,-0.180566563361664,-0.0216188219036459
0.0693644793189887,0.312154465773965,-0.148466364090745,-0.00732413462792096
0.0970708006996822,0.33155836487346,-0.0750527423803133,0.00580325763597305
0.110690867229738,0.470997971729097,-0.0127681103302032,0.0227011526805245
0.130269679792452,0.673685612547592,0.0139639698317011,0.0431783412557748
0.0318248719475606,0.431806429971555,0.00935478748859803,0.0586057470216565
-0.248556349220867,-0.153591991656231,-0.00105624110107234,0.0606429022922452
-0.474778430664204,-0.476324136439368,0.000877133692761562,0.0447656434635864
-0.472705038469904,-0.495351222629846,0.000935365142472755,0.0123568954664102
-0.442681763024553,-0.493939892040384,-0.0179551479073004,-0.0275866799850317
-0.397717706106733,-0.338588538215728,-0.034432140801475,-0.0618123354696317
-0.173853578481028,-0.0522545867550003,-0.0258790388201801,-0.0761626465846341
0.109998560763912,0.0837316103805003,0.0053277716581615,-0.0643956646727399
0.312741101672064,0.0429028992491995,0.0481768180454094,-0.0355591510490208
0.387589007711855,0.0466217479670305,0.0794913032599008,-0.00619588607271777
0.27872562724631,0.137515443809317,0.0854781060534233,0.0133794751888471
0.0495386104772387,0.0648556552315506,0.0715294617314641,0.0231795566150175
-0.158902889824448,-0.105386495559509,0.0451426317271263,0.0254290186039427
-0.313754111274269,-0.153450984886088,0.0168166930235015,0.0195998761758055
-0.332452254493476,-0.116770590490145,0.00120984441988793,0.00679961588418242
-0.0771397578079883,-0.0678958789746402,-0.00634969321665554,-0.00835380446245591
0.234732461247229,-0.0242420563882341,-0.0351372006682988,-0.0218094323127539
0.327411526091643,0.0840715962234433,-0.0818297702039101,-0.0331677138817401
0.285842794974654,0.179837423306846,-0.0806132831387693,-0.0420233485999631
0.231998686887992,0.112799535489956,0.00335897952463331,-0.0415142648403269
0.163545932786425,0.0167790271431741,0.113341335303506,-0.0243309393526106
0.0913195675589815,0.0871225784511691,0.181715383423045,0.00383196007159654
0.0415904758488683,0.278257980399481,0.169909935261703,0.0282285379171385
0.0308905638534827,0.390570539403424,0.0741572074270817,0.0364502748489405
0.0226743332780868,0.343261983757892,-0.0586406689057255,0.0229960593583197
-0.0423869777262162,0.24430779186163,-0.16921263788684,-0.00474462907771796
-0.131978250613986,0.190055886495896,-0.199965452512532,-0.0283977131162621
-0.185273532484586,0.14381325153333,-0.133257401010891,-0.0336870170029232
-0.135936744921653,-0.0398096098539714,-0.0267510289722664,-0.0214659756962759
-0.0266019788627234,-0.273921118806411,0.056164885119099,-0.00126855701606508
