0.0140067308745181,0.00497639453648538,-0.0373088324742143,-0.0012642773132561
0.0225214087152169,0.0228619291634644,-0.0398980058659876,-0.00114273173002734
0.0387661159439073,0.0352659967387997,-0.0396370328571472,-0.00072482316503143
0.0459045633634896,0.0408160532361897,-0.0316576268638355,-0.000344770123129677
0.0225433090780173,0.0427636681319478,-0.0145038330608019,0.000176964523018072
-0.0161760176087033,0.0380659292587837,-0.000600895385264498,0.000951060801302074
-0.0297324252631676,0.0232015032436001,-0.00645600330808285,0.00141879053502565
-0.0122041730476263,0.00219507276257954,-0.0269618134930887,0.00112266485887053
0.0110646120698313,-0.0183568353785196,-0.0431705961341393,4.02658134202533e-05
0.0260841441629501,-0.0426673780001482,-0.0386940170736041,-0.00143900616008105
0.0312771455415496,-0.0688362516552344,-0.0103908433040502,-0.00264518927866597
0.029587618870297,-0.0770739782704636,0.0205400090855561,-0.00301296678624571
0.026877614903097,-0.0554321740520072,0.0291616611431594,-0.00230004054398469
0.00970392889266899,-0.0109914444776796,0.0172095573859359,-0.000965574421711252
-0.0320151742978719,0.0382698619205434,0.00433028800659131,0.000317931279129243
-0.0622695278034673,0.0660506844636377,-0.00679113960222302,0.00143345522818527
-0.0480383072425591,0.0567619546206002,-0.0216794904998376,0.00225556012394336
-0.0131339561472747,0.0254930520857412,-0.0305299516459192,0.00244423163254253
0.00734687359271928,-0.000688747536214021,-0.0265339307076661,0.00188857572965094
0.0125089322374711,-0.0111888806677564,-0.0153304826896589,0.000866599182253455
0.0142347833758382,-0.0126921841406591,-0.00266143542835945,-9.9281111502177e-06
0.0150956086490168,-0.0142852755905186,0.00878318230751481,-0.000379026424625646
0.014367505718093,-0.0135445948439321,0.0189226125306769,-0.000253676400849575
0.0114922657122853,-0.00482588814808789,0.0256343050532328,0.000213699475800657
0.00666387533694483,0.0050266099955972,0.0242606069119284,0.000620710853069652
0.000849487348483897,0.00798013628035246,0.017351720593614,0.000656345387287499
-0.00445409566705873,0.00574482941880056,0.0128559395029232,0.000355571680292046
-0.00381601625317209,0.00255199024882665,0.0133224385333266,7.21491553623344e-05
0.000345064086819248,-0.000485358583735253,0.0147621373288209,0.000132570343112469
-0.00169200822355591,-0.00497404291994101,0.0137844179709546,0.000424941585254722
-0.00873271917835569,-0.00922861596545958,0.0122852456752129,0.000768339518181705
-0.0132998063859435,-0.00970336823220945,0.0124207174897348,0.00116048932784972
-0.0137229715432847,-0.00930725685645796,0.0122997016433352,0.00145203173257481
-0.0142546177038674,-0.0107660420329512,0.0117975787437325,0.00149469810409434
-0.0173480054321653,-0.0126485649057688,0.0114423871140371,0.00143782577297427
-0.019663801815185,-0.0118303899195054,0.0106075516020274,0.00141127148231147
-0.0182851123967445,-0.00823399136323515,0.0118642873570502,0.00147705891481868
-0.0147441760933851,-0.00581889761835118,0.016237335176569,0.00152227661785447
-0.010095670057097,-0.00335100262703328,0.0205400466369437,0.00129690643211441
-0.0053469485895946,0.000160902939048107,0.0224133340135117,0.000784721314164503
-0.003733085157107,0.00247932757425741,0.02323860224043,8.04781562952601e-05
-0.00462620650130775,0.00306695301659104,0.02341104054066,-0.000525271344264281
-0.00583953513527776,0.00168348024166891,0.0209914354283159,-0.00081108255019515
-0.00594176527438267,0.000364689007212719,0.0178757642578221,-0.000877104546102231
-0.00467211746759092,0.00101735671767548,0.0167885780390007,-0.000723367222532391
-0.00444378856408874,0.00353058002263463,0.0169496911272548,-0.000384006392772662
-0.00537871262099098,0.0057220828477804,0.0152253685555814,1.62393871097142e-05
-0.00539586690385129,0.00532621245886441,0.00838844741737365,0.000216239543440697
-0.00627434431757431,0.00532363076802337,-0.000900565933428992,9.83085362593884e-05
-0.00855671157610288,0.00803135183780219,-0.00400896420349053,2.71889712783239e-06
-0.00971265291393646,0.0106083567903591,3.94437439510745e-07,-4.88748211868764e-05
-0.00820471830827955,0.0141565745840821,0.00333382830306643,-0.000195268308513686
-0.000642200581390868,0.0206639801904382,0.00122267487843759,-0.000261086622283615
0.00827990708303175,0.0236577332168787,-0.0041538578784509,-0.000154971611651168
0.00839550048630126,0.0196977362976838,-0.0082354131044971,-1.44837226284382e-05
0.000983282274591197,0.0119094545531313,-0.0113146608454082,-0.000108408458819159
-0.00540981993744034,0.0041961560524122,-0.0136292910992868,-0.000459558722312654
-0.0072263982952376,-0.00411052886217111,-0.0140337134068966,-0.000896092598032743
-0.0034666990143306,-0.0209602142296965,-0.0125696540067192,-0.001473475841794
0.00966780490663882,-0.0439927396834894,-0.00254188655444322,-0.00218979699492673
0.032066779591581,-0.057649607050383,0.0148388830892171,-0.00251910159210559
0.0468333795838638,-0.0540132999157456,0.0200478410090297,-0.00186898585259292
0.0253162972798812,-0.0462572160513618,0.0102200992705087,-0.000574512146451627
-0.0209924541893162,-0.0509197796290299,0.00380370820262392,0.00040340155376686
-0.0331392456758375,-0.0606773406254868,2.75663271008635e-05,0.000818871499550296
0.00448664461058838,-0.0589346843512364,-0.0145383019763872,0.000998182034830317
0.0420536408689355,-0.0439046072284925,-0.0297499202052791,0.000793857417754757
0.0529321711975946,-0.0202985858885435,-0.0344262836690784,0.000239635209301808
0.0520149584936682,0.012053936037403,-0.0352631288293486,-0.000154073207929218
0.0467005830560754,0.0390573460386978,-0.0299194834472061,-0.000481513423772815
0.0278033584543419,0.0414267695511895,-0.0147842171408653,-0.00123405215539252
-0.0193647339960469,0.0354268371552027,-9.07421978423341e-05,-0.00216076833243369
-0.0864521582361484,0.0449566309937883,0.0044716312020727,-0.00232862448615933
-0.136160411125447,0.0643615990331068,0.00150843612372594,-0.00124029865700146
-0.140142752743858,0.0750516455575826,0.000485104379043754,0.000736389636687504
-0.0997699323189497,0.0631726286312981,0.00813852155774853,0.00276956230890214
-0.0454194723141207,0.0335254111353453,0.0178585481539744,0.00397608045504482
-0.00407269037389146,0.00071887410658561,0.013770865708903,0.00371588119453286
0.0228681043893076,-0.0362909563582141,0.00533684659017859,0.00182101751148838
0.0342530245923793,-0.072314278703933,0.0203585851910645,-0.000879873133651799
0.0328397776333132,-0.0758511832319534,0.0525480778091832,-0.0027788190400151
0.0304246162932663,-0.0357903317389721,0.0621894976410366,-0.00295570441798977
0.0281892640118419,0.01061872551045,0.0372630105506204,-0.00187599820285938
0.021282250421269,0.0312114178789745,0.00478704245573028,-0.00092782196807879
0.00561996862337705,0.0301860709790042,-0.0145390243121553,-0.000894737486292464
-0.0190560415252047,0.0126379397939468,-0.0199033857654387,-0.00110912231316625
-0.0405106497738233,-0.0186242944786817,-0.0174752548801409,-0.000830564805112788
-0.0445397546235603,-0.0423106932383709,-0.0121975044474447,0.000332440957264834
-0.0333063685006382,-0.0369120870106918,-0.00738264811737603,0.00251197935767455
-0.0204151083861403,-0.00498891641496309,-0.00763778603953657,0.00479456221566738
-0.0182530460705778,0.0284032372415282,-0.0140678005420312,0.00580230086377992
-0.0237839676475172,0.0414091989457612,-0.018337146813494,0.00506197875212844
-0.0223857572265972,0.0307354320448209,-0.014707942576327,0.0032753322620755
-0.013913679264265,0.00881224022134677,-0.00688060279166101,0.00148761441580823
-0.00804175603907356,-0.00324122220035229,0.00366363791586098,0.000379203176012189
-0.00872637972756145,0.00168991893414593,0.0197135987727046,0.000104354433499411
-0.0157842672742831,0.015357295954227,0.0317259172276483,0.000408345315585288
-0.0260948030615527,0.0269378563686945,0.0259481245963508,0.000817562602521029
-0.0397421598300552,0.0268445571346962,0.0108811043728419,0.000591387645178187
-0.063189699285058,0.0233136092792866,0.00374182179407397,-0.000924940043465837
-0.0988273072780166,0.0304956873718065,0.00955097836168381,-0.00315284954004457
-0.123394112238294,0.0358809160843511,0.0264723088401801,-0.00445869385338371
-0.114204267878818,0.023473360560141,0.0467079003596906,-0.0037607272011258
-0.0865575630881437,0.00947151322204546,0.0520378038033134,-0.00142559355196785
-0.0534288534675262,0.017207711855566,0.0367653739822337,0.00097634518516655
-0.0165313286865789,0.0431896247072226,0.0177902491753647,0.00227636388157678
0.0148184482128597,0.062986854485125,0.00503028552625374,0.00254592649910386
0.0406150178537876,0.0563662087734174,-0.00504803139684594,0.00215764843003285
0.0533456926730489,0.0289139782457438,-0.0085981265210695,0.00149488943741714
0.0386626114277287,0.00661516768410146,-0.0038099420496238,0.0012362601896046
0.00770662556142371,0.00314981426963517,-0.00153386620027602,0.00185359712878132
-0.0192290999159298,0.0104450211082184,-0.00699335163493126,0.00269483921806949
-0.0376867015287601,0.0203662147459159,-0.0111991011825168,0.00241348992783039
-0.0511835311363688,0.0266603023988941,-0.00363309525771913,0.000887892697244096
-0.0621698162251996,0.0226362846841003,0.00626640963139051,-0.000779051492536125
-0.0703780200171546,0.0122239832279634,0.00486066275727684,-0.00192399696844237
-0.0702330925392436,0.00935679299761265,0.00539645087674866,-0.00261597065229804
-0.0540767270095864,0.0157095312041128,0.0195205761202267,-0.00287475980531865
-0.0171871545794923,0.0195793601005854,0.0324024489751597,-0.00245110855830009
0.0236487778350326,0.0106769312009355,0.0329082051617344,-0.00139260451854147
0.0385872720159852,-0.019309813481845,0.0233851005139432,-0.000113145742429734
0.0372632202932394,-0.0538085771429641,0.00601752327617425,0.000431967424866819
0.0484302421236534,-0.064119462923252,-0.011998046699538,-0.000568224453086794
0.0618489414720774,-0.0491444376413153,-0.0180999466333305,-0.00220679691072312
0.0509488311559242,-0.0268431302642085,-0.0138604685186993,-0.00290526703509115
0.0192261413216701,-0.00935368954327465,-0.0157007947299246,-0.0024422315701153
-0.00518678865700313,0.0031390781055403,-0.0276415159850749,-0.00167994246795352
-0.00831153366591053,0.0119701842459392,-0.0379003853735848,-0.00131500080739256
0.000668015830413454,0.01581815956285,-0.0390597175258449,-0.00125550452470979
0.0098033420293934,0.0166001892815502,-0.0324695150904942,-0.00101648489596034
0.0188079852683379,0.0179523425076568,-0.0221276348327109,-0.000716972431734452
0.0300528563398665,0.0199756218852096,-0.00964206245210396,-0.000606813860651331
0.0240165141049938,0.0240807444367622,0.00656702988310486,-0.000475056424007821
-0.0179989261625336,0.0323914957011389,0.0219343423479797,-0.000200413213488514
-0.0664493955344697,0.0375518682618894,0.0280518572415701,0.000329542496744199
-0.0744959609388989,0.0319920912561401,0.0282641069082709,0.001301356049336
-0.0486941815977123,0.0234610917549921,0.0270378054731821,0.00254278021365774
-0.0205028959301078,0.0158114892351084,0.0147187808669427,0.00356933255146165
0.00763771207881127,0.000809093900173107,-0.00718483599408467,0.00370924054973422
0.03355662833443,-0.0164425891281654,-0.0199736956637752,0.00254644936739365
0.0461464282952617,-0.0209212913372696,-0.0225372180786166,0.000601285848222896
0.048996971691872,-0.0123843808017807,-0.0275867559079559,-0.00130947306374332
0.0507372095132271,-0.0018784560342012,-0.0337809271374276,-0.00274191155746663
0.0495401175611232,0.0089640410161241,-0.0331882626614846,-0.0035642010322115
0.0377902238005513,0.0190020423719755,-0.0265227059444648,-0.00388022496389282
0.0166891361723138,0.0174814396477639,-0.0209005271664615,-0.00374253699808229
0.00368988925383816,0.0018936897227281,-0.0183806118119541,-0.00316260756885229
0.010458553834172,-0.0225139346051498,-0.00537121017840493,-0.00223965019378139
0.0210690213491324,-0.0467773607276477,0.0147101301309094,-0.00114337233453911
0.0241988390684191,-0.0599270102122875,0.0106670094787947,-0.000161203405373846
0.0273782611439895,-0.0688703528218073,-0.0125040442049962,0.000322305322841731
0.0294568425276961,-0.0835851706680681,-0.0109129090662423,0.000262167529688291
0.0242137704828811,-0.0919955625783132,0.0206213006143949,0.000387652802914067
0.018167103734848,-0.0800746385925457,0.0381656503222822,0.00134442352397353
0.0204480531178092,-0.0536703183179972,0.0154101397841988,0.00263973349787772
0.0275545470429922,-0.027417151489902,-0.0255171092064238,0.00320348110033932
0.0319911965042256,-0.00681680682443744,-0.0501562536851443,0.00265260505716935
0.0307356610271931,0.0146904041599555,-0.0489884372411246,0.00135867275229102
0.0282146053537005,0.0373822837894969,-0.0339975616744164,-4.47269281311125e-05
0.028389250832058,0.0502014042697063,-0.0205621886324044,-0.000986109325441939
0.0254090161050109,0.0521575683541946,-0.0117801591264052,-0.00129492316290386
0.0144949730030039,0.0407793520574062,-0.00287554657334981,-0.00125101661222165
-0.00728317485709758,0.0133927011037329,0.00368048266962747,-0.00144854396493269
-0.0419388247805702,-0.0108759711403575,0.00674434508863013,-0.00198440323809414
-0.0728011954385877,-0.0232366480629589,0.0104499618661921,-0.0020586896310272
-0.0734474865740891,-0.0293784888226127,0.0145181018743558,-0.00115580655277251
-0.0483123574099438,-0.0210176096375156,0.0193497723978114,0.000264594524843396
-0.0275810980512607,-0.00562886398495513,0.0230806834391555,0.00151861480012099
-0.0213755559518397,-0.00556102078412084,0.0201425746595051,0.00219245954931077
-0.0134300671399083,-0.0200081777181392,0.0126072748421085,0.00207958728506712
0.00248171161698256,-0.0348725957584299,0.00487186077894146,0.00131287704930861
0.0136083797663848,-0.0389013340753993,0.000427229819870695,0.000308987539447535
0.0163858670373407,-0.0294245271559706,-0.000507267584655681,-0.000556124367221424
0.0191135494256046,-0.0153378564685624,-0.00331459209879512,-0.00102470387440241
0.0242824386007942,-0.00637655534680221,-0.00810243736861652,-0.00105469524380881
0.0260140081561781,-0.00324911702591986,-0.0118030905398783,-0.000768908738773458
0.0230721611061522,-0.00030752576266399,-0.0137721122947669,-0.000324164975369312
0.0207391513297981,0.00171810833422347,-0.0117349183679048,1.13478917958649e-05
0.0199358829501146,0.00213235512405293,-0.00618330410441652,2.38876133220391e-05
0.0205931030106673,0.00669481615617819,-0.00233687438013927,-0.000276291191437535
0.0231642234153721,0.0170201112199842,-0.00240787464701238,-0.000635893330398306
0.0214430500784227,0.0292663410510868,-0.00141668850737629,-0.000548513933198741
0.00991258609937661,0.0302149589193704,0.00418680902416918,-4.46596892133491e-05
-0.00843894820689033,0.0137726236632235,0.0108696899761031,0.000143209208867042
-0.0320044660553481,-0.00332794319687376,0.0181768854180947,-0.000107583277248065
-0.0505737517822483,-0.00562656123881745,0.0233374182206783,-0.000367010835967636
-0.0391820519480844,0.00301796948906485,0.0183060247584144,-0.000359788072981444
-0.00477548328921342,0.0152306398746621,0.00745632491155405,-2.99275122947224e-05
0.0146390760892125,0.0290414219824325,0.0014008977146775,0.000273601552124659
0.00962649208613425,0.0346144247556076,0.00148442752295584,0.00029024493868036
-0.00290056071633881,0.0281573822190247,0.00677400006178651,0.000445754239225099
-0.0116410123235774,0.0266451385917575,0.0152931740510605,0.00117320268712632
-0.0105404383980723,0.0362805838802515,0.0178684481290837,0.00215074938098376
0.00367913013494542,0.03640251202732,0.00779967043434561,0.00277065618793904
0.0203702541339469,0.0167295998769666,-0.0112526640204052,0.00256434106729283
0.0237554500701194,-0.0062095569797495,-0.0246966746402346,0.0014480335684612
0.0203116707513892,-0.0241908172280123,-0.0239700425320006,8.40115053566126e-05
0.0222378207758778,-0.039562645618182,-0.0164352257648535,-0.000702255270265112
0.0212681746129375,-0.0440559078078039,-0.00879889586665305,-0.000762345515068263
0.011884027844773,-0.0359742145966544,-0.00457456910037223,-0.000433974386853143
0.00239912879708227,-0.0210156410372063,-0.00140621408781573,-0.000237068010112334
-0.00181764632145717,-0.00154803177011285,0.00529660631282577,-0.000773005946053462
-0.00419175071682536,0.017963962791856,0.00848386184477038,-0.00184679452827275
-0.0118473595516476,0.0406105088609233,0.00677477803822669,-0.00261214782459615
-0.0334047626107462,0.0640123650137756,0.0105076350635681,-0.00264932735860486
-0.0513231470895256,0.0684075404228486,0.0122267447163153,-0.00181065081581299
-0.0277631728757311,0.0494242170483275,0.00203986703647865,-0.000417198063320599
0.0281507114187817,0.0276925981526394,-0.00822845518325823,0.000479604746395246
0.0739427390411419,0.0276094806981601,-0.0111172090320567,0.000247171204156043
0.089172532468472,0.0489119284151615,-0.00935888924728038,-0.000518980797184424
0.0793615630223267,0.0678048778704481,0.000330306173519049,-0.000623271163857272
0.0589885570673356,0.0726577491847073,0.0176404198041058,0.00082122194501368
0.0438537799585308,0.0606424212985063,0.0341734571215195,0.00345082221969745
0.0459887108279634,0.0224353076700155,0.0425199327639416,0.00559067492192252
0.0600549304703845,-0.0382528797158409,0.0334554904746441,0.00612243731955729
0.0626522212601448,-0.0895483264944131,0.00621112721768705,0.00501331443045505
0.0257439526765543,-0.102785397398239,-0.0286705244234189,0.00252182106344104
-0.0549931416562094,-0.0883363724358737,-0.0553660427993658,-0.000635287534104703
-0.125476267295599,-0.075225116227341,-0.0576284055270027,-0.00309613066371874
-0.126623165475807,-0.0714302484769621,-0.0379914432213458,-0.00349424136424347
-0.0708943417371463,-0.0664882360114373,-0.0133499262101399,-0.0016529520517223
-0.00191267321957554,-0.0551581243041259,0.00127843751057518,0.000969841327752098
0.0518611761265925,-0.038095610479664,-0.00214851851530807,0.00258471289958329
0.0737345198454998,-0.0237968953521125,-0.016582797063341,0.00238968592739401
0.056945496300519,-0.020778209220949,-0.0273710596732386,0.000722458182034219
0.0202410900826377,-0.0185307172972076,-0.0316336171911504,-0.00134921113670077
-0.0010025398307116,-0.00451231909880886,-0.0340865601333716,-0.0027002634707817
0.00520878532448969,0.0125586207725558,-0.0338124708712454,-0.00245186461291976
0.0217991449990334,0.0189431071645623,-0.0300699731060607,-0.0008198186874724
0.026262296819867,0.0168200038630109,-0.025042183293053,0.000875153751185393
0.020153184676672,0.0106826472961365,-0.0186475868786461,0.00186027524798601
0.0181941727074296,0.00593136633250589,-0.00818122487529759,0.00218427493805851
0.0164860181888263,0.00680196535391452,0.00577916521300025,0.00200130093201338
0.00569872189494403,0.000484709161330744,0.0196384272916845,0.00157106813561749
-0.00975419388181891,-0.013982359815793,0.0326620720007111,0.00117465562578799
-0.0202528653244337,-0.00853528935348222,0.039997258684875,0.000942233563077508
-0.0243360566714407,0.0232078052136435,0.0386592071081036,0.0010527028371845
-0.0258678188282011,0.0359373197544969,0.029305085421998,0.00159072261734418
-0.0256655316985589,0.00243772185171381,0.0116559630346423,0.00195934469470709
-0.0242081854080618,-0.0449477125670935,-0.00541411174627083,0.00134529067695879
-0.018372806859289,-0.0684826175254466,-0.0115545790479908,0.000170298155967352
-0.00680704288263816,-0.0644874656458303,-0.0121561849526841,-0.000503677556989326
0.00538149960438304,-0.0549419178243578,-0.0181158220429405,-0.000637586129926389
0.0177156870430419,-0.0503174119374109,-0.0276418406439487,-0.000651506492890937
0.0305966672692527,-0.0419732142487364,-0.0321184257040155,-0.000588326832773638
0.0418856050267048,-0.0307030612218806,-0.031356959235184,-0.000570569292944596
0.0477546965077187,-0.0282671510778854,-0.0331064189463414,-0.000752925501568392
0.0458174605436347,-0.0362057264692664,-0.0382306301780763,-0.00108504972872483
0.0463572581253463,-0.0370067707880355,-0.0378301353268633,-0.00159766621968627
0.0543809367333538,-0.0134805786511322,-0.0268504659478959,-0.00218355275181879
0.038832415892519,0.0303045254763518,-0.0113375542450533,-0.00249576875688141
-0.0136239228019644,0.0778388072134232,0.000818053370078009,-0.00218702290028815
-0.0468771919829973,0.117388701280285,0.00329352486684114,-0.0010946600370421
-0.03297296496134,0.132233127575186,-0.00494152729478686,0.000333947666604893
-0.0181753822516425,0.102333909334033,-0.0164603714467531,0.00125874036741773
-0.0345717561170061,0.0454675398474614,-0.0282365898978874,0.00108425809956537
-0.0560118694335663,0.00289698277691755,-0.0398326167285515,-2.70376196068575e-05
-0.0349324340206795,-0.0154778568451266,-0.0501977833391841,-0.00146316363300719
0.0374849529035445,-0.023276727580726,-0.0595979630165277,-0.00323771813064799
0.125325041904296,-0.0313489701573905,-0.0595404163858993,-0.00561194903911447
0.18292352468223,-0.0452641522331888,-0.0325100073145833,-0.00790035069444415
0.166442567552666,-0.0472828262186113,0.035196164525855,-0.00884045029759201
0.0375209286086918,0.000431947596862207,0.114525814295472,-0.00721485962330279
-0.143361042964982,0.0813121195138387,0.136177953826913,-0.00270621891158311
-0.213613295291871,0.117743552904384,0.090552884280953,0.00279196732011159
-0.145315825754886,0.0923987458685111,0.0419373514169396,0.00676553915357135
-0.0612256850108903,0.0624949207050527,0.02750122433067,0.00808037900146786
-0.0176753943257852,0.0709088956725031,0.0341460521433341,0.00703602665792052
0.00023637392121971,0.120008760673645,0.0370609237791748,0.00520561457238468
0.00303382214427059,0.152247902968258,0.0211423216585148,0.00377294328802361
-0.00510140254367224,0.110921243323284,-0.00822406847615612,0.00234621230310648
-0.0296580311906709,0.0448869804469954,-0.0297136637892342,0.000530518145360811
-0.0719098313838154,0.0207399233584168,-0.0376066031200328,-0.000956420518172749
-0.10924830802733,0.0142512668076678,-0.0507442055995379,-0.00167851184832984
-0.0945058693078609,-0.0189135568156297,-0.0724044875591308,-0.00228198091717798
-0.0245314094450725,-0.0704412784278036,-0.0882587216398954,-0.00271324586726708
0.0229531650348773,-0.108057451730784,-0.0964660125169918,-0.00259768131790995
0.0121218153798673,-0.117358932518682,-0.0996660299896382,-0.00320603510938807
-0.0142651466501878,-0.0982969511767912,-0.0895411244175584,-0.00533140077206843
-0.0319222996061783,-0.0610664988122125,-0.0755171525051695,-0.00740036163312745
-0.04016403379994,-0.0343101133258893,-0.0753577675658731,-0.00757886028888952
-0.022641459083162,-0.0388883245497034,-0.0751854982591693,-0.00554807821140039
0.0242524029523914,-0.0611973190310294,-0.0592745584415649,-0.00236550984925243
0.0696101356062409,-0.0724122838634265,-0.0341157836644902,0.00080586279558386
0.0881654279139042,-0.0545731563827367,-0.0119655719885074,0.00380745659477039
0.0770252852068547,-0.0145991041388102,0.00603531052113118,0.00673399220348057
0.050433835164484,0.0153250220448666,0.0219969722409608,0.00904947214116827
0.0346964214646317,0.0085873833553349,0.0321030622833223,0.00995576630005577
0.016333140075549,-0.0277736733925966,0.0433681487337222,0.00915257293186924
-0.0411526595482473,-0.0646015343350423,0.0447738169837657,0.00695119938165972
-0.109097929522241,-0.0776616942165105,0.0169553948006494,0.00363383477100215
-0.160158811838454,-0.057685164465996,-0.000158281061013094,0.000155440181539134
-0.209452153944133,-0.00706434995076827,0.0281538931685403,-0.00138947544832692
-0.219432926097517,0.0411520556898061,0.0619980206873579,0.000199705469227871
-0.15895367445793,0.048469025801074,0.0590891023500337,0.00364126368492057
-0.0667279256314977,0.0240996110939273,0.0239092028566976,0.00598907958873346
0.0263989349559056,-0.0117951711784086,-0.0253620657773552,0.0053466206610742
0.0989828991720049,-0.0494297537164074,-0.0713715243687511,0.00242934164768231
0.116674496398054,-0.075864723431894,-0.0886247057320624,-0.0011119454269126
0.0808448352050104,-0.087243821935722,-0.0754054105997427,-0.00421880152471195
0.0272523790601382,-0.0731709923066564,-0.0545082859484716,-0.0062021053105023
-0.0112699540595152,-0.028452619200254,-0.0309610841087554,-0.0068570288469295
-0.0196122554045621,0.0122153185123318,-0.0181870942431461,-0.00681172630360569
-0.00780644704101748,0.0256611900558215,-0.0396046892517993,-0.00686226848644928
0.0197566876283801,0.0434220163364758,-0.0676552200949008,-0.00712852564364356
0.080509057725327,0.0594579428122575,-0.0571345935610984,-0.00692583891123982
0.153470243250876,0.0196711599686271,-0.00835988701303243,-0.00544701585834313
0.19261329863603,-0.0513513944052907,0.0432152091859865,-0.00239597754638876
0.195076969447964,-0.106194448365136,0.0467252217902809,0.00162111124419396
0.18368165709468,-0.139083651352888,-0.00367113636887934,0.00470043467500021
0.172873649414169,-0.13962519680156,-0.0353205036654142,0.00517194324180677
0.160541942320961,-0.116387661073693,-0.00451757891923193,0.00395013335402095
0.138761338281903,-0.0817907453930757,0.0470979767917044,0.00321841300455297
0.0881658585911014,-0.0493058676652495,0.0928366659837578,0.00334159407022316
-0.0227148158155643,-0.0500719531273595,0.144202607714156,0.00405310064038106
-0.149471737128447,-0.0595410105794038,0.167870419623662,0.00661077752355786
-0.181810857520543,-0.00705096021485613,0.125117787848866,0.0113443818667704
-0.121163906372359,0.0972631774589102,0.0487057857026277,0.0146739994365397
-0.0651162093424805,0.172319288356198,-0.00339805054158462,0.0119444579189004
-0.0425487269019448,0.177265510354177,-0.0162395929857289,0.00330588424039159
-0.011931913147255,0.140396037686716,-0.0143214306923797,-0.00632335116180953
0.0353294950513416,0.115002770104925,-0.0101439042648972,-0.0128175216068557
0.0645829795191496,0.10859485908384,0.00664918686442322,-0.0153987404535177
0.0671774545209844,0.0863161600224854,0.0348020175401082,-0.0149359893105516
0.0577941169679398,0.0439075859720048,0.0594142055318563,-0.0124625788732405
0.0438006523598335,0.0103022407851976,0.069107083785533,-0.00875733418185853
0.0275086961898991,-0.00408844966092391,0.065403626498125,-0.00474539759718517
0.027465157874927,-0.0161428572936167,0.0655530483034283,-0.00144965390976041
0.0575251317311634,-0.0289419623287346,0.0748067498561191,0.00107639875587221
0.0829051946692655,-0.0377327249174345,0.0676923125830442,0.00317544896151343
0.0739875295094514,-0.0587194471692703,0.0326706637578598,0.00443740866897303
0.0465396786986992,-0.0915035562867493,0.00344661091305064,0.00454884444124808
0.0212844334837123,-0.110407835791517,0.0016579084855201,0.004361925384572
0.00446223187278526,-0.110860580276829,0.00494935440873824,0.00475335241970017
-0.00491421580196461,-0.103915062494895,0.00809990287670943,0.00536536016669428
-0.0153494614029417,-0.0820178297603789,0.0239241579362394,0.00530017547290526
-0.038176018538632,-0.050901115853843,0.0415614378614378,0.00416291868536475
-0.0772332931703814,-0.0304543223448976,0.051349061605035,0.00222086818479332
-0.104245686694261,-0.0175402838103409,0.0573584164228433,0.000126837192248579
-0.0780960929335285,-0.00451999517658894,0.0647149466745934,-0.00119022249371517
-0.0205040167051138,0.00203643396227018,0.0698430713165862,-0.0012826581345097
0.0109008195337876,0.0014600022146822,0.0688461760771115,-0.00107994970135945
-0.00116575189362232,0.0214800221000357,0.0694398818142657,-0.00138773512881745
-0.0241132051230097,0.0737211179920713,0.0680615471623396,-0.00126255716904632
-0.0272101938187207,0.12071875587887,0.0457514575509851,-0.000159044579628392
-0.0341604356598222,0.114809474297602,0.00462023100218252,0.00087052066522032
-0.0786054329793958,0.0583538760317868,-0.0327758063003934,0.00140141276437236
-0.121425860050424,0.00212330999213628,-0.0674684778653078,0.00166917783334469
-0.0976385791668017,-0.0361499856936969,-0.101348785810023,0.0013036512044034
-0.0317755873474068,-0.0730562193336261,-0.114309970863657,6.04700923030116e-05
0.01344505827629,-0.106561648180777,-0.110128742876965,-0.00159341714309737
0.0393292229599135,-0.123083186043011,-0.103154368697164,-0.00303670122187559
0.0665309725849076,-0.124294984750199,-0.0852945513055735,-0.00419962899621168
0.0812630767552799,-0.114768579640017,-0.0480851536338611,-0.00539801507227537
0.0602581063509896,-0.0873173190360077,0.0202987015658212,-0.00633218913650769
0.0108947409699146,-0.0397631179068827,0.0997498829043958,-0.00570905380706621
-0.033262995916367,0.0405872856374154,0.125550475516236,-0.00254987771416413
-0.0622306978519073,0.155614201082891,0.0959889866616669,0.00197997394442899
-0.0790578619251831,0.226904172004107,0.0561657398832484,0.00529399168917894
-0.0781377203222165,0.183033451184623,0.0194922250966973,0.00558976141785008
-0.0747855928861873,0.0719423105191533,-0.00047387959578634,0.0028049604929879
-0.0845628262589236,-0.0193451829225741,0.00702123109976341,-0.00111372867474347
-0.0849096897457898,-0.0562551542625529,0.0161621582411603,-0.00356060960526908
-0.0445749551149277,-0.0567565735040067,0.00668523548848481,-0.00361617411906076
0.0250188458100371,-0.0485682391619393,-0.000134388921182359,-0.00225065208152491
0.0779523892275293,-0.0356392637295987,0.00616259226348342,-0.000802335138754238
0.0977271561473299,-0.0161022562646279,0.00909786723329637,7.47058742831936e-05
0.103307509077667,0.00438445071624902,-0.000907297519603431,0.000339687990852552
0.0995847736872146,0.0181334490463653,-0.0187752205247126,0.000129732268612739
0.0820119221464849,0.0204537543088226,-0.0334125673205104,-0.000360688196510948
0.0524743256779389,0.0176884122094907,-0.0428928961935504,-0.000916291165298137
0.022272347666295,0.0211151743431657,-0.0476228519451386,-0.00120876795566663
0.00206234727858638,0.029883413955218,-0.0516108106724915,-0.000975951527121525
-0.0229501169844466,0.0379361825473292,-0.0594006874967839,-0.000601125055750203
-0.0609370125235444,0.0546457212927508,-0.0553508759766135,-0.000649528761772467
-0.101251109971906,0.080193802066653,-0.0328079521616443,-0.000916091310260948
-0.125625674308675,0.0835537721615672,-0.0126909834065133,-0.000778431081898535
-0.100339218722794,0.0536900501898693,-0.00402111119442647,0.000165078784944433
-0.0294130926385004,0.0247690328949108,-0.00200220954933872,0.00159698359616452
0.0295454896796328,0.021169147719519,-0.0103231257943858,0.00220750990419992
0.0453867099243847,0.0266844019182328,-0.0246209819409322,0.00126453425015599
0.0332396962453398,0.0335222324685726,-0.0257401470539884,-0.000431442078296617
0.00916269530223436,0.0520114295683954,-0.0121055704715608,-0.00145596070308125
-0.0102612338214351,0.0543044855624089,-0.00138153149181126,-0.000786047113584466
-0.0100808650635404,0.0187491859900195,0.00101099836990236,0.000984294215470102
0.00682317571682718,-0.0189683391313327,-0.00399777472658214,0.0020737079723738
0.0330772443335674,-0.0345678052213586,-0.00389314193825231,0.00149260523855612
0.0596237303512973,-0.0339447453457217,0.0186518382092512,-0.000130462231896084
0.0702518157304966,-0.0167584147952531,0.0488895666054258,-0.00145360227698918
0.0545003927572682,0.0113005301986586,0.0663500925095314,-0.00177411518353484
0.0215174514769053,0.0358297017875817,0.0757987231168266,-0.00138900737859398
-0.0215915713663682,0.0489527773157763,0.0879637433748034,-0.00105196376106135
-0.0722197581504676,0.0430735041326179,0.10967702740724,-0.00107679693534407
-0.099977973873095,0.029512723316269,0.129051550764702,-0.000653336131604615
-0.0925877788207546,0.0485871234948549,0.102971935762937,0.00133397905221176
-0.0807292465489469,0.108922014556571,0.0285279621819711,0.00415900691922797
-0.0643084618357179,0.154807729595296,-0.0345025680794168,0.00567103854283125
-0.0283535000154269,0.138938077029931,-0.0618115703507049,0.00486193129410838
-0.00375234771071273,0.0889618985425764,-0.0811469792819086,0.00231293370897782
-0.00503446567383381,0.0413427021151137,-0.0961174621953269,-0.000720377848138069
0.00210108909490497,-0.0164379238831945,-0.0902830518096952,-0.0028644631195107
0.0404831790153771,-0.0953588540281729,-0.0913674855732173,-0.00319662504947425
0.101732987432522,-0.159921166183036,-0.111228400144733,-0.00224228655291075
0.147984197459844,-0.170313008282474,-0.0891404079114391,-0.00163676024560049
0.141956290270513,-0.147603390152142,0.00236092093595561,-0.00194838756015247
0.0746782826594803,-0.129664579221414,0.123363771509873,-0.00196776100316146
-0.0489670959808445,-0.100758799158092,0.226577779768794,-0.000246792651612123
-0.161695729436227,-0.0246807658309058,0.27094923353724,0.00339733984784179
-0.163947774845203,0.096128069657037,0.232877356590087,0.0076527294614633
-0.0803732354799473,0.196592707844559,0.126900190679997,0.0102995707720548
-0.0228067977239946,0.197221099751169,0.0158664049504638,0.00967004131945525
-0.0172551634418098,0.114390498959586,-0.0473216415043521,0.00572680329673735
-0.0211919874860569,0.0340912961982316,-0.0634518515057832,-0.000112662764000781
-0.0242291650914849,0.00343804735008586,-0.0451989331554471,-0.00510268371978755
-0.0111157988523829,0.00442904271240768,-0.0320615155236102,-0.00705640160371416
0.029706897663894,-0.0172227404008942,-0.0667263325024563,-0.00665414851385363
0.0544915921196387,-0.0755242330797809,-0.121053433025363,-0.00593937652758736
0.0477085606414872,-0.126728216286229,-0.14829189837765,-0.00554003623050094
0.0490605876456362,-0.143464101854268,-0.133782703027481,-0.00490896651044183
0.0731418995959293,-0.126132062010055,-0.0898180169879155,-0.00377363447678449
0.0728703169791584,-0.0739701881674111,-0.0541230245431423,-0.00208811797702893
0.00760459982389451,-0.0207444252813638,-0.0317759328369043,-0.00010614521647037
-0.0728336293008269,-0.0206026076081407,-0.00307239893025088,0.00142464796509913
-0.0781468233393075,-0.0667138790274176,0.0154131537408702,0.00193946780084298
0.013205681020108,-0.110508610895485,0.0166033169344544,0.00164200035470621
0.123772322864278,-0.122380076103749,0.0215906218638149,0.00119083221902441
0.157439548527237,-0.100839421958126,0.0440773018754291,0.000941293971290822
0.0950517878654264,-0.0449917540106326,0.0928494379639499,0.0010253372839034
-0.0111603945536845,0.0526144758134977,0.13241072987712,0.00191486392899664
-0.0921123094593609,0.151188977595484,0.111636256032239,0.00378695796938862
-0.120998714870911,0.168465450833909,0.0645062415410282,0.00615632192674246
-0.114790629686153,0.0868736706025352,0.0237712701494389,0.00866097935666233
-0.0877921087426838,-0.00783719843050748,-0.0432291269683218,0.0102959007221541
-0.0534163580664233,-0.0422217002937831,-0.122805024799104,0.00932243705986029
-0.0200989680830539,-0.0293468421302963,-0.158759245724792,0.00523732756204397
-0.0016426002172182,-0.00902315297157659,-0.155432962459845,-0.00025755809320376
0.000608037090739366,-0.00752529408554142,-0.157794839639566,-0.00427647320954031
0.0200304480754306,-0.0299781358297435,-0.170724898884268,-0.00545218412878254
0.0480624279701941,-0.0502414223710779,-0.166943596921048,-0.0052131874430062
0.0471392740427158,-0.0473477443000985,-0.140349180124562,-0.0054087381313817
0.0139262655248571,-0.0246439610906312,-0.106761760244313,-0.00649333555433744
-0.0308617760739236,0.00734058430142791,-0.0743543258578734,-0.00783588337872324
-0.0436163146327748,0.0248504101768926,-0.0401055341269387,-0.0081169818091704
0.00192654205867079,0.0225551809356552,0.00688262590985739,-0.00633181094877102
0.0542152993593027,0.0246186860792644,0.0482689064548721,-0.00235421147888834
0.0525968294513769,0.0220867070467738,0.0397107672633326,0.00279391533153863
0.0226804001615474,-0.00243156856910424,0.00329849268823546,0.0069193340324081
0.00265434780455689,-0.0250248953075674,-0.01220885546521,0.008487683880715
-0.0101932819768437,-0.0269727986113535,-0.00720807926523479,0.00770028912356573
-0.0141213997910536,-0.00818668864791858,0.0112178012142678,0.00583850483950268
-0.0243708027155799,0.0128812604083299,0.0172849963137361,0.00438041191539467
-0.0735891090879566,0.00639544610466603,-0.0194243324970913,0.00346601340683502
-0.143500341044393,-0.0111563942166448,-0.061420165133524,0.00182637932906759
-0.171956831625045,-0.00700193235077416,-0.0641521047366518,-0.000758024630099312
-0.112596683185098,0.00435693227053831,-0.0399884343334967,-0.0025163970720739
0.000348631424563733,0.00217470224211837,-0.0224497954191729,-0.00163145869065467
0.0698543361868382,0.000243746342889067,-0.0269924783002826,0.00142993319418652
0.0794879680261517,0.00875184686525661,-0.0270734231115342,0.00367576332323882
0.0833724716453099,0.0187053905621571,0.00486854336098087,0.00295502313101143
0.0985102584366817,0.0192097274050666,0.0546487815718524,0.000141117935797407
0.100652079499095,0.0200837780342156,0.0929147061872292,-0.00294588875338309
0.0493611076393659,0.0519818745669504,0.105537187154041,-0.00533284162401947
-0.0408519612681683,0.129838029952021,0.102161292408868,-0.0066521683826154
-0.0879625194692931,0.214247847999786,0.0907058944305221,-0.00643359126684952
-0.0686481648485759,0.2238071494214,0.0628813218403173,-0.00462750606623796
-0.033279889657783,0.137425152586014,0.0173132811149627,-0.00220810497815235
-0.0105340406652986,0.022004337652821,-0.0300344480068174,-0.000500456939659708
0.00356949833805007,-0.0564256872572014,-0.0561613821506995,-0.000346081326671395
0.0236603784101676,-0.0931413506151662,-0.0534845675138251,-0.00136657610438812
0.0555848733831065,-0.118189917455162,-0.0383590980060365,-0.00238396369449005
0.0715231453575413,-0.141041364307874,-0.0341075482945285,-0.0025996283604633
0.0428851114611391,-0.143506880016183,-0.0283643570835867,-0.00198856850736242
-0.029070037015754,-0.109733828837241,0.0187323225302743,-0.000663202090562787
-0.102227294940783,-0.0385304065764566,0.0743444212066247,0.00155828878117416
-0.122981757151153,0.0462455529841303,0.08168597344212,0.00403535098602919
-0.0996629265670756,0.0826556885560174,0.0761497619120027,0.0055382651400368
-0.052092178161132,0.0503741211818365,0.0886010080549615,0.00608852408492538
0.010954566048489,0.00490588737584874,0.0846650819101283,0.00624173568730464
0.0461211498382533,-0.0221829867979522,0.0494196139346439,0.00530285607224343
0.0281005186561083,-0.0350306246632672,0.0114999172426396,0.00219108085515187
-0.0166582798996741,-0.0285325471827024,-0.0048247331427575,-0.00248802060794908
-0.0305483608270405,0.000319717126896435,-0.0133491410235501,-0.00659563395144134
0.0172818947394627,0.0402556387748667,-0.0289345768392951,-0.00854107513016002
0.0787121434385693,0.0667454480401515,-0.0354797437130682,-0.00828102830611315
0.0957227048515049,0.0727303957223183,-0.025320343448015,-0.0064997837023302
0.0717197353570113,0.081378966511262,-0.0113097244473425,-0.00388376227165111
0.0390170007825654,0.0983430911730858,0.00414969341451883,-0.000963594457462117
0.0179398489758737,0.0902135703962811,0.0198909061985008,0.00192660015239931
0.00794377920594869,0.0443077052268884,0.0208216291591893,0.00393763018772592
-0.00260279086863868,0.000535235504085602,0.00505010060690938,0.00386266889517669
-0.028111423770383,-0.0125597269695752,-0.00174468384260787,0.00170533449505235
-0.0790081880953947,-0.00983192930640901,0.0172624233587895,-0.000718663610222246
-0.12524564594835,-0.0164400631612793,0.036431540530773,-0.00141384384674884
-0.118008978833991,-0.035823816555531,0.0273349196390057,-9.88255073886913e-05
-0.0676808083971295,-0.0450143392013752,0.000847890185375649,0.0020615251403638
-0.0243974023861955,-0.033411253951318,-0.0250086178316548,0.00351314982748889
-0.00746633851966881,-0.0132184808083285,-0.046505501965535,0.00336919059602696
0.00804538453819618,0.00274751444398459,-0.0562534463965179,0.00198027401088995
0.0390447505245336,0.00794746906080167,-0.0507558500533284,0.000228106544344557
0.0616245515964828,0.00958375108027067,-0.0322516644534994,-0.00109431649950874
0.0655472248258388,0.0185061512618573,-0.00136108633306299,-0.00159558910303892
0.0749643267092729,0.0395043799237368,0.0227968188621039,-0.00162082118533358
0.0874321107929522,0.0785751599184917,0.0320825895470428,-0.00190776443984306
0.0581955514309315,0.126196976153307,0.0546284783038515,-0.00230284824176738
-0.0145479550283787,0.135677752777581,0.0969661635047725,-0.00137205929502137
-0.0644557340932564,0.0938360697396268,0.109500960828643,0.00162043699349705
-0.0671544066148772,0.0493906307472044,0.0576183037292779,0.00509885724610566
-0.0633059429862946,0.0056524634245399,-0.0135487310884846,0.00652338193698588
-0.0709433965846855,-0.0643627853781487,-0.0476068256980843,0.00473645009890129
-0.0720072767035835,-0.131220143547079,-0.0297216019000509,0.000877782474267699
-0.0571469516054543,-0.149202386404431,0.0107312607875518,-0.00221618729131484
-0.048197770393484,-0.114284916688581,0.011196972990409,-0.00263104695902339
-0.0530270806394342,-0.065050408609264,-0.0321883093975838,-0.00164727841828898
-0.0285511586357977,-0.0449791549572975,-0.0591312665251114,-0.00157607443647882
0.0335333121120064,-0.0474386507383587,-0.0503360763514554,-0.00254253169749352
0.0732647279996002,-0.0364379190186789,-0.0322965006688023,-0.00312605110937275
0.0566094244335073,0.00603642560080206,-0.00989196934449557,-0.00269821151184692
0.0109639826510939,0.0763504748673531,0.0205443912739126,-0.00149041441166086
-0.0134560069757206,0.120155683124802,0.039027290532047,-1.02340144552421e-05
0.00472480071626528,0.0897372154996544,0.0380043655530893,0.000959711131996976
0.03240541194879,0.0259892719226734,0.0377953156074093,0.0012358507052478
0.0353953568068643,-0.0129464031922959,0.0441961271512175,0.00130625171730538
0.023162368282684,-0.021448404770786,0.0405571817988029,0.0011737185367374
0.0116828964736781,-0.0168187293306747,0.0280703919995426,0.000322941029273179
-0.00271815241485047,-0.00157304481833056,0.0258859709388055,-0.00103192411164296
-0.0192778446404381,0.0160038861530058,0.0335540501319256,-0.00213270908784304
-0.0304790251648392,0.021478487547578,0.0372703259189074,-0.00262477905762171
-0.0311853291789776,0.0290004502278882,0.0300156773007264,-0.00231589358405837
-0.0270463882426425,0.0453037248361305,0.016156226323441,-0.00124696578285467
-0.0245887149224595,0.0475083392649847,0.00711542070653003,7.32540266725002e-05
-0.0114161627270723,0.0270062242388189,0.00156604046741822,0.00117539033156785
0.0137798606598902,-0.00521621764675172,-0.00696776692034842,0.00191793198974047
0.0363464544027514,-0.0317736811903198,-0.0115453459412755,0.00235965966036356
0.0514072421570801,-0.0463276947979967,-0.0033370655298725,0.002511000322101
0.060541899310263,-0.0565492019440856,0.00953363500581712,0.00235313864738024
0.0582158068246558,-0.0540439136023307,0.0148644504373813,0.00163228470598048
0.0290426449279407,-0.0359966930650914,0.0183718209451555,-0.000186978186560068
-0.0319216623898893,-0.0161778665813827,0.0383372738211821,-0.00261142255423996
-0.0741611785491279,0.00391223816421894,0.0597676397438979,-0.00395035079721603
-0.0383785833416798,0.0205912170946856,0.0454982216331593,-0.00312753627969706
0.033091006257381,0.0261108847057093,0.0130528871322488,-0.00062080583891641
0.0641324181960883,0.0204008918278817,0.000790323612190474,0.00183164654877329
0.0663916566957002,-0.00598907040224479,0.00221036781574716,0.00260946574909736
0.0836335112012977,-0.0449743392405213,-0.000487629950338908,0.0014179760657217
0.0970167313633407,-0.0629920249915748,-0.00365233783433024,-0.00105189761037111
0.0594536668231636,-0.0579962559867737,-0.00356059637071399,-0.00342138253844326
-0.00683533959313047,-0.0701047981942812,-0.00426435895034907,-0.00429715693982625
-0.0210182056113863,-0.119010541721358,-0.00790819649701125,-0.00323735160210047
0.0291739443762327,-0.168471644474776,-0.0199268341332267,-0.000987659626289149
0.0675466715364185,-0.177564061643279,-0.0338753146580681,0.00113268865768993
0.0764044443932953,-0.145148871392605,-0.0368367647959045,0.00221958440019088
0.109049112193421,-0.0923241158291805,-0.0354770580131236,0.00213872124496493
0.131839014152765,-0.0292959407010989,-0.0371899566684688,0.00148974454125974
0.076514229673224,0.0509074747920294,-0.0327897370858233,0.0010805831111462
0.00446534356200276,0.127243670368723,-0.0165123194460702,0.00121793467512946
0.00818013362528795,0.158234103489757,-0.0034608630121602,0.00153032898611809
0.0472543969473015,0.155342010644095,0.00152423096886293,0.00152484269253354
0.0164917163250415,0.163189327116802,0.0100317782087146,0.00122664100224311
-0.0689727463516496,0.188368999734117,0.016534624642705,0.000852817337522443
-0.0955600503721421,0.173033964226957,0.0109396685915353,0.000673352943097735
-0.0419131790391221,0.0901957594823674,0.00430500942541001,0.000796812123451661
0.00893368687349513,0.0120988296016482,0.00544576181295824,0.000805482494137956
0.010501731965655,-0.0284103791512741,0.00232747852425065,0.000206324573160979
0.00560723369605759,-0.0635291496062862,-0.00573295366487573,-0.00107928576500067
0.0336784438473998,-0.098653957656195,-0.00226591947048773,-0.00211001298120603
0.0691103534684145,-0.129861120480673,0.0115112681554272,-0.00166940300444724
0.0915805969705255,-0.142607108680667,0.0139712288816283,-0.000149415350459289
0.102863148306449,-0.129010287170114,0.0112427363064819,0.000489636562775917
0.0942583605978279,-0.109558019082239,0.0184947165255559,-0.000406156733651768
0.069765044088918,-0.0881829316641932,0.0120371779572037,-0.00145919247140857
0.0470636712102091,-0.0562535970224409,-0.0117327212212741,-0.00177020133543868
0.0407527928067467,-0.0104386439373728,-0.0335219504982605,-0.00116722951715118
0.0504804275062487,0.0518010914499228,-0.062117619885437,0.000124067514290845
0.0739517150597654,0.109621712908235,-0.0953256753541806,0.000949310937564851
0.0948254297873711,0.137448571820096,-0.109372879652421,0.000248133477897803
0.0488507048953605,0.158880792457096,-0.0852100257645129,-0.00154653361675427
-0.0571866082169163,0.186780071639838,-0.033848491919725,-0.00266194339877731
-0.109584645621164,0.181776085074862,0.00638980485035677,-0.00168422674201071
-0.0711862208962768,0.144460259836659,0.0178551902437273,0.00100819867260626
-0.00485453138976701,0.0945629366495894,0.0101662350264644,0.00322513471922933
0.0273205920039756,0.0197221899932253,0.0224526786791758,0.00275689298469465
0.00522840356811206,-0.0475884710381645,0.0832221762010095,0.000139781494613541
-0.0260289679229872,-0.0756472446038759,0.157252850917057,-0.00148548465668309
-0.0140636254319781,-0.0837992755493807,0.191148242224975,0.000417493106198212
0.0252828780513556,-0.0718749095116844,0.14651107848958,0.00528288697251145
0.028262047411158,-0.0438423306130709,0.0422373631503482,0.00929152643972588
-0.020741259684042,-0.0193981579150293,-0.0350229020255645,0.00866134695444103
-0.0401995598746948,-0.000876571467908649,-0.0512708163563885,0.00369451036762905
0.0112347756374906,0.00963035116374905,-0.0403696568312483,-0.00221555861770492
0.0640289799948442,0.0116461775231181,-0.0274852908148805,-0.00643040877073559
0.074059065403026,0.0143711164369556,-0.0223363276755344,-0.00812817932135301
0.0690077296520477,0.0175908649459127,-0.0274574707466516,-0.00767810505724941
0.0675933589775732,0.0148207222083586,-0.0385533379406492,-0.00639732903092851
0.0531116567186443,0.00815670435238883,-0.0417927901157458,-0.00529266227123422
0.0334607674225753,0.00656403916401815,-0.0343209711371855,-0.00396472570751895
0.0296069280743069,0.0143121915746158,-0.0190700516927773,-0.00192790988444927
0.00990719311850469,0.0285969194319859,0.0102279829471055,0.000278734300953529
-0.0281552775747708,0.0367737958469803,0.0380492083327677,0.00186006462142942
-0.031332723293678,0.0133801905945732,0.0450602221984993,0.00224326950171957
-0.0070268672223729,-0.030021424551495,0.0374483571624011,0.0017577780562063
0.00369095119049946,-0.0802652150470104,0.0247094219638119,0.00173602420561856
-0.0149384591685822,-0.167943582195886,0.00854845754757785,0.00241704351141294
-0.0504259678866825,-0.264376321953927,-0.00516100518190291,0.00234537514705898
-0.0505942643855181,-0.288462848146119,0.00496553976781774,0.00103322387142667
-0.0407208624962934,-0.223686427479734,0.0496961350696115,0.000491270046902025
-0.0934490639557412,-0.131176188029752,0.0909672293487769,0.00259947081552675
-0.11689018083977,-0.069700780084865,0.0887877246859245,0.00605037427973903
-0.00697495010678509,-0.0530557205011479,0.0518346361719292,0.00808175825619985
0.129578262062393,-0.0657810583364029,0.00233005393641741,0.00779303978911228
0.181675934642395,-0.0632633242156998,-0.0406203787166629,0.00546643568545016
0.161103906227841,-0.0154457907477086,-0.0524519992651206,0.00126342763321746
0.0658837646324245,0.0861948176143395,-0.0221886676694562,-0.003880604660936
-0.0652063994216586,0.208796170736546,0.0251113655690302,-0.00754752562030486
-0.135798568790358,0.25156567093235,0.0329679889609474,-0.00763212334464192
-0.137420836054923,0.192665601764788,-0.0155717925374499,-0.0051390027587104
-0.126774514426372,0.106845893327838,-0.0600056232664871,-0.00290115316146427
-0.123060539556566,0.0306836279131625,-0.0741869573189699,-0.00190765318820339
-0.0978090465538687,-0.0367150366176908,-0.092957996520587,-0.00132424686252649
-0.0375765342329629,-0.0988861693238839,-0.10855945294062,-0.00101279663961494
0.0295609612980213,-0.140130979582433,-0.101459782419546,-0.00179436996550872
0.0653914941835938,-0.145396717368077,-0.0657031476233747,-0.00368162826832192
0.0679712043671551,-0.140102120715044,0.000673679483917403,-0.00504855010768733
0.0735168433247659,-0.126674585943376,0.0577838733519056,-0.00424696348849954
0.0901698103484465,-0.0745942187212279,0.0840290932245419,-0.00166181788138388
0.107123219298288,0.00554959908024857,0.0969423427507669,0.00127083764564154
0.11671848421391,0.079170329165977,0.109733165512129,0.00407266629623124
0.090035591367238,0.132505388929174,0.102005998984959,0.00728654263389311
0.0419833483483709,0.138939055140921,0.028583944001116,0.0106007669676061
0.0255096010712331,0.0782891307623633,-0.0722798189476915,0.0116416340755753
0.0434744788460024,-0.0077032965486364,-0.12271106026963,0.00890306415636003
0.0679249173455791,-0.0596843357541981,-0.13112705768137,0.00396065882835298
0.0799034170484045,-0.0484021620101775,-0.123433017721493,-0.000724010126306983
0.0666407462412749,0.0116820695853277,-0.090083066423344,-0.00376038583949095
-0.0218113392836791,0.0641932576129545,-0.0374921521596613,-0.00518828442259528
-0.191244758853046,0.0771746283775998,-0.00681040433608256,-0.00584737090326041
-0.280556318310443,0.0760739041675336,-0.0168856069611816,-0.00591783333904854
-0.183061099449991,0.0748196408993378,-0.037624309314571,-0.00468213934264511
-0.0236543180705637,0.0616236647397595,-0.0528068599495394,-0.00220896326823808
0.062000767045526,0.0356853876036963,-0.0647156836539708,-0.000425570807829634
0.0796956363317385,0.00366485958036368,-0.0591659496421799,-0.00122971691576146
0.0626041650655058,-0.0265143404266909,-0.0222029210131701,-0.00358121873520698
0.0198818440785485,-0.0367689424711254,0.0270452419473624,-0.00410030574499489
-0.0181655723651143,-0.0313478866137913,0.0455659625453832,-0.00124048030385169
-0.0180710447170899,-0.0298272699993739,0.0295090396328541,0.00290289675060823
0.0247970638338131,-0.00709030300088964,0.0157312443178128,0.0057387130630585
0.0589631750830504,0.035936447217571,0.00701981443254039,0.00709215416103303
0.0532366080953687,0.0562843311176598,-0.0167437587114805,0.0078779195692464
0.073190213524934,0.0429095160758895,-0.0357545486220349,0.00779099211503864
0.141910600810336,0.0147981978329568,-0.0164855850764206,0.00574523551316826
0.185036536888525,0.0119463502889802,0.0243313916235308,0.00192116173646722
0.156748974741772,0.0404587830110688,0.0467867484365034,-0.00199901219598044
0.0788094487281982,0.0482702642596828,0.0497740560510524,-0.00431843523314061
-0.0113686072939182,0.022451179075265,0.0493878028875843,-0.00463837199506679
-0.0908853569125836,-0.00344813044092403,0.0449766138595686,-0.0040030302219453
-0.12597089451266,-0.0147652054641183,0.0235669521412578,-0.00320006467445453
-0.0955014271486777,-0.0163435945713838,-0.0154201109016377,-0.00207934761982291
-0.0402333505760129,-0.0229332552235133,-0.0474751653236312,-0.000774841908286601
-0.0117460749933278,-0.0270382913897331,-0.0525098533780075,0.000220677376343275
-0.0128115931276795,-0.00843558797202473,-0.0320921070606458,0.000709564411118667
-0.00941278323046208,0.0134027322111518,-0.000312390950836284,0.00108952316496186
0.0161201654206644,0.00890240680109129,0.0172834172380554,0.00207008106862559
0.0361486528139488,-0.012570839236908,0.00627800288265955,0.00365842614402807
0.0320185133147909,-0.0251066298756643,-0.0189279035775103,0.00514421034845892
0.0102359194294753,-0.020704172314131,-0.0334981380607396,0.00571323957296093
-0.0323975206741284,-0.00776615304381193,-0.022885560783517,0.00489788988256773
-0.0686339306760508,0.00136029682884988,0.000536202450345348,0.00317079032467964
-0.0671932707334888,0.00642191548157529,0.0180359309684477,0.00154648479638441
-0.0568842542404702,0.0170859798886506,0.0356846589454231,0.000473511315910896
-0.0450371547462241,0.0282489151909246,0.0571864977149282,-0.000196631650931371
-0.00558299535221007,0.0269500743880979,0.0627194847675833,-0.000689788912930956
0.0351346830593209,0.0184620933510352,0.0463112337843135,-0.00127357221076681
0.0507767748548757,0.0123242964904436,0.0220563767402152,-0.00199344827581123
0.0532641609444699,0.011700387773035,0.0012971557856425,-0.0024669246244599
0.0448896004370159,0.0074503892477141,-0.0108117141750132,-0.0025723245263748
0.0130469736377992,-0.00786922482016444,-0.0144755207595624,-0.00310249236464816
-0.055554245661027,-0.0224426088217818,-0.0169667111122836,-0.00476825234448802
-0.121370967348959,-0.040377807896547,-0.030895003960739,-0.00661662507587708
-0.10962350763943,-0.0648472046935516,-0.05047309197632,-0.0071092396560143
-0.024378309281534,-0.0807926768347654,-0.0558142556905508,-0.00621614205221544
0.0532108426561485,-0.0741717821023131,-0.037241295392088,-0.00478009149237349
0.059046050674829,-0.0187051828722438,0.0131969305052881,-0.0029587856510282
0.00403561420985503,0.0936242477726217,0.0751896418783278,-0.000318190754727662
-0.0336074328325725,0.191181047917296,0.101980272985563,0.00276427793953373
-0.0202424067451779,0.185456282071672,0.103456355199807,0.00498760883789582
-0.0116479007848606,0.123694053202462,0.10902711496731,0.00557195264847087
-0.0216679155883004,0.116310254886262,0.0924193182910702,0.00462348512843314
-0.0223481202518009,0.143051227084675,0.0517522800250126,0.00284318577095546
-0.0240716514593239,0.124810360572431,0.0258901989080428,0.000770355578035213
-0.0283288150614549,0.0517206937926955,0.0160896508275405,-0.00182763874228464
-0.0267951046788179,-0.0329435560046512,0.0241114934932882,-0.005144787432657
-0.0272775958657641,-0.0844922748695133,0.0723191327991482,-0.00833481575795418
-0.0339888874207043,-0.0963119164167657,0.127874178596697,-0.009393679139585
-0.0463478353220961,-0.0977505003537726,0.126392331988131,-0.00732900879486214
-0.064437969187666,-0.108033998525856,0.0665595950486503,-0.00425175781013169
-0.0856221821664242,-0.0903105092936256,-0.00550823197406003,-0.00279213372198122
-0.0878232137176006,-0.0274584280929819,-0.0493250200058206,-0.00291269586710409
-0.0557038594533325,0.0149571063751909,-0.0454046789558556,-0.00311436470868726
-0.00976741095348869,-0.00351922563792548,-0.0226453846428142,-0.00260813149973676
0.0213148526140587,-0.0372793265566801,-0.0138721878991501,-0.00156124742459828
0.0288860983581456,-0.0381927163204877,-0.0151679067837744,-0.00019781697837128
0.030469432570276,-0.020754363408805,-0.0260375223764537,0.00086484562265797
0.046179951948718,-0.00989068199756081,-0.032268595647031,0.00014598121018677
0.0760344291083355,0.00268821573010866,-0.00573816702120983,-0.00244670917502808
0.094033743635707,0.0213397959443885,0.0431408183443642,-0.00477512685188558
0.0782894134536232,0.0449672214975272,0.0814553641376547,-0.00468391957662248
0.0500422667827204,0.0705863728476792,0.0901627570662884,-0.00174800263527412
0.0349568239490573,0.0901791401434308,0.0711623974063601,0.00235044327882835
0.0240120304808212,0.113382151406783,0.0494102917239152,0.00513506288619287
0.0127582530476675,0.12989828426314,0.0354283726398957,0.00588393907184948
0.0172387639479667,0.109613224866357,0.00183460460017903,0.00550274166852172
0.0403457268924368,0.0604974242953262,-0.0500978780473199,0.00444198801703929
0.0633866543215124,0.0110308352511702,-0.0820899308306093,0.00273824164532411
0.0600779735176976,-0.0264631453844342,-0.0830936282998133,0.000634848339639059
0.0188461438600901,-0.0516931620392469,-0.0592327714486766,-0.00169608537288479
-0.0618375560715387,-0.0628859893072232,-0.0082808208458236,-0.00366536621872913
-0.168338671902476,-0.0611008091244751,0.0604879140479876,-0.00363961084342627
-0.216081603943307,-0.0475032716564118,0.105489866081139,-0.000753137538812898
-0.123645874511665,-0.0322643397341289,0.0906285666471351,0.00330088882238301
0.0510910012726141,-0.0276614772861567,0.0365614790049143,0.00613220389191366
0.163522991423393,-0.0264904436864251,-0.0134294101472415,0.00690957744074727
0.152194291031916,-0.0301615352050684,-0.0359160931490998,0.0059394955236833
0.0890982134090503,-0.0374894226719648,-0.035551951106819,0.00410599890726995
0.0602299330352588,-0.0348887455916972,-0.0388459372504261,0.00263219097267979
0.0812315976970828,-0.0373402380372971,-0.0604634513125811,0.00218039563557204
0.100729059083912,-0.0516304180120116,-0.0805839679527483,0.00247563149293826
0.0813340418974735,-0.0506975258731824,-0.0742451857469027,0.00260726925925915
0.0699003086396661,-0.0245962110840585,-0.0564462070851681,0.00236558707825777
0.0688954251740837,0.0246017700179723,-0.0541397832826732,0.00251209936903818
0.0172388807191636,0.088710399149289,-0.0583222281109592,0.00276783043527265
-0.0494002629430488,0.102984746002139,-0.0637441545959369,0.0024116569332997
-0.0545997326337637,0.0206330424608053,-0.0830821781826869,0.00190151638780479
-0.00489026550822633,-0.0854792470999158,-0.100489400245602,0.00178562815574768
0.0408262009479892,-0.138758260793683,-0.100705203757584,0.00201121017414834
0.0296195316227354,-0.144325289469621,-0.0943903768582132,0.00184982726078524
-0.0344888086368662,-0.125463617430638,-0.0915858202524015,0.000700345395300507
-0.0819952804506235,-0.117393933269123,-0.0963470499378389,-0.000672501610831432
-0.0579427882253958,-0.137908843046155,-0.113750256329508,-0.00155057033182123
0.0196141138491002,-0.149513891623224,-0.129355847603638,-0.00253825148290536
0.0979530468567048,-0.122914118787926,-0.105289965504567,-0.00366410719345908
0.116154840965952,-0.063812343887477,-0.0482140666415306,-0.00318975553490764
0.0335506577263581,0.00294230509269652,0.00435890250508729,-7.58686996990094e-05
-0.065860990780174,0.041725229674147,0.0286578655451374,0.00419464140249208
-0.0551382549981078,0.0301367768397907,0.0038158786678759,0.00690661188346163
0.0297606705495704,-0.00967016216383434,-0.0376293856138666,0.00629578518948281
0.0494333612415994,-0.0231334176165015,-0.0313452126015966,0.00304526844301617
-0.0383533278496748,0.0283964564898258,0.0207138556101391,-5.75133470331292e-05
-0.15889026872349,0.116068204341523,0.0668627543780478,8.80253897869846e-05
-0.215303428525159,0.140970427524263,0.0814604100608368,0.00346565931106859
-0.164930356337977,0.0726668917707018,0.0560213214602663,0.00615212738033321
-0.0519856196548161,0.00673710607815087,0.00843389112463716,0.0050785832840925
0.051381449816967,0.00686221280823934,0.0108959056220796,0.000823037927653775
0.114316571140068,0.0475346025470607,0.0865832064708973,-0.00386992944314861
0.127769925329722,0.0938756414638759,0.142489825754449,-0.00611093289065763
0.0778006617218654,0.106364261784027,0.0983281826320819,-0.00496082280215317
0.00398827020468343,0.0711213903256278,0.00473131400713214,-0.00229652646214155
-0.00856267057881703,0.0282102904764987,-0.0650502862866376,0.000315379306911283
0.0558687985534937,-0.0173403226106101,-0.111015872591126,0.00383020823726884
0.119414970528002,-0.0746846900022212,-0.139501773067538,0.00815078970590036
0.126395209360854,-0.107020563828328,-0.144891122625796,0.00994937595512144
0.099022144799994,-0.102475762056996,-0.13107159271142,0.00628848175696686
0.0879717268050315,-0.0776389157454765,-0.102954839279942,-0.00168271895650467
0.112499596458759,-0.0352245475076875,-0.0756434209397172,-0.0103585483007375
0.13488164534757,0.0149882292616855,-0.0571907851398363,-0.017451945139229
0.124700775546306,0.0578698572445855,-0.035402331512838,-0.0216234825567393
0.0733668838575808,0.0666952823497485,0.00648390167207777,-0.0211731841211148
-0.0319950062971774,0.0309856631025827,0.066995983868253,-0.0154296716441928
-0.152784998889328,0.0115516712315097,0.108904607054547,-0.00615485385498372
-0.189754952259426,0.0534513725432511,0.0962124671406259,0.0031902944735471
-0.0932090066737303,0.136594378291898,0.0483842273748138,0.00957450866761495
0.0594867904045266,0.207098675556174,0.0201336059612262,0.0121640716280727
0.109477293433892,0.20189918434088,0.0164852295327985,0.0119675854633723
-0.0111486380282538,0.129851037900259,0.00275424592517247,0.00964634478645731
-0.116565423464274,0.0465840013258745,-0.0284627359820107,0.00580247900953062
-0.0446319526618396,-0.0155134921632374,-0.0453719263231709,0.00236531175227136
0.0620492573088584,-0.0206904653546257,-0.0113383957719233,0.00191212997736425
0.0498884982058893,0.0127922078246301,0.0599244582624965,0.00469676145562419
-0.02497479581778,0.00347062122911596,0.0820761489738953,0.00649359714711107
-0.048798523447876,-0.0434187820877188,-0.000131187959645049,0.00361091139084477
-0.00257957340685838,-0.0866866773093938,-0.130597018106673,-0.00241347812534229
0.0709425377896441,-0.172215674200847,-0.238436058532602,-0.00846965610623267
0.156432375855325,-0.290789052220501,-0.27183081791634,-0.0135117055018502
0.215744722113272,-0.306234541495968,-0.193368294673262,-0.0170890257959388
0.177606906806633,-0.156289391879228,-0.0429585629491975,-0.0171116013850124
0.0706087503360583,0.0474347279883371,0.0576687636610186,-0.0123597923109702
0.0214766498674011,0.14661581254495,0.0429565183433148,-0.00605698026735753
0.0811312402181978,0.101741604698273,-0.00549780003433179,-0.00145389033412698
0.174296643857377,0.0273563001477196,-0.0265490031860237,0.00251621099805794
0.193825057157184,0.00933024185076759,-0.0609636637963136,0.00661547290498244
0.101924729885429,-0.010326529543015,-0.124217578064815,0.00806449766248154
-0.0139526926419972,-0.086157414455086,-0.15787737573104,0.00483092513821665
-0.0566524175562376,-0.140783594140603,-0.131338175365931,-0.000903187027960156
-0.0707872311706939,-0.122395302540743,-0.0990537394523619,-0.00498978732521532
-0.14485316404581,-0.121730429667666,-0.0643790906503742,-0.00530331107136567
-0.216053060393312,-0.199803675454619,-0.00386499972684315,-0.00286514500504159
-0.205284821073935,-0.256210296764493,0.0448673262552487,-3.09221822485722e-05
-0.200986222452003,-0.155355233369903,0.0868578157508116,0.00171369144297329
-0.251777970064303,0.0180419170378813,0.136497670568282,0.00303429128496407
-0.231425865801256,0.090669287534126,0.174891876433901,0.00474050482760634
-0.0762109984042327,0.110824018970444,0.196838287629091,0.00579436157351138
0.0341529680142415,0.168556091292873,0.195821385193286,0.00553836216611699
-0.0203053892955201,0.198005381269762,0.158688938853741,0.00528016451892795
-0.0499002165840002,0.13059810649341,0.0863857329730236,0.00607596401510893
0.0778585657508706,0.016932088962137,0.0157172526615341,0.00660120648733298
0.206720476017339,-0.0608798922451141,-0.0246211897316113,0.00534549385220712
0.195633835597102,-0.0761839898131669,-0.0514300323591164,0.00290153452165509
0.112800382568213,-0.0303743268098996,-0.0801220632927442,0.000484481985356043
0.0601508980778759,0.0241788489034729,-0.099380543360303,-0.00105554239157485
0.0402460562818993,0.0277035539412279,-0.100159655208203,-0.000981436991479744
0.028807221140722,0.000379306557287962,-0.0857122015135048,0.000600546586873085
0.0190892866125256,-0.0141746674576543,-0.0647686250564766,0.00277023259645251
0.00784285948463556,-0.0202920506123901,-0.0585125553753771,0.00430910592698253
-0.00438691127962977,-0.0532880344529984,-0.0808215177648395,0.00360966776022021
-0.0278034300698997,-0.114028381623955,-0.0990834290876227,-9.45339869285987e-05
-0.0587901771548089,-0.17513728243175,-0.0371043038055832,-0.00496280991539782
-0.052135925335863,-0.211903427442853,0.131950308711745,-0.00685984488134388
-0.0435232549795613,-0.166280642033511,0.295435093841225,-0.00277500475350392
-0.115091715223982,-0.00580396153348622,0.339536965885661,0.00532950286909196
-0.239811436346006,0.187135260879723,0.307935681060078,0.0122071055868034
-0.334696493719341,0.298614444513216,0.258639470033563,0.0146804734181478
-0.286142341676721,0.294426814749622,0.185977801195877,0.0129617174678632
-0.090419243180802,0.237712057927841,0.125103390613854,0.00917688284122731
0.048873765154109,0.196213664860979,0.0978733440123246,0.00568303812104508
0.0466327929548005,0.141624743410803,0.0654200461598738,0.00263195633471267
0.0112799934211587,0.0444778205779232,0.0177802113645083,-0.00151887119867642
-0.0196847727533442,-0.0471200983263202,-0.0153802118449351,-0.00652836355308667
-0.0528070151901727,-0.10655716967473,-0.0256664105932993,-0.0100383678234822
-0.0434360763117967,-0.152391781510217,-0.0330392941965015,-0.0106889503060469
0.0230630742137368,-0.17004829281762,-0.0414086936242783,-0.00937091457084868
0.100030458472512,-0.138301061865797,-0.0425383126979155,-0.00787899657654736
0.128460793786211,-0.0584122283617924,-0.0267311669808134,-0.00695172011622358
0.0932620168092321,0.0599143799134643,0.0124980186993932,-0.00513170198408323
0.0291982572380061,0.149598255866264,0.0395888589018048,-0.000585783190732431
-0.0605539515406428,0.154506517829942,0.0241697386488875,0.00516623514510879
-0.176873694321763,0.107545766199654,-0.000717254499280087,0.00847311071139893
-0.245949313201662,0.0418579241798605,0.0197948482464126,0.00929531202757632
-0.216093203091812,0.00133088890717065,0.0973340194585768,0.0110645322727672
-0.141297204207892,0.0525736549029975,0.177666764190528,0.0150769254545231
-0.105462127930973,0.150926348948701,0.189854100471527,0.0196160773836583
-0.0924460409039693,0.172440619475098,0.127194859300038,0.0236944904504103
-0.0483000617041201,0.0776203470900715,0.0469829613782043,0.0276379716228696
-0.00903277151330503,-0.0515607391582076,-0.000223665360942343,0.0298512279011108
-0.0118668327289616,-0.124403237189927,-0.00654564256175719,0.0261921092944056
-0.0257249625898632,-0.13171853403482,0.00844914382757243,0.014511096972116
-0.0239832004301992,-0.104000071546125,0.0273589625447539,-0.00209077830738093
-0.023090746320731,-0.0619819356602982,0.0405211848507683,-0.018258996330121
-0.0363839162178818,-0.0185694398634745,0.0482902607629044,-0.0300236835324394
-0.0491589395970893,0.0165064706598921,0.0583810643530928,-0.034544853215601
-0.0529170622503557,0.037111860668632,0.0655039310058968,-0.0319815168921837
-0.0544646718042099,0.0466912471825217,0.0618831550072493,-0.0268616951337535
-0.0598521559633662,0.0654307853875559,0.0486540604394343,-0.0226299210036768
-0.0715226233289557,0.0942681203815391,0.0323536893940431,-0.019349563371148
-0.0839381079192313,0.106822320414576,0.0180895411333678,-0.0167830390155161
-0.0959231781283089,0.100470470864917,0.0101816956542243,-0.0151900721821223
-0.109826730432651,0.0835955877652883,0.0109284269556746,-0.0141556392459445
-0.10585300920136,0.044656772045717,0.000473366498441164,-0.0119995266797689
-0.0776410265365905,-0.00460550151387337,-0.0299963850622141,-0.00723865201173983
-0.0624290090931222,-0.0403145329515696,-0.0629594916829372,0.000754218943914059
-0.0728692966549153,-0.091609246764148,-0.0706710566319424,0.0117869307843548
-0.0729763543350165,-0.146503328145879,-0.0425315387253526,0.023309818377404
-0.0501397380401159,-0.126309294375666,-0.0318379181764866,0.0301797891200619
-0.0197044773087319,-0.0502900449951066,-0.0685508288193345,0.0274317792257871
0.0220726968991303,0.00892761868392175,-0.094275201545983,0.0151837143618753
0.0576671583551418,0.0544727849890891,-0.0643165263812356,-9.48994020499201e-05
0.041541041048884,0.106029565484887,-0.000887023400850118,-0.0104724027858672
0.00454359505278978,0.158586081622133,0.0627480336696823,-0.0109607320988412
0.000862699311480572,0.216408255243047,0.11097773753793,-0.00206446005028194
0.00182628393596009,0.272358607867528,0.114495827285887,0.00809178277322679
-0.0341803870222123,0.292352264589871,0.0568030019080938,0.00861125426604067
-0.0981248459204874,0.234722760363314,-0.0151144007564467,-0.00481310139954018
-0.119633954084743,0.0842050028522655,-0.0455045373657656,-0.0271904985104635
-0.0864071167013865,-0.0852225314914885,-0.0470056077683753,-0.0478318720153379
-0.0903120937698893,-0.167224349117751,-0.0385317317941434,-0.0577275432792968
-0.11424807125013,-0.140989788684667,-0.00664670687219261,-0.0557387046661399
-0.0774806433411779,-0.0792099815636457,0.0145291701503547,-0.046664262269011
-0.0182077301830351,-0.0660886853543497,-0.0155013944236999,-0.036072872067099
0.000997491667405995,-0.0947885652717278,-0.0689196677965228,-0.0273723984835711
-0.0154250798371761,-0.104689087006319,-0.106973661902577,-0.0210555142400277
-0.030629541774607,-0.0818457518180365,-0.14061994864551,-0.0154903926842691
-0.0290979446767958,-0.0674876998699892,-0.197946926688584,-0.00935070173009305
-0.00963040183584762,-0.0908018794967534,-0.262538755469776,-0.00307328640851817
0.0400889280574472,-0.125549806893419,-0.270865501522073,0.00260956498530893
0.0923309029077575,-0.151641030229606,-0.189960632400445,0.00796196295333957
0.08585704309348,-0.119167458708214,-0.0696281119020887,0.0142861436435729
0.0213899826286505,0.0418744221285001,0.0290162189978408,0.0227147762967907
-0.0292989650310533,0.223267096289986,0.103127222390003,0.0332186732290756
-0.0289064305506335,0.25516003090669,0.158409658768079,0.0438312659624678
-0.0125584766915962,0.183218059995997,0.168665466187371,0.0499182819285204
-0.00186948728596624,0.130012643626933,0.121558190344784,0.0465885633343735
0.00975536126061045,0.0619661811815068,0.0399164886475124,0.0330849260935855
0.0291443701748316,-0.084880514547402,-0.0527260707429194,0.0144366023994643
0.102480587364861,-0.219832038437531,-0.146743390777551,-0.00323767499106699
0.232952703318659,-0.226479674123674,-0.212602917476316,-0.0170353529159423
0.299530861603473,-0.14582834490786,-0.210255340662391,-0.0251279548779925
0.225004123172608,-0.111699708761593,-0.164363184461472,-0.025707659826772
0.0677175323572198,-0.18167807204781,-0.126455644985486,-0.0200290749506898
-0.0670176596433944,-0.27227666203264,-0.0835501416775432,-0.0112855857420102
-0.0552062200347245,-0.271064736661386,-0.0469165432394876,-0.000372776691267511
0.0542962822552027,-0.141499665832616,-0.0152183198260479,0.0116016710430823
-0.018015530055666,0.118331325717432,0.0914863387214239,0.0213884628918649
-0.271482815732263,0.38133688742749,0.20469397448879,0.0278543896434652
-0.363087523463054,0.384079085026285,0.174095231579265,0.0302502144188969
-0.200548712379716,0.142743443402599,0.028385750417402,0.0239462258563048
-0.00526647907436972,-0.0254584407776808,-0.0951177217442878,0.00752995213481013
0.0515687175748183,-0.00619131979944165,-0.108133293209351,-0.0094056653001843
0.00863016274725437,0.0473470509003758,-0.0389045452719731,-0.0140623316669583
-0.0235974163791383,0.0092812873615464,0.0160417015937202,-0.00405460097565871
-0.0265510449415355,-0.0994026872058033,0.0190354234191062,0.0108499034092096
0.0226259091136249,-0.174088419179939,-0.0029589376134679,0.0204954515810007
0.123549192173238,-0.177795728546862,-0.0311069923043968,0.0240548390567023
0.172094860778362,-0.177161948251477,-0.0526104828998905,0.0255094069218906
0.136653411513582,-0.196230497361268,-0.0470061248823483,0.0262651100004463
0.0847814034712518,-0.199047282107344,-0.0184863469615448,0.0259921356019155
0.0423772775219809,-0.180729088984097,0.00679982071765135,0.0237042891659903
0.013431632914881,-0.151635640364969,0.0339884300012219,0.018034953850361
0.00352691318478474,-0.0933023522777906,0.082065343112282,0.010434366027782
-0.0136221384210329,0.0430674426741095,0.117994353656347,0.00433363927918071
-0.0353156830557493,0.211349043900092,0.100107530747759,0.00131518578875242
-0.0243689895033035,0.267151468056034,0.054636859385768,0.000166080632313202
-0.00323601915114425,0.202804616263895,0.0316664371470457,-0.00139803705458491
-0.0135556540878489,0.142698875751128,0.0333982059476624,-0.00469414959466935
-0.0441373001755217,0.126853019892539,0.0257918562252805,-0.00954405065566393
-0.0765539257908602,0.118523595605456,0.00330461820582212,-0.0145986952936105
-0.0874925454105804,0.102664553578439,-0.00963365492099297,-0.0183939993163734
-0.0540329880350809,0.0600188390958238,-0.0130309487896197,-0.0198526041754612
-0.0262450476898532,-0.00073641239764366,-0.0207231525106961,-0.0181528702478729
-0.0773374725195209,-0.0303993377697539,-0.0338312913939838,-0.0151385629101334
-0.160230631919042,-0.0337347331618544,-0.0511093933030823,-0.0155339790385904
-0.145396088704403,-0.0488003031480592,-0.0647267061329424,-0.020626367685945
-0.0138082587698632,-0.0789849304053775,-0.0704429978755234,-0.0257729268959382
0.0889485049083315,-0.107036187030879,-0.0650099365452904,-0.0264955588148027
0.0598268683217452,-0.114860859648438,-0.0405665499349228,-0.0225116256958904
0.0090441633046307,-0.10183606257449,-0.0125083740818291,-0.0154179211356001
0.0477726067436892,-0.0781527410123083,0.0033353897110219,-0.00717568006772596
0.0902613487409979,-0.0285848269505996,0.0255593261849077,-0.000968126495718886
0.0402432357427021,0.0273230999826516,0.0842067666794993,0.00167503854454576
-0.0412426752828771,0.0181501285318904,0.170851351293765,0.00379449960889289
-0.0617083498421256,-0.00939372687416314,0.223487067604594,0.00890698817358236
-0.0591460227731848,0.0786401932449498,0.193166303747387,0.0161892929693213
-0.0780183760680021,0.222218341052479,0.118623211238027,0.0213599049914748
-0.0435583857880446,0.222615809106984,0.0576930777974841,0.0212661531489146
0.0579790281713071,0.0644598419127671,0.0112143109105775,0.0159619080446971
0.132320244992075,-0.0894906955667959,-0.0191046116364632,0.00673493665150957
0.141346711074475,-0.127766220829103,-0.0306226355367558,-0.00393417748012713
0.0955516518126301,-0.0423820778004615,-0.0255675957902937,-0.0117698673481608
-0.041451377035376,0.145168470188332,0.0120165488178215,-0.0130087373684914
-0.205165471134229,0.2942404701163,0.0283858924561547,-0.00723982765815755
-0.198269098327505,0.24127181382171,-0.0437953010430775,0.00162552209200324
-0.0234429772514,0.111383846267017,-0.129013017126567,0.00831832090573471
0.131804485114517,0.0720486356404126,-0.158836127187175,0.0104912140797994
0.20785444307901,0.0360440840353311,-0.204086279563008,0.00883955014159018
0.264697177801869,-0.0695793790776085,-0.268488110399639,0.00441881875307439
0.297508972990502,-0.163097948016139,-0.263819026478171,-0.00177806843666852
0.261593483174178,-0.191281181011934,-0.187014062728257,-0.00705549600766054
0.192181116661613,-0.173570455799481,-0.0941432172323478,-0.00789927145451461
0.161486413771176,-0.127806142646129,-0.0170076996972692,-0.004102916687221
0.140237545546423,-0.066498336157995,0.0384518451360509,0.00107491678034786
0.0370823648166853,0.00581163403048862,0.0595683093980927,0.0054668712712311
-0.0832934227576609,0.0801036298296268,0.0550211696038135,0.00901818534852377
-0.08731918222903,0.109409676632678,0.0590882992050355,0.0120226243307574
-0.0329668809294219,0.0846825585639979,0.0581428331450504,0.0151877877663903
-0.0193034228352532,0.097030503597729,0.0156360735936739,0.0183329939092455
0.00595363161661055,0.158272672112619,-0.0606120272062081,0.0196134560134369
0.0640229696083234,0.0916058663989357,-0.124527653212431,0.0181390343363515
0.0641178857604979,-0.140971950642565,-0.149240624123943,0.0140526884822296
0.00376663632644228,-0.286440277512595,-0.129505354611992,0.00811268654044322
0.033587554588419,-0.208058234209015,-0.102162781597281,0.00358866572203117
0.189246441825583,-0.0522170284043696,-0.119793381629802,0.00391061844968335
0.339881900662787,-0.00905859958647043,-0.143464401070239,0.00836199437318707
0.459811579972969,-0.123513409919471,-0.108718300728051,0.0121238667237761
0.524575071335757,-0.192301673058283,0.0015987397270677,0.0109824360717645
0.396623994278546,0.0105404001572171,0.124454313608271,0.00618241240138256
0.0694199797384678,0.343297818558672,0.148280791612878,0.00126607812283039
-0.261484695866396,0.455247268302248,0.0828383106987877,-0.00318907015246786
-0.376317801378702,0.301391935396934,0.0244389362997289,-0.00714429291921203
-0.198008297952832,0.110700574816724,-0.0166487669770632,-0.00853655111818012
0.103530825231267,-0.00642666140242493,-0.0778190468114312,-0.00624090197840871
0.267192940354439,-0.0917028248749644,-0.150267247289867,-0.00287531602476352
0.291446001168837,-0.20031305480139,-0.20164122615722,-0.00248941189994261
0.267751608696163,-0.302510498588798,-0.210308759261559,-0.00562987880496703
0.149020290333674,-0.346300940373721,-0.156802678334932,-0.00865500352294051
0.0524572812370477,-0.36614401879741,-0.0504322236850673,-0.00803142097418358
0.139556423821034,-0.335144950007766,0.0151769511180241,-0.00439272951720816
0.226359122467139,-0.183513581972635,-0.00637188099328777,-0.00212851846187438
0.157751023278851,0.00726164371975774,-0.0384564848370822,-0.00329800438925571
0.118096539520678,0.0850225444774956,-0.0467591396035787,-0.00468531823382029
0.206532681267956,0.0422928627682095,-0.0314269437334506,-0.00404373025161487
0.281565538009613,0.00033590178370644,0.0302979927523729,-0.00387355953968538
0.229522502342805,0.0141634656859134,0.0991336920564782,-0.00668039688092186
0.0816353848689544,0.00688206654410326,0.108182228283372,-0.0113463891121086
-0.012896251832181,-0.0745525772391501,0.0490806103095109,-0.0156441184811522
0.0787919065375041,-0.145041291926323,-0.00641168234198192,-0.0177062549264695
0.302703209641857,-0.18293983187779,0.00201310305079012,-0.0147390061681838
0.436099921031438,-0.27912208613476,0.0287862142405025,-0.00680371812274084
0.364252066633118,-0.367298167369186,0.0317155842231703,0.000507951806345424
0.215962333173944,-0.268330196369081,0.0230769710290432,0.0030418335622564
0.156829728400892,-0.00673249756813021,0.0146270214518254,0.00281986813231774
0.237486906281547,0.240240322476193,0.00535273908630921,0.00367732115765263
0.369460845932373,0.362375179897043,-0.0141254567895022,0.00591573645247915
0.409658813371748,0.36153465554592,-0.00600738813445998,0.00638990185316518
0.395947542862443,0.35089030647548,0.0700639931031539,0.00420792796155153
0.470811115916608,0.352720942597238,0.138787832246475,0.00273645111680389
0.578301224520617,0.234261253615913,0.121649463096185,0.00358081637679451
0.600967552247723,-0.00520330802489499,0.0707210834092765,0.00310332437097814
0.555357590103309,-0.208554068286206,0.0567011159686818,-0.00169517375598927
0.441285480125883,-0.266870288449277,0.0735025349120205,-0.00861680612903401
0.211581362960072,-0.18530477116192,0.0862687169098971,-0.0151118657395345
-0.0315355803861753,-0.0879227739045782,0.111397533994884,-0.0201317264490881
-0.0871376368873669,-0.0472036726130205,0.168101149404002,-0.0208235059711007
-0.00676903119059485,0.0416937937190239,0.212595156969639,-0.0149774002141055
0.0803239003807844,0.168588819450049,0.20849635516963,-0.00331789394186849
0.243175948667931,0.16443552314324,0.14690708925934,0.011454799492913
0.423630012191768,0.0609544486541243,0.0527815693357075,0.0232971996402341
0.479875269291037,-0.00125686753021431,-0.0326472712111299,0.0251184594791286
0.492315773742821,-0.0152699443227949,-0.101627223551623,0.0160519059699607
0.565625529211417,-0.0103241206727152,-0.141622068521388,0.00305479284475129
0.64216787990598,0.00171299690594171,-0.164977246770524,-0.00590614394450419
0.636602849581344,0.065349216055513,-0.198432881753827,-0.0080786734843832
0.554548502848713,0.206858742345476,-0.205912677592537,-0.00625300109457325
0.47110356890726,0.299187981379795,-0.157263420422931,-0.00457700381711398
0.423668924343358,0.271845621904083,-0.0599481827846811,-0.00441852523171784
0.397224845705441,0.198823773778569,0.0964753275674641,-0.00422758326205104
0.398523406130089,0.0410182161599074,0.271239677405291,-0.00224699129965105
0.410811719309534,-0.220284097956188,0.330739538226799,0.00105487001294069
0.40846569481311,-0.327054929775521,0.250850149420081,0.00341021893461684
0.444054318956908,-0.142575105848514,0.194296795068821,0.00441790873874093
0.53772047385807,0.0903960913666378,0.204391045567357,0.00760323065975458
0.629390144805158,0.161692289845512,0.168087979688594,0.0145144139026364
0.636671405250262,0.132611625623023,0.113688881270812,0.020054525626969
0.507345601734981,0.133122834932113,0.0995023807532888,0.0194924262897651
0.342239500425156,0.162153408899707,0.0463212645461144,0.0135246131243503
0.257086553287236,0.158976431514627,-0.0488558054276453,0.00348024610491602
0.202031039414986,0.154829476642336,-0.0687418566764206,-0.00919169343593954
0.0640648403943263,0.182872011376611,0.0130525064579781,-0.0188513745766867
-0.0767287122626472,0.14052508201456,0.108638283722402,-0.020242650441572
0.0149757739013036,-0.0154266205145853,0.140825321808037,-0.0147067297860376
0.241432289002613,-0.11635549608895,0.108242429990676,-0.0080765272178093
0.338766982043275,-0.107996225662395,0.0485694486240277,-0.00563029825398097
0.380922798070712,-0.0975889418598147,-0.0215712743457719,-0.0088949527053412
0.475277488538974,-0.070397384929385,-0.0916147894821998,-0.0158569944356456
0.508546196367069,0.0273291423518629,-0.138512236970442,-0.0224545036622513
0.412101288676386,0.10441019032433,-0.170324803705122,-0.0238225623287781
0.297053045197037,-0.0136739969180925,-0.205427576175862,-0.0183767320332544
0.237260323114578,-0.261986309746716,-0.187521126426273,-0.00923657420329103
0.192508827207924,-0.373253005603151,-0.105557597533825,0.000778105162455495
0.185594904934389,-0.32069282492782,-0.0406517207358242,0.00994836313780607
0.199796166590269,-0.264470826679007,0.0214878918862618,0.0151218260595314
0.147489958468106,-0.226611703194013,0.1397751894168,0.0148397184094591
0.0188936674435277,-0.10048885365266,0.318356287250166,0.0124837727718384
-0.111106137680469,0.102590083890905,0.449733990132453,0.0135661495223051
-0.108481860147233,0.228193319200511,0.3523327733698,0.0183770095119743
0.0609551069392193,0.227815942904406,0.112312817415666,0.019483997289462
0.249197545398514,0.161890738121416,-0.0227383828845523,0.011268173455629
0.328650059749256,0.0596501009875485,-0.0344956116019995,-0.00406449191294701
0.285838017698259,-0.0381923676808179,-0.0334968180567714,-0.0205313398733245
0.169983821584306,-0.0918160724867877,-0.0457496353756125,-0.0320801136550149
0.120361146002269,-0.13887966149833,-0.0483656595076366,-0.0358370691613846
0.16990568515406,-0.150404219050258,-0.0338086526792588,-0.0335911536012324
0.107789938908695,-0.0259441422175923,0.0123007848147076,-0.027985655219288
-0.118431978247958,0.146314477404604,0.0856328599337031,-0.0197903039948057
-0.254139020774344,0.200209043761772,0.148539491438876,-0.00993837423399081
-0.180041162761054,0.212043108483836,0.171352726963698,-0.000335317886156393
-0.0874530322294058,0.279740106308145,0.146929044590921,0.00743095232199641
-0.102829697262714,0.236578095494494,0.0897212600210935,0.0111209592396706
-0.113712429727473,0.0302781173536039,0.0374394099664848,0.00857592015789444
-0.0570627062265832,-0.13566683271393,0.0171272210739782,0.00186809955289224
-0.00878433969892869,-0.201233227001404,0.00496588095766663,-0.00377243571861619
-0.0226090870153719,-0.298346618424364,-0.0310814186588537,-0.00588823728404923
-0.0825957059521673,-0.438922598595392,-0.0370583226160823,-0.00542789736881477
-0.138708444939753,-0.493394743144096,0.01194214429067,-0.00205244904477996
-0.155683851901205,-0.42464246033739,0.00159428648184481,0.00470131402798483
-0.109017644652199,-0.310611956560925,-0.0856408437532933,0.0111785658827916
0.000501934002574173,-0.213341673210147,-0.132385311532569,0.0138254500286097
0.101453248934845,-0.132268789828845,-0.100259335515001,0.0136739428434969
0.0750338673559072,0.00333749437099229,-0.0194047636071601,0.0130840763539607
-0.116015891533636,0.309406786817852,0.109196525128294,0.0126906662212568
-0.334420870084195,0.663460352799191,0.257439218120519,0.013338928492893
-0.464061932874762,0.747093653230571,0.310812751324764,0.0163679345804479
-0.555786908031339,0.557820638237812,0.223097330239222,0.0193110240677373
-0.585935855065963,0.306576041950217,0.0990765702360217,0.0168860516912688
-0.409184799245911,0.0503045753630618,0.0377297808430861,0.00817221736758837
-0.154838600108811,-0.173991997261426,0.0364609471472344,-0.00229851731245833
-0.0791028386677272,-0.2639272871248,0.075163748991854,-0.010059030132425
-0.116013580715151,-0.213566217285662,0.145127071846557,-0.0129084986445614
-0.127781658617266,-0.143468153621993,0.155862777737137,-0.00999224463808376
-0.141443129656142,-0.133902268769031,0.054677930960933,-0.0029897706475535
-0.212798798975981,-0.146800328576701,-0.08240000502966,0.00406925762069056
-0.321603192344179,-0.121490680161358,-0.186578351579713,0.00865553869716472
-0.347868248665644,-0.0647769136706365,-0.245243395614054,0.0114302708445551
-0.232278292088878,-0.0224058265909592,-0.283543072011599,0.0133201221688621
-0.112977546509587,0.00313220351143803,-0.306636213174729,0.012840352259211
-0.126667311562036,0.0261191159839895,-0.278033221421033,0.0078840526952017
-0.208718058388956,0.0651830969391953,-0.166033070355715,0.000778630284558352
-0.29464001604291,0.151779619926113,-0.0109023505908356,-0.0023716581823415
-0.3725838455574,0.146526860063387,0.0651614287698841,0.000761009000795749
-0.391376190187004,-0.0661684627253172,0.038365643067389,0.00786680141596146
-0.382366248694373,-0.217925335263252,0.0160077350405827,0.0188081354472845
-0.334273342922519,-0.136101660863905,0.0531578970158123,0.0334849005389047
-0.200642863372963,-0.0108260719147778,0.126729883432136,0.0452346096210216
-0.106804096062006,0.0593094116032113,0.17405261668221,0.04748530724672
-0.181507732757002,0.0914713689043203,0.130230224748155,0.0400368496007189
-0.358649402602806,0.057119888514685,0.041268414711394,0.0253059874764324
-0.515860606848126,0.0106314264558565,-0.00405023704602256,0.0075950415373091
-0.679949474370289,0.0849463051963629,-0.0481639192825054,-0.00728672027136455
-0.871699755308885,0.210227089217265,-0.127547611304073,-0.0173305176834544
-0.914571247854211,0.202470343042309,-0.170456462008017,-0.024841263063232
-0.714749908607356,0.101677466077949,-0.172601966338474,-0.0306638879127452
-0.447138585371084,0.018534476033337,-0.178421760977988,-0.0339682335056901
-0.278085162956268,-0.0111087917057704,-0.147369687169734,-0.0357583965331137
-0.208228773144827,-0.0122829185681455,-0.0702046536108936,-0.035518365446321
-0.176011927390687,-0.0332304111426821,-0.021327264958959,-0.0308143567644568
-0.199209090662866,0.000105637804294897,0.0209028498001353,-0.0233695261047513
-0.362369224508379,0.139856532743672,0.144896160689411,-0.0165019654358187
-0.570197518138216,0.244157468644026,0.278416336415444,-0.00893670343884077
-0.586664832861448,0.200178958816292,0.221956695221443,0.000678346391682363
-0.421241957308695,0.0571210340626503,-0.0070927608862395,0.00807553854896125
-0.297427888544536,-0.0672665286394036,-0.16298663956598,0.00970299485617811
-0.308538142734817,-0.0875965120335468,-0.18665790080438,0.00841635361650764
-0.421511952616488,-0.0476289365121052,-0.186595906093174,0.00803241909051949
-0.559375866623452,-0.0286173651880545,-0.161037324350083,0.00895831763138077
-0.59793615259219,-0.0376765091444439,-0.080092769317751,0.00999074369970118
-0.592624006937087,-0.033387801947816,0.0366370214606523,0.0109418692657737
-0.674190243839931,0.0313377903315787,0.102289624296653,0.0132408351199265
-0.709655909089019,0.102235044539129,0.014290756921072,0.0164704524280444
-0.595326988721756,0.0601771591877777,-0.182751418016386,0.0161616486458131
-0.507744793217344,-0.0946726355871622,-0.352457180151539,0.00763476775896305
-0.540126597241972,-0.250503758932704,-0.402372336358673,-0.00969143800326653
-0.559372809988313,-0.272869743961192,-0.344676911231545,-0.0312517955643493
-0.531770425705739,-0.101716669206766,-0.216826129024028,-0.0490363369382576
-0.509799437840279,0.135181243110679,-0.0393887016461485,-0.0561738349301493
-0.485163238512738,0.26170957409223,0.127952056655151,-0.0516850339278496
-0.511059574687864,0.24007045503787,0.22756775698517,-0.0405155676937058
-0.588586727431903,0.109792872021915,0.226153001037299,-0.0298603218403021
-0.603989934213755,-0.0275760433481915,0.181602968068643,-0.0249698092230079
-0.572182992988392,-0.0227744614612745,0.213140857048628,-0.0241740749933096
-0.620792737303818,0.0725628844005322,0.291206517851661,-0.0203578861269333
-0.715020605586213,0.00960522034856427,0.274266569422356,-0.00975103420508191
-0.700811784302507,-0.233172047832848,0.101210929091141,0.00466470202872352
-0.521981300240781,-0.430600047168934,-0.143768585236436,0.0163811151905019
-0.30914313473457,-0.462950589670733,-0.312319135462228,0.0209910426532694
-0.246105200061169,-0.382437196368592,-0.368723853557568,0.0195003838757246
-0.304279893041565,-0.244819684543736,-0.343010837426566,0.0145836070654567
-0.360779163587025,-0.0586048593635503,-0.246783415129711,0.00809695482290374
-0.404673126411455,0.0851496390953329,-0.136659971174375,0.00290974565812062
-0.411861530408077,0.103106148652862,-0.0919041929023453,0.00187092153904229
-0.292582944599643,0.0805083812123577,-0.121476771090812,0.0053850412871788
-0.183266693146894,0.0715463956674633,-0.137277267574765,0.0106606578804379
-0.41703103799822,0.0221074218585057,-0.0796656740278389,0.0134077094432213
-0.805773954800084,-0.0240158534120024,0.0131758214436254,0.0125582372425855
-0.765804086589776,0.00527641650892702,0.095100387096504,0.0117456440351725
-0.428788394261856,0.0892065630868687,0.14399070969263,0.0129122161705452
-0.309387641575513,0.084654838888949,0.141366123259381,0.012137440406768
-0.333849965138432,-0.12914276502978,0.103032550399172,0.00526114822206824
-0.291567579225446,-0.318196397058285,0.0964004084560164,-0.00647886524296295
-0.286680842817558,-0.182825298801261,0.205338689597385,-0.0153655463028489
-0.393581351332417,0.111961546417778,0.355991443289004,-0.0115495908659471
-0.482010956965169,0.219783246934087,0.349242143989263,0.0057618513719865
-0.438850196367041,0.158511237276948,0.173606549685757,0.0258028428483066
-0.384233697620502,0.149014927069227,-0.0378555357397921,0.038021015830124
-0.455774212328402,0.197511343710022,-0.208783204138493,0.0389933519211681
-0.490225801024561,0.139587055172288,-0.286003407426978,0.0295536812636104
-0.307619732836362,-0.00714309977879085,-0.235036267881134,0.0143414398248561
-0.0807947614540696,-0.0527176128235002,-0.122826158245167,0.000764848657878348
-1.38575912202454e-05,-0.0259076147021686,-0.041111164611571,-0.00670044800740623
-0.0177088041928876,-0.053931347525754,-0.0005365577533675,-0.00752666990328743
-0.0851710923723581,-0.0952477308846869,-0.000836857484166509,-0.00324239807050976
-0.160160293076932,-0.113762825321658,-0.0130860245949464,0.00220559877688415
-0.162965181771099,-0.105579094001896,0.0361616367523228,0.00512591810127479
-0.152044194815786,-0.041711983242305,0.134446038419053,0.00578539610286483
-0.213679849707841,0.0301362937035969,0.198598252629653,0.00646565510233352
-0.257603515492098,0.0270197065863909,0.200206381122454,0.00851533862115626
-0.172734730573838,-0.0142009512490811,0.171581474298491,0.0113293215735642
-0.0115333093176334,0.0173242972833197,0.136283772194366,0.012221104769951
0.0589361095873435,0.119000424870226,0.111916905925732,0.0100879172197247
-0.00698007756369594,0.175555354286312,0.0975822522442762,0.00743766829727325
-0.0675308008055126,0.144305425935686,0.0921669167148175,0.00683594797346135
-0.032681870042417,0.141297439518854,0.106545137991029,0.00893939088246012
0.0216392568866287,0.205748427922591,0.0867775699218064,0.0129094024795992
0.00830058658714658,0.194675693477022,-0.000555301424922772,0.0154442992897093
-0.0255731102083794,0.0573783934937391,-0.0995267325287506,0.0127351398594399
0.00276389639642283,-0.0860312818977122,-0.154367303428745,0.00518510541365774
0.0519997660662857,-0.152388463440646,-0.152387536750041,-0.00315635512892585
0.0556465045229542,-0.195702428666148,-0.113183235014746,-0.00920921632286992
-0.0119647602046411,-0.264493674321166,-0.0742856094940613,-0.0124600391445226
-0.116394269307769,-0.294893776670456,-0.0796168052597232,-0.0140143815654481
-0.0891385560635475,-0.221371124045477,-0.150279407796466,-0.0157746756034428
0.115989937602934,-0.0756030596061719,-0.245419065899029,-0.0182583553150576
0.290104070112365,0.00255957623762892,-0.3048670094771,-0.0195243825758357
0.311144423354789,-0.0362283712303094,-0.242966892009587,-0.0192928618802828
0.286544412156112,0.0207104938491605,0.0135038127533361,-0.0184815123367796
0.268336174116337,0.230979702212106,0.297102945213317,-0.0131188000665189
0.166061426173087,0.260229696062462,0.32233562711135,6.42071715874284e-05
0.0137509103414777,-0.0787831021359663,0.0835233847094065,0.0142254876981257
-0.0382341594434461,-0.492002437705461,-0.178035638479521,0.0190279069268497
0.00167935757002631,-0.623604208995678,-0.328054140587809,0.0120484966343984
0.0637299936028486,-0.545944385495879,-0.374443756043062,-0.00199965920478416
0.178981850087599,-0.536462911606756,-0.286207736475154,-0.0160656008647538
0.269497402568239,-0.490646193361041,-0.0394423016644996,-0.0233264647711393
0.18373219368407,-0.202046480427317,0.24588088791988,-0.0208123136474504
0.0282823017504725,0.206246478114805,0.367780222400177,-0.0102734862555972
-0.00162425296974006,0.563450825898291,0.305679108802408,0.00399502885231944
0.0893473577895816,0.649725792755604,0.201960424824138,0.017425170313102
0.227447858236977,0.377476232450268,0.0975861091227848,0.0250080971700714
0.328293896587438,0.00841021630808958,-0.028484138426789,0.0208956725809446
0.312192375410572,-0.24708942203554,-0.126877876473188,0.00430418639739291
0.231548346192304,-0.341190824648059,-0.136519127393344,-0.0160294968812922
0.167071589340671,-0.341048236498973,-0.0800739136330036,-0.0288044661527155
0.0821504462509744,-0.347402552536232,-0.0318927368292078,-0.0293103008006341
-0.0254456498420277,-0.322888813802907,-0.0186983453135326,-0.0208550168879281
-0.101642028169495,-0.202637471946601,-0.0117562294377224,-0.0107595237445157
-0.17112885652078,-0.035285571345867,0.00630450600169262,-0.00413674537048651
-0.198284430280656,0.0592725495946163,0.0215337982776674,0.000147734077175769
-0.108324014371036,0.0471949172970835,0.0330052307123277,0.00610027473086904
0.0154255145619557,-0.00108845985822746,0.0393342876942948,0.013706729859467
0.0611749624712634,-0.0413992789529524,0.0302363600022221,0.017785906700206
0.022962053496602,-0.0298139682852274,0.0169111704748791,0.0149507104902743
-0.0192377259410701,0.0611366541666834,0.00475199684086441,0.00820843763064173
0.030673720360308,0.147040171534053,-0.00223158231570119,0.00278696790304027
0.13582467849691,0.177347416425659,0.0162506664243101,0.00179157147036036
0.184586620070493,0.187330332578308,0.0490693620548057,0.00577083987522239
0.174446973174173,0.196977517239781,0.0634989308210453,0.0121070420649227
0.114608465325635,0.264202197929982,0.0602902865061589,0.0155268172621003
0.0127327525109376,0.372569284927643,0.0376701451997123,0.0129129661976515
-0.0442794495416965,0.322755557582078,-0.0486791851999546,0.00622954406765219
-0.03539232449313,0.0389728097720592,-0.202094973119478,-0.00187146064317436
0.0750763489021713,-0.273427552417684,-0.288287493680293,-0.0107134332453297
0.294377124159591,-0.381912452810455,-0.179109210316193,-0.01706483722641
0.34386830469707,-0.245020712338785,0.0449675325349185,-0.0155415908440543
0.052279780322248,-0.0860144916000343,0.174041518782694,-0.00656776097422637
-0.287734478865961,-0.159490274249527,0.167013115050676,0.00206084056320933
-0.358610516964703,-0.315487579712928,0.217489806675354,0.00396083159734312
-0.267676689824571,-0.198065413876991,0.427506934895489,0.00257466145152441
-0.270547109337256,0.213862736889839,0.607571581438955,0.00717328858981522
-0.303271966798488,0.607314212843063,0.495913391862186,0.018588267752457
-0.216243631523488,0.681520068775135,0.16466014093383,0.0265098135615821
-0.0495491434738198,0.426235622951609,-0.125359461129099,0.02445277229095
0.134230491918545,0.0801422332730566,-0.292698687490925,0.0148314874763878
0.292819303093073,-0.18853241159362,-0.313059432485455,0.000868564112878355
0.392653743562111,-0.359984308662017,-0.222271240313407,-0.0134025614154774
0.425135205291354,-0.407505456605601,-0.158331484433394,-0.0229015061864137
0.361063336174137,-0.31193038586738,-0.142050664049303,-0.026630202962772
0.201748302874227,-0.137082814550257,-0.1108174366074,-0.0265632829531196
0.0596571129353284,-0.00401804433764602,-0.0679907360367188,-0.0240733381857578
0.0136993602067685,0.0106224393793528,-0.0228747115297176,-0.0196742387286532
0.0169209503791052,-0.0420952964795379,0.0121661731343071,-0.0134289237859315
0.122689394871957,-0.0440098793402722,-0.00142320974637901,-0.00548163771185139
0.240146806976039,0.0490533797233405,-0.0132916418075692,0.00286440112019005
0.0743993182774842,0.183845875766587,0.0240672790337254,0.0091807663373862
-0.217763245580469,0.264956912910152,0.0739236833340881,0.0119323778089683
-0.356824971534264,0.349144044320706,0.140351774366613,0.0121580440925442
-0.371764509703,0.474145548306346,0.167974763837938,0.0124736884988742
-0.273800399131099,0.366391990998813,0.0571691509458995,0.0131236006436652
-0.200210252213877,-0.0285549060896985,-0.0749528006021093,0.0104954324117074
-0.241960397599302,-0.33766670602458,-0.0461871904886861,0.00404402404211192
-0.175843549117161,-0.350580839835473,0.0431284333527561,-0.000132139012446941
0.0323252869119824,-0.227750851873473,0.0175442442361518,0.00187625428406445
0.191561585760329,-0.132768688062283,-0.0739922046346924,0.00587174418744137
0.250820525380959,-0.0657860237870246,-0.113569076690066,0.00526318612607092
0.283614389259779,0.0387871024157914,-0.0456270130399778,-0.00195605462000953
0.37432048082354,0.286838285038837,0.111976361954749,-0.012015267184102
0.489073910805391,0.511345941752961,0.21599409877246,-0.0186179246571297
0.451027595808482,0.378176422318072,0.160859996714931,-0.0194506683201474
0.226842797837398,0.0165066499300964,0.0191330675731582,-0.0186565977116255
-0.00294582186556613,-0.235271730467481,-0.104390813608268,-0.0195421166350059
-0.0721966036130032,-0.333043360849481,-0.165256053365045,-0.019490456846879
0.0133730421211146,-0.358609018658725,-0.160897224465635,-0.0154480155897125
0.0236765273989711,-0.228825183174906,-0.0565313024840525,-0.00857816968086753
-0.201649009509038,0.132862089891786,0.180073343460184,-7.37330741063733e-05
-0.466437073997963,0.525318636567203,0.369115725488838,0.0119430382636162
-0.473123955998644,0.69682239884844,0.301435055344397,0.0259961027874628
-0.279869962754884,0.594282384232261,0.0858933388084305,0.0335210815606284
-0.123818718442119,0.3005909106035,-0.0753420060107207,0.0280319082601871
0.023311745590939,-0.0183987415955351,-0.165250418978973,0.0122256380636112
0.21520859351318,-0.19040277171414,-0.206064806872904,-0.00625659559312848
0.293892735743752,-0.231970734131236,-0.157562014997075,-0.0201680824122087
0.207403903071778,-0.160617237549834,0.00851640131744053,-0.0251064502119361
0.0958985292216538,0.0871210074327702,0.192605877736829,-0.0200745784158106
-0.0276806204462485,0.354322754601471,0.217026377125389,-0.00793948251024875
-0.201966306324735,0.423667771402283,0.106898468018906,0.00468286307233444
-0.251086229754516,0.256683005487379,0.0390087799688744,0.0124406696940711
-0.111211386976207,-0.0011498334310826,0.0417834920838989,0.0140162925809425
0.0442924706491983,-0.117790577947985,0.0400402737128631,0.0104564581649511
0.14013400485447,-0.0444523740934459,0.0166262171987103,0.00515366835388637
0.172316745105242,0.0446190931841276,-0.017206161471914,0.00163981679870193
0.156002183718618,0.0325067821570987,-0.0403859314423974,-0.0006160869973902
0.163660010209425,-0.00621928641228891,-0.0287711169778923,-0.00375180476644391
0.181107092469358,-0.0291055055008621,-0.000162638945602395,-0.00667336089574405
0.109180507468541,-0.04553220734693,0.0203282912007534,-0.00720714317717306
-0.0282865292039607,-0.0163962373893324,0.00750484096130148,-0.00560406457820973
-0.0791384851219286,0.0190353467529197,-0.046641077178301,-0.00385545210728097
-0.0201600388453792,0.0118720616502437,-0.0580755005295304,-0.00253075204957458
0.023400449474168,0.0292957368143261,-0.00479663848764939,0.000419566797812066
-0.01064721710531,0.130557974452464,0.00207410656108625,0.00447606657116752
-0.0671534203928747,0.234856793504537,-0.0295876521407678,0.00591350177437511
-0.0579357215492403,0.200387332492699,-0.0355170920284279,0.00497209994637389
0.0336273977668792,0.00264085158738514,-0.0658678580261166,0.00374079550264623
0.153494584686384,-0.193750751660258,-0.149645425696633,0.000358956337757401
0.239015954937402,-0.241211647929487,-0.251522834924812,-0.0069698724007234
0.240147185932087,-0.208626141299339,-0.32378247952209,-0.0156921627340112
0.13374906205034,-0.256376606823695,-0.297061381724843,-0.0218523271908827
-0.0518323392233494,-0.343655667855953,-0.134141178048394,-0.0227929030616585
-0.161565416130988,-0.247491786402163,0.037089240036258,-0.0156542479013773
-0.065486628458727,0.0986095923545562,0.0328932554599394,-0.00033172210203412
0.148969702944269,0.398717290250651,-0.0723727571648814,0.0161952792276094
0.32988589965947,0.289875480186838,-0.0714110598882611,0.0251771159586124
0.316715309251206,0.00809037062530496,0.082987673530499,0.0243600069117684
0.0554262997127501,0.0221390319050036,0.241558411888197,0.0187335242383224
-0.192587757872867,0.22123948491324,0.197849430552,0.0147364602606164
-0.0830229805427189,0.276743166282723,-0.0348622857716666,0.0143453980187505
0.302991032026646,0.136673676417054,-0.273425139326005,0.0140469840796389
0.486619877630019,-0.0851868075223422,-0.392873294301043,0.00852551590627987
0.272959389623895,-0.258407052876141,-0.381226206979199,-0.00471568016682094
-0.0924286875258752,-0.294070389644153,-0.271329947527401,-0.0221263943947337
-0.287556503484642,-0.196387749265474,-0.0690353206783911,-0.0331698573643003
-0.229348299274604,-0.0830959415645547,0.145194802413936,-0.0272997178479386
-0.136178287403659,-0.00587859904667698,0.248512451893214,-0.00708033553171851
-0.133097280249676,0.109853199152414,0.248150456289999,0.0118263531228115
-0.121921522393945,0.149536019271731,0.191654294442132,0.0178447001526435
-0.0104874825142125,0.00217286128891667,0.0811232040112711,0.0128834558363214
0.216917747685014,-0.0961045477692988,-0.0201072951495405,0.00382349653550253
0.429403450603552,-0.0210696447189792,-0.0697469749206875,-0.00449831656810817
0.43162296524573,0.0613906389914921,-0.111199866855776,-0.0092162502979477
0.256829205969646,0.0380238569407162,-0.1541305232327,-0.00969947402305519
0.0927436570725662,-0.0368844540370893,-0.18712099932639,-0.0063945096352571
-0.056773815888754,-0.0431798889643474,-0.211785609720037,-3.95057060816259e-05
-0.202558639278933,0.0177400752666172,-0.219745911866348,0.00720032226978765
-0.184966075270186,0.0539440046792594,-0.218229201034081,0.0119625246597283
-0.0655434441879154,0.0290998967525321,-0.189657722323303,0.0127219148060511
-0.0428135894733598,0.0316605774541356,-0.103685271220882,0.0118639042994994
-0.0422387488494375,0.0947869999585002,-0.00839469720223734,0.0120803414352595
0.0937233428775133,0.0830744739850225,0.0646687889132083,0.0120468034355425
0.310869570952464,0.00854225235454911,0.15213776488737,0.00898422554425882
0.432293880386616,-0.0684079123521216,0.222093171976617,0.00405746198439038
0.402981397312008,-0.227296879245795,0.201522018022008,0.000897678498142698
0.300339701988601,-0.392504279384632,0.124801381463416,0.000283082156808227
0.194529815930939,-0.423970115477851,0.0316261625259728,-0.000642710529838822
0.160843013379665,-0.395244207921666,-0.0853313248051112,-0.0057733661042254
0.229199978838889,-0.427452912496836,-0.109153400864213,-0.015960645657161
0.200487456014321,-0.359526033279695,0.120594720415593,-0.0251125566999183
-0.0772085556736986,0.0557622239529291,0.421539494280135,-0.0228480941817237
-0.344001142726959,0.454797884352106,0.430207569927165,-0.00613474040642519
-0.418533036640764,0.450096951451677,0.253564346296261,0.0144204587154179
-0.398842684598193,0.44347313216339,0.163410796902437,0.0276035157751507
-0.265336367002306,0.546995521483049,0.069120115882144,0.0332652392739095
0.00508125034907764,0.34675122766762,-0.0914065168549372,0.0328213882763079
0.239486318079473,-0.0136433015050583,-0.191648810123245,0.0231331538957657
0.263881759747346,-0.204021338715449,-0.224658425518195,0.00551602569681798
0.145735957059028,-0.300412560610952,-0.248880916879702,-0.0127982450323057
0.0232301120666796,-0.373225576425249,-0.254855730116301,-0.0254387978453821
0.0195969104352503,-0.385697078079023,-0.22901759155762,-0.0303482202673127
0.184087971437012,-0.309456582845896,-0.149281793823675,-0.0274957832856592
0.313224811962381,-0.196866658838011,-0.0842010232390113,-0.0163444185900832
0.283292105645896,-0.202367357563422,-0.14478975694205,-0.00133682623967166
0.219507339378079,-0.296239313375296,-0.227157669173887,0.00760409076772442
0.206956181154233,-0.299394575277908,-0.179251494143562,0.00579098078982586
0.209250087104264,-0.23406264157048,-0.0802926733014653,-0.00137337211867733
0.187012797252864,-0.226010614330773,-0.0538974620749998,-0.00628343445782559
0.124407975355841,-0.264104232746861,0.0169664026775302,-0.00714577577590027
-0.0110889785190055,-0.185865550179834,0.273488433632169,-0.00514074438234859
-0.192461940392657,0.196111101266333,0.532978473622713,0.000585880986225043
-0.225833927958542,0.684929511794356,0.54402491683001,0.0104726385667773
0.0141411651478445,0.760642035902801,0.378591951104241,0.0217193161852589
0.305341877654062,0.398850027962957,0.211503841131547,0.0292014537633294
0.354636980513262,0.12129124945491,0.0824361547086979,0.0270992856100466
0.210392948823392,0.0843928082653416,0.00322415619053112,0.0141080494835922
0.0714135212977109,0.0169096450352999,-0.0558851967002682,-0.00353146263090257
-0.0152015266717132,-0.152792563655907,-0.108496958308019,-0.0178032277626059
-0.116272517886301,-0.251593537755158,-0.0832633334295421,-0.023908196910341
-0.244439624455968,-0.200939117798713,-0.0299767661092528,-0.0208506091423124
-0.267320035412641,-0.109081992468721,-0.108388321307954,-0.012609154301956
-0.192270885178844,-0.0550690226346223,-0.271009121144826,-0.00618775051479232
-0.149535774493052,-0.105297441700368,-0.332609248814278,-0.00421711380641686
-0.0632505188166575,-0.243879958161759,-0.307930078660939,-0.00323618612403148
0.159173459999959,-0.264249032531618,-0.315765292748189,-0.00162780250480303
0.372331212891314,-0.131325955320142,-0.334197155266663,-0.00178935664097781
0.429964488949718,-0.0618745078386677,-0.274361623758398,-0.00352736259249783
0.347305776776224,-0.0785529476480267,-0.0605229677082277,-0.00422918291629312
0.132681547737762,0.105329484999599,0.332171956785177,-0.00274741386413076
-0.14246201554673,0.465704488360493,0.702059107016744,0.00407690774676858
-0.251422101636877,0.590562916541467,0.752915604421591,0.0179949110925053
-0.122533576647552,0.380298639190554,0.507280938982994,0.029286508554584
0.0842594018877564,0.0576794689495972,0.294130124179145,0.026015538193445
0.217296919310292,-0.128532773311548,0.276002383972368,0.0106803864322783
0.170205098096884,-0.0594032955305331,0.294967868773317,-0.00313936973723546
0.0208778717595444,0.131283041471001,0.200821407328803,-0.0059514587873599
-0.0464791710401188,0.284279658776295,0.0198470261992415,-0.00120699261725334
-0.0487058829018212,0.358302548643042,-0.150309937909373,0.000536967964588474
-0.0161195722130382,0.313280976755841,-0.250134495621971,-0.00488458524444387
0.104758959952444,0.136495011763322,-0.255795940022199,-0.013072003106846
0.230866614480922,-0.036201398843287,-0.165491249947894,-0.0193589078914298
0.238780744266674,-0.0822355994414022,-0.0414855333077086,-0.0215568227864341
0.150625824276955,-0.0451100201507732,0.0337438111282377,-0.0186955633437141
0.0605381391000361,-0.0163134717956491,0.05802179567921,-0.0123157509656368
0.00524438880594039,-0.0120038687521778,0.0736408943912536,-0.00577018323083365
-0.0239819252282524,0.0128532570323774,0.0803376587374919,-0.000696866056740544
-0.0189690344112779,0.0400663106694264,0.0447966518357096,0.00306962738943833
0.0277132623527035,0.0152363637699821,-0.0252611902767343,0.00443433489866582
0.104671140250302,-0.0427407997997262,-0.0546217102018491,0.00290505600512459
0.165548567897533,-0.0796787729314157,-0.0310406291450208,0.00232086068238762
0.189251015136156,-0.0844168656974891,-0.0748617329715566,0.00557778600835458
0.196170541689585,-0.0380044610828355,-0.209541684364201,0.00805707248611113
0.180100780917033,0.0935984074131589,-0.300693437006028,0.00416571045951968
0.144217500739535,0.123687520770679,-0.319053404133675,-0.00388527874707769
0.115343283281339,-0.117595353889694,-0.308629423113561,-0.0108356394802831
0.176741116964635,-0.393619271233136,-0.224979337734054,-0.015296217503691
0.234600790909832,-0.475832935081529,0.0050715787854565,-0.0171288609585631
0.0496647425379126,-0.338780174844865,0.355469465299695,-0.0125291631491794
-0.272350994441409,0.0111793831816072,0.584858012291217,0.00347792426840423
-0.48928798836281,0.378669283718132,0.49854531630423,0.0249053698773487
-0.427230701936139,0.516124690550633,0.285111715852835,0.0357466237041681
-0.0717856900500454,0.448398125094085,0.160309603665884,0.0311741003101428
0.254331745862263,0.409352977415755,0.00591102377091979,0.0201752481804313
0.317599656834967,0.462778504353129,-0.270111394093238,0.00773650494004709
0.162711247341316,0.411116569798155,-0.476080819962066,-0.00694705139510052
-0.0312434245376757,0.207622547874355,-0.472037988810985,-0.020808144205474
-0.073527339215796,-0.00359895328546833,-0.350268098498139,-0.0284544172343651
0.0547999500628985,-0.171076649999635,-0.216809730749431,-0.0279860033952092
0.19521664551824,-0.248982760696738,-0.0294267933300642,-0.0213964235871041
0.182174359594565,-0.156068913318444,0.214003802856529,-0.0126405477637237
0.0562068836086671,-0.0116087737989698,0.333478020203044,-0.00481595393659246
-0.0245710176722285,-0.00489287700773523,0.256688113054511,0.000234248092319474
-0.0362362976491547,-0.0773125747326447,0.122877977683888,0.000475364857463635
-0.0460495274805319,-0.135184960207392,0.0441717555845794,-0.00466013211910449
-0.0123110647935717,-0.240379895113275,0.00303672671678623,-0.0106257448743085
0.0822243431005227,-0.372661748570284,-0.0290569442443457,-0.0102160950405909
0.0998049595289438,-0.423166506457955,-0.0306428529399223,-0.00132582434212528
0.0359790971100455,-0.384973321615676,-0.090964108668848,0.0113103853877223
0.0126178007183144,-0.379377432753696,-0.296430627560133,0.0200891435090105
0.0607754815520919,-0.435699719853731,-0.491837229899834,0.0206449828538462
0.193884273987761,-0.382213592302384,-0.534921381888833,0.0154216951425099
0.30477799405536,-0.212996857895519,-0.439725347594392,0.00819877564840239
0.1589700585878,-0.0102296666943607,-0.17730165193459,0.000188115091571232
-0.279558170538298,0.348698720158576,0.241995567082668,-0.0056174760144975
-0.718905263895797,0.825487667735125,0.5858291681256,-0.0025605310294894
-0.780792143274069,1.05859393832728,0.647542348049887,0.0130726220056471
-0.441831638737272,0.847874356048635,0.464682862276149,0.0332490133198909
-0.0333947206589336,0.388801051820674,0.175502934873544,0.042184973769603
0.164126801494099,-0.0566977366565669,-0.0720412420909149,0.0318787006703199
0.196663537371083,-0.364418692427197,-0.193440124600698,0.0076747035763493
0.283424094253951,-0.554087365691445,-0.24624198694016,-0.0186561624986143
0.421613690910248,-0.618014715958004,-0.269468625225408,-0.0368761281269184
0.370094226519569,-0.450682717032242,-0.180728280992894,-0.0429957432985282
0.103531817222586,-0.185836994443556,0.00957885040477219,-0.0371367034798893
-0.0762553520146296,-0.0774019427679555,0.189807421138749,-0.0208170370311955
-0.0527384891396614,-0.0697216978086455,0.315426934315989,0.000106635791208606
-0.0529591576030325,0.0488725974341909,0.388179282166446,0.0175803351289931
-0.247369613102145,0.296625853446434,0.400138384896875,0.028774078314606
-0.425018636372491,0.500485829994103,0.309079714147708,0.0346552048943461
-0.329011846374904,0.452559105027354,0.0904605821866468,0.0333817738302329
-0.0712098894249065,0.143531719975311,-0.142591745672981,0.0216620664949957
0.141530152862918,-0.133565356558803,-0.236567469101463,0.00263224407350719
0.206844424030391,-0.158655654051984,-0.197231132329839,-0.013677383261576
0.113379778859191,-0.0362512923070256,-0.127934241892222,-0.0206185224977107
-0.0102649944356324,0.0518246533894561,-0.0926853212494697,-0.0197234954483774
-0.0613055636317533,0.0765277416279985,-0.0814046760756336,-0.0155535239741671
-0.0701409351420464,0.109549198960214,-0.069534582396575,-0.0112961681956148
-0.0787854933493432,0.167765018422506,-0.0611557849714399,-0.00822497899893842
-0.0660536148774264,0.222344318303663,-0.0769693587219266,-0.00642630627615094
-0.000589846334367219,0.262146189207566,-0.164325107643865,-0.00627202978616839
0.0684466641048536,0.217113944923089,-0.302121098596217,-0.00830391214985964
0.0888787987155897,0.0959922873821759,-0.369358927990427,-0.0113515530573517
0.07825849732263,0.0723112538271131,-0.2295724877716,-0.0125884371895182
-0.0289400663105256,0.117045987013023,0.0429002959230219,-0.00763796544328714
-0.269757769988294,-0.00956114678666638,0.141014089328171,0.00429536981040076
-0.409866580109142,-0.315723113663192,0.0117661523020741,0.0152655833918178
-0.216227822076369,-0.525272749724309,-0.103002897776423,0.0183518504691366
0.151529918190435,-0.401900395684064,-0.0869668511738564,0.0161107456581254
0.30174001035883,-0.077769534237583,-0.0268295100439706,0.0126473397261281
0.109509672440101,0.0947712566837761,0.0608194256599424,0.00751092750792668
-0.179700877077419,0.0793025666819375,0.241953107539338,0.00186750636767227
-0.3573128589969,0.0732898105569871,0.414342040417049,0.000780397904467019
-0.387891843918148,0.197484936355581,0.442682031536596,0.00580707333826138
-0.276929995824929,0.41883993807961,0.304783753135763,0.011786060239021
-0.135787897663985,0.520104232074736,0.0309468212009677,0.011256296314631
-0.0370130113663642,0.406320600913781,-0.249851102520072,0.000500677406991036
0.102938646893476,0.169274082916393,-0.366384899094347,-0.015583563746769
0.26832422771429,-0.0187287194067361,-0.278452518786857,-0.0267312695942672
0.314890685236155,0.0460500273393548,-0.127795474153488,-0.0263830490417728
0.209005637022135,0.247653059110244,-0.0657054526792567,-0.0162561307300209
0.0905943663007924,0.275565833250006,-0.0570426956508587,-0.00542868097891392
0.0516160869109483,0.0793024949590485,-0.000517529159887439,-0.00245320485098514
0.0444758959034482,-0.141480266747853,0.0780748843842062,-0.00722419381236555
0.06364080728649,-0.206233628079015,0.105104005457045,-0.0133957654473444
0.105869881321955,-0.166695675203353,0.0692833316095744,-0.0150278862088487
0.0939870499015873,-0.176860127472134,0.0095928414740323,-0.0106292027281973
-0.0205405405975339,-0.213034845662132,-0.0518295645898641,-0.0036677644293414
-0.139457135018425,-0.204407601870247,-0.156513473612213,0.0011867520934056
-0.127301336608658,-0.30847610331563,-0.257362243225849,0.0017729814837529
-0.0813205855453927,-0.524390242690383,-0.22711874802772,0.000475282443965684
-0.0773576241102057,-0.503617785670362,-0.0800302037462588,0.00122143972922048
-0.0299272560105626,-0.172747489438079,0.123829689303333,0.00469738581821548
-0.039750182060389,0.182326665429086,0.312432596230802,0.011727777924187
-0.136603558561466,0.305044845926753,0.282889805443719,0.0224787238174485
-0.111130892495188,0.161240093897909,0.052493493427816,0.0292034359277364
0.00269160580988417,0.0874096250792213,-0.0698335331590155,0.0236821018271119
0.029707527014661,0.208973675749961,-0.0456614699068202,0.010038014654737
0.0605836294936045,0.120653251869131,-0.0782904791567505,-0.000765032237507828
0.22128153818231,-0.19266281205784,-0.183257250228639,-0.00485400418490422
0.369764921500077,-0.250971483321729,-0.220565462881365,-0.00590888426306369
0.271871414005232,0.135489696385111,-0.0922200204585211,-0.00621518284532528
0.0116293941460063,0.515907390289725,0.0789573252171071,-0.00569765763688407
-0.0536082410031784,0.373623567193001,0.0607460386642772,-0.00624518436273482
0.0705179283479696,-0.0665130778059677,-0.0627620418198596,-0.0110112231148553
0.0183741436527196,-0.36843659978191,-0.0892201874939849,-0.0204137664395699
-0.251051965840732,-0.527498148043495,-0.0466942025673088,-0.029545790128995
-0.425712282348659,-0.606111768699195,0.0662408449812151,-0.0305413610033982
-0.35258271346412,-0.513407003323292,0.252566976384923,-0.0183489516805943
-0.132749450021686,-0.154484985716277,0.314892206800035,0.00443023670497898
0.0626015896594758,0.299242958538983,0.191008976710584,0.0277877759754797
0.161711675642099,0.396434721832288,0.0687179366925612,0.0419012985078241
0.244574044564878,0.202419371309487,0.0360079423342293,0.0424695008310354
0.30560648354064,0.276632751528995,0.0452326915949248,0.0309910484194728
0.223552400969766,0.597450029060141,0.0764636618775534,0.0144010495130173
-0.0108723124684483,0.638775370696155,0.143915018260967,-0.000102347476752765
-0.226528364244434,0.29918190057574,0.206076744554937,-0.00909709648029663
-0.191574176898864,-0.0446017136083928,0.110299461623317,-0.0110201911509291
0.0628796256295805,-0.181125432132944,-0.130099593999601,-0.00820002815709735
0.228256842363404,-0.161432838494191,-0.24841419539735,-0.00682159541542342
0.179649716872547,-0.121866155511442,-0.184887633073865,-0.00807445517404653
0.0733734391292298,-0.172627634484006,-0.134844974184152,-0.00820862405478441
0.0382680981766215,-0.283985038383504,-0.16845947393366,-0.00723918287846461
0.0541508390452351,-0.356784462961432,-0.197431806591208,-0.00837283340835072
0.0789200037136426,-0.320042422092887,-0.159578725839648,-0.0110397340671119
