-0.0453202997233593,0.0280650979346818,-0.0141660792203045,-0.00745655197546431
-0.039672177133856,0.032804260476243,0.00257263176719195,-0.00791599149303176
-0.0526898566722881,0.0260908703755958,0.0023682563709187,-0.00762337986343664
-0.0475921867772827,0.0145421820807876,-0.0108057868058145,-0.00688403244479968
-0.0102697642985098,-0.0217457019532056,-0.0245205944340582,-0.00564769641126802
0.0316188814545252,-0.0743457585777272,-0.0242866026778357,-0.00328643039610302
0.047266537443564,-0.0969970398916557,-0.0100858225430412,0.000182633872997017
0.0431253365621585,-0.0756050550778567,0.00689688658956408,0.00317678878016896
0.0283972771678574,-0.0547583124261462,0.0197717658713123,0.00464515374226303
0.00454226606746656,-0.0736733739808377,0.0273285187994426,0.00473294412148321
-0.0059451820372152,-0.107927467536333,0.0305948230569753,0.00377383537356678
-0.000873243343280997,-0.08682064674137,0.0311060449830522,0.00278077435591999
-0.0115257472055843,-0.0248838078099818,0.0249960849061326,0.00305759625131278
-0.0263258355212694,0.00732269296738502,0.00811917644616433,0.00441900507592516
-0.0171627586808308,0.0282364447138906,-0.0101437012721357,0.00581378659785402
-0.00177352001066528,0.0465897812853321,-0.0170215971426798,0.00667057690286322
0.00348675880182844,-0.00655171699088559,-0.00864937824220861,0.00642785410944668
-0.00795998048319915,-0.0919381445223686,0.00990141418470511,0.00432534601100726
-0.0474113129109457,-0.0353222933050978,0.00421816070964703,0.000402378250636921
-0.119663619767312,0.163982654313776,-0.0499432499070776,-0.00271968461823611
-0.185654187423282,0.251706055513519,-0.100012138976642,-0.00240553274439301
-0.173928202299855,0.129840740161091,-0.09736174102954,5.35477740182515e-05
-0.0980708950388671,0.021780814335897,-0.0757548112236955,0.00193897076417116
-0.0434841249141116,0.0339582178065078,-0.0692173858458706,0.00273132990199391
-0.0365841298960253,0.0217588548674572,-0.058714533878796,0.00269520714960903
-0.0300493326742324,-0.066308774039587,-0.0304407462758845,0.000608881549120777
0.00228341511562391,-0.134831659134183,-0.00498442524781358,-0.00392710239187035
0.0268607464740146,-0.121473133137047,0.00362839494942913,-0.0086254367992122
0.0264829807451548,-0.0726960320706716,0.0061242539761419,-0.0110408271573381
0.0328631444986393,-0.0519981111192506,0.0146115152111201,-0.0105839378148951
0.0590065118965794,-0.0261457170813973,0.0287631108973381,-0.00834542223210017
0.0665578358193953,0.0375237036788779,0.0397801334175841,-0.00622166349771821
0.0252088942315882,0.112096789228775,0.0416776437403443,-0.0048635784319179
-0.0309479904261867,0.162774395381813,0.0373777566592496,-0.00324199556625958
-0.0483413238353033,0.175370963335168,0.028711568709656,-0.000975768123091738
-0.0301894231680014,0.183432307047783,0.0111793664264226,0.0013378159365382
-0.0184063014242026,0.177449818485842,-0.0115176331172008,0.00337592311557571
-0.0286419889576053,0.104623547308084,-0.029579026834089,0.00503874110140783
-0.0420393688179319,-0.00110997349744904,-0.0425099323313568,0.00597895563254061
-0.0490465190747827,-0.0820969764885448,-0.0498349628934441,0.00564206871560517
-0.0556368321464337,-0.141738031682387,-0.0490226120744472,0.00361796800528075
-0.0497690143421674,-0.170478289379894,-0.0460681625475009,-0.000141864739836023
-0.0334390876367236,-0.143443881203419,-0.0446507915381387,-0.00478960521385163
-0.0224367390814496,-0.095384777257128,-0.0323561480156127,-0.00812270951173404
0.014587953229379,-0.0749802625168245,0.000705766666517373,-0.00863787275603159
0.0812279657854661,-0.0433690880666391,0.0326986278788545,-0.00724122556127084
0.120935364093892,0.0473735119520862,0.0336023000115437,-0.00513524070914433
0.120069386614205,0.153357226784053,0.0123455186827399,-0.00197207166820949
0.102134517739021,0.20847170323292,-0.000371941813878111,0.00237241870962543
0.0830887743406562,0.177367817020019,0.00407602027541602,0.0054829054702548
0.0650346359803636,0.0890996380757831,0.01565290035183,0.0045657107842107
0.0428430955010304,0.0289122121442063,0.0204336817395201,-0.000133817450993359
0.0280944719645291,0.041425284573461,0.0116564906753633,-0.00556841708757815
0.0274295243915922,0.094201803221895,-0.000509049401900222,-0.00825403704699665
0.0260199524388608,0.118913046398668,-0.00169683615948907,-0.00702056618529444
0.0186571725509949,0.0929755301101488,0.00904973005045958,-0.00336660616717955
0.0114811579463728,0.0816468127178049,0.020503438472971,0.0010924778931833
0.00479523208209894,0.0580557739873278,0.0318312579789322,0.00543878248671677
0.00271864026106351,-0.0948983845667223,0.043689658302488,0.0079170303769449
0.00804700718796427,-0.289200772178565,0.0448673097985631,0.00700590882212607
0.0116458365673877,-0.359671006038145,0.0417173839548044,0.0037513638236939
0.00292945643308182,-0.316954479654351,0.0445244282423045,0.00027023456739078
-0.0237643890241354,-0.236093875787905,0.035143349224708,-0.0022385992750281
-0.0595784118950395,-0.133615659618538,0.000185818245725153,-0.00332874424683071
-0.0820962814998618,0.00865246565806016,-0.0318030115292353,-0.00352716917439953
-0.0696625916469115,0.154597279508912,-0.0437198137951746,-0.00326982175361684
-0.0230522752058895,0.230401148847471,-0.0576754488577256,-0.00104914475612398
0.0186829908685768,0.218032083507925,-0.0609063387437985,0.00422749108766822
0.0355646722713083,0.146311493152457,-0.0282350652382248,0.00963082241667645
0.0445023860097449,0.0728237203508679,0.0142263393449648,0.0107921726477832
0.0566219069833326,0.0334651199916832,0.0360251083750308,0.00720506582822945
0.0735157728477776,0.0222215287099289,0.0362101045752864,0.00289015093432004
0.0727782777633431,0.0052879380783542,0.0273408027036009,0.00222039813802847
0.0408243803687643,-0.0475373760373206,0.015623273985813,0.00487314142523667
-0.00043650159518506,-0.0560976940027273,-0.00561794369748999,0.00695140365394046
-0.0306654289114385,0.00423291882560533,-0.0298323186857272,0.00686864327906145
-0.0282776135748535,0.0076180392386529,-0.0334104445375025,0.0058142865134596
0.00525749640077071,-0.0690032194717937,-0.00994299107549151,0.00359598818720999
0.0186110589712443,-0.125456539295952,0.0160492736884332,-0.00111811867198939
-0.00820834056418471,-0.138518565596585,0.0270907044794748,-0.00735818303112275
-0.0343342350904921,-0.142895942962726,0.0309614200726521,-0.0125714899894163
-0.027282567698717,-0.134964290984946,0.032835761290959,-0.0150072178780009
0.00118339151153238,-0.121904076673376,0.035635923931303,-0.0136085988683939
0.0153541763419222,-0.135022267071971,0.0395221119050827,-0.00859255380136382
0.0262629740364814,-0.158916584797556,0.035134391763177,-0.00253275073000846
0.0796076852203982,-0.137939895946574,0.0362197419436698,0.00155939990770365
0.145751347687286,-0.0950334748423873,0.0689895114273047,0.00324583936058683
0.159156469699906,-0.0659818573022909,0.11291060767587,0.00356495048371539
0.137874072611398,0.017821096212727,0.114835986138644,0.00370316877193374
0.11638949330973,0.259958905766672,0.054766692416047,0.00614414651578167
0.0832690078687718,0.540089062803435,-0.0104562054047,0.0113563215390025
0.0558570766588384,0.589679212893403,-0.0204148097956245,0.0151400797796895
0.0392773060242399,0.444251604849534,-0.00749632766311668,0.0142021012733083
-0.0298899537506701,0.292117153601915,-0.0216533251952532,0.00996170206016919
-0.126335189827972,0.193881022220015,-0.0625827902009401,0.00546004227368084
-0.127420412832819,0.120999023053661,-0.0896155363767349,0.00283978285869
-0.049059129679167,0.0122401158599535,-0.0786168762203708,0.000683182651382052
-0.0197534925661741,-0.134085801850297,-0.0637500880850308,-0.00493113140791543
-0.0684492689314879,-0.274386261636293,-0.0590311741019175,-0.0125615794161075
-0.110299850272856,-0.341387776249328,-0.0408325288486366,-0.0165412087046134
-0.107549148218889,-0.27563259056847,-0.023278530183387,-0.0156041998781947
-0.107592534342945,-0.164668615358012,-0.035121817551379,-0.0119472125919276
-0.110741926603613,-0.138575963432427,-0.0472243688644316,-0.00493678985437687
-0.0577871780146763,-0.162780961858437,-0.0212315435939053,0.00700811598323208
0.0501517258266243,-0.166507405223862,0.0256068751371087,0.0201288444455777
0.143681022590012,-0.189977050667551,0.0600236587641565,0.0254879182382645
0.201175955055365,-0.240821850027267,0.0768352508972485,0.0151529754666368
0.23559087146434,-0.225098769804074,0.0765632227615293,-0.0078552854775455
0.237916045999803,-0.120898062487594,0.0639802997831866,-0.0279051179171284
0.203662363371281,-0.0146385039215014,0.0457879041869534,-0.0334178703896868
0.134295383412903,0.0341451898923535,0.00202919489933104,-0.0273082911288833
0.0592159222370061,0.083790822526976,-0.0553328974298711,-0.0163215069393108
0.02427771851966,0.184598300790122,-0.0639923512249244,-0.00328235801316209
0.0322994456764033,0.209851621373064,-0.0160661321874755,0.00841630921563542
0.036389259271784,0.0873960292338869,0.0314906648392674,0.0142014144623816
0.0139415335069125,-0.0257517342812895,0.0509767834712431,0.0135253893859182
0.00661315115104048,-0.0562319006760881,0.0572907333223111,0.00922764141207714
0.0325406522190732,-0.0657030771480956,0.0545830063213708,0.00305850291067642
0.0454611461563286,-0.060926573746282,0.0369819210040742,-0.00293706083830073
0.0249173263319894,-0.0622994998992081,0.0228906405087281,-0.00548379386005686
0.0232220538349194,-0.0770577451674204,0.0359994742345277,-0.00467423880575681
0.0746922429377174,-0.117057693520298,0.0644303864493256,-0.00382180854434178
0.146214907631468,-0.241448121681489,0.0805475604671357,-0.00365418657452536
0.20105086195956,-0.335155427273414,0.0872959665501062,-0.00192675374029662
0.195185564174557,-0.232555072921424,0.0975596032886574,0.00132841643073859
0.0638710772967933,-0.109026046396608,0.0941617199104207,0.00314019631665149
-0.137435239076739,-0.193068519063084,0.0570917952857602,0.00284030011378718
-0.212101328202818,-0.354016115359057,0.0204467857216376,0.00284335366498244
-0.100975485778324,-0.38632556822891,0.0303029100589669,0.00165807549926667
0.00621319471536433,-0.194069498292509,0.041421163728944,-0.00476760987438575
-0.0370508398583553,0.236481747061319,-0.0164526402993162,-0.0119239638872794
-0.180221542398684,0.651171469846592,-0.10328855933424,-0.0100110999767607
-0.299548426125531,0.676404730000958,-0.131403348172563,0.00219083712514011
-0.284651193738532,0.365994885730138,-0.121572417715956,0.0168607400140256
-0.125734696620782,0.105084176545256,-0.13461068123296,0.0263055247092315
0.0678788088607596,-0.0221847018773415,-0.122419615804517,0.0277129928085982
0.180372271680371,-0.11881946919264,-0.0379822312802237,0.0233228349479357
0.194148798715663,-0.140839037729333,0.066038850594574,0.0148148786775288
0.165589093054959,-0.11381564460544,0.117329191201761,-0.00220411070894461
0.127776945340919,-0.160883743997442,0.099875332921807,-0.0277098645403266
0.0869993010912412,-0.255282448236049,0.0632358143585763,-0.0487787072483246
0.0444637178245558,-0.313150985648183,0.0590236149346527,-0.0542852192850403
0.00806506386109934,-0.319684517782939,0.0858101549641951,-0.0466028218958859
-0.00632517009777202,-0.28970453726761,0.101428623218877,-0.0333254443191187
-0.0348020802603916,-0.22731649292012,0.0871421405228303,-0.0178133862879566
-0.114087942912544,-0.0816105218759258,0.0848290804686434,-0.00145932746479115
-0.186945270212435,0.135397712248134,0.0984943148197588,0.0122450626987719
-0.174619114385718,0.299843774435653,0.0809952656401841,0.023094467930093
-0.0635784625723524,0.327641411068411,0.0559883051190859,0.0351699044676147
0.0653399220780363,0.320793626980054,0.055152299919177,0.0445990739402554
0.103692577582061,0.459440073760471,0.0398543963661497,0.0404391466337923
0.0407737216390236,0.606858423136867,-0.00638729046741428,0.0233922376054212
-0.0351991290085102,0.507263706889026,-0.0392767289904297,0.00695013452686827
-0.058690618969999,0.233885641484364,-0.0352196333394088,-0.000327082175303046
-0.0754160462867798,-0.113862594689065,-0.0329764636971504,-0.000781996511497374
-0.104874518383849,-0.517946082408334,-0.0874930079716582,0.00174657032236234
-0.118709758493894,-0.763692080265218,-0.168689004085627,0.00778449827198704
-0.173160430485331,-0.666828593561839,-0.191201387725935,0.0155420091737222
-0.24118091873959,-0.384763184067185,-0.154922444902986,0.0192017074941598
-0.202698688762929,-0.0634942257477095,-0.0948574688407705,0.0170119257890962
-0.114131345070462,0.353326735546099,-0.036511019682009,0.0103946134915
-0.082181808995955,0.704112502256427,-0.0224856195648569,0.000980469607313392
-0.05220517745258,0.671382212307225,-0.0483404756955147,-0.00735912478520763
0.0246911093574784,0.311663525388212,-0.0510534307854191,-0.0127441298325549
0.121627349404273,-0.0401622535192718,-0.00134454196448285,-0.0184314073934298
0.190453992511465,-0.221554175100674,0.0362605001950133,-0.0257212166415005
0.176974557048828,-0.255375374829807,0.0035832393520486,-0.0295798939435595
0.128938326078896,-0.174881437131961,-0.0528911132806587,-0.025102759664683
0.103349324055343,0.00223428605042295,-0.0730872387148418,-0.0131269706211355
0.0539761710304261,0.153497773825239,-0.0638560006068935,0.00167309798726795
0.00303868398928919,0.140162558370451,-0.0388461311175438,0.0138142947599645
0.00630746250285093,0.0331036969625319,0.0076938284295443,0.0195416539262743
0.0172830582170136,-0.00923313557987604,0.0417493661511925,0.0186802984691868
-0.00992175532544524,0.04469512232249,0.013306282144976,0.0136183796809036
-0.0593858443213884,0.127948920956349,-0.0428451499555145,0.00783716149294172
-0.0758493997672441,0.139353351031833,-0.0486578564313052,0.00463278423562802
-0.0346964156108383,0.0463906050356707,-0.0130632852026629,0.00468978255424355
0.00482188746080088,-0.0380232399776698,-0.00135961269464598,0.00530762215204381
-0.0186785649270185,-0.0579854086366237,-0.0274197968325107,0.00524379894372226
-0.0695566299996916,-0.0753003746790181,-0.0615143592621572,0.00730906896032967
-0.0687521470389875,-0.084705295211059,-0.0715555136401555,0.0124538645261879
-0.0154421007956019,-0.0472726602933417,-0.0503278593135799,0.0168874556615701
0.0268133380222347,0.0189240893212477,-0.0333987625793002,0.0162291629187989
0.0409463668445904,0.0760724718247005,-0.0420975299567635,0.00927053968555667
0.0636954279360538,0.129484716832515,-0.0573711413359747,-0.000515171270341744
0.0892989457719917,0.225348669234967,-0.0621266269286039,-0.00746425352601467
0.0872141903019545,0.29168911491091,-0.0462538167870823,-0.00953639428901171
0.0540820881583093,0.219644607609429,-0.0149316487375185,-0.00890035410847836
-0.0120965233206413,0.0745774350232871,-0.00128334742066586,-0.00750442097276015
-0.0918148825835031,-0.0264502414543563,-0.0249768172575338,-0.00591248744954115
-0.152293429230298,-0.0327066503891305,-0.071844432231343,-0.00375482197691544
-0.175081327788689,0.0355232511830723,-0.104734283166639,-0.00073996373491136
-0.135673292959036,0.0995498496577364,-0.0878600502031885,0.000529817927946216
-0.0558866374362529,0.122656390113635,-0.0320199548905946,-0.00309076501906542
0.00377888121517925,0.112111945994997,0.019610801055927,-0.0105356422482936
0.0286689618237153,0.0980297441452069,0.0416012291680697,-0.0179669726858013
0.0279448050715365,0.132120723118054,0.0382793468841049,-0.0218527994817643
0.00520347651851782,0.178534026434777,0.0345362118095293,-0.0208461381927235
-0.0233942608465872,0.166095486811831,0.0402549676842146,-0.0170180944394364
-0.029410631405738,0.0726847405596285,0.0326463550974977,-0.0124857793832447
-0.00776677560612761,-0.0687852724858625,0.00578096180443066,-0.00657313610795316
-0.000471606900386027,-0.0800593710536475,-0.0272917943108021,0.00128846533244752
-0.0369173692421619,0.0848817429336287,-0.0544110654553924,0.00962428254031054
-0.0850632272780769,0.128769045064213,-0.0613569423345171,0.0154343774451102
-0.103476985645289,-0.0399631940241053,-0.0371996956742559,0.0154415925253031
-0.0833588607919432,-0.191908634593289,0.0138415658261126,0.00938166627518736
-0.0333172669501898,-0.182726381606355,0.0470086252564678,0.000875053549352271
0.0259710480231672,0.00722911909511731,0.0375236377108302,-0.00609192931547831
0.065073505079354,0.164855504121096,0.0230866916866792,-0.0105153501968219
0.0735617612814188,0.111076204430826,0.0295350069340794,-0.0137210777256395
0.0647515979802301,0.00827405723519906,0.0388036816427979,-0.0162799177378208
0.0526639551609638,-0.0309349313187672,0.0425956260233363,-0.0170060817369282
0.0461152641180936,0.0012477040809659,0.0549025279344011,-0.0145258855421263
0.0241867669264547,0.132675451440728,0.0692051040762107,-0.00954522331783016
-0.0442677338868719,0.264664185189812,0.0569153137894666,-0.0049315247310919
-0.110576583907673,0.298015637703552,0.00349324792868254,-0.00209158095234755
-0.0929829580508817,0.242140457890019,-0.060777359573185,0.0017345300481389
-0.0308066646034297,0.125125421489344,-0.0829962224268751,0.00918855551019809
-0.0206268152676328,0.0335848374720407,-0.0555310130235688,0.0163228387323488
-0.0345023805900158,0.0103854600118324,-0.0166809588938035,0.0160362102175022
-0.0354639410572135,-0.076690483985731,-0.021258957229576,0.00832081540719223
-0.0855362725892838,-0.256985376599983,-0.0843609377917113,0.00137616900414241
-0.154461270076038,-0.336867148358932,-0.117190223964237,0.00109537263317891
-0.127853595840187,-0.271502479298881,-0.0596675199743154,0.00431723970108402
-0.0169866315003188,-0.194835499739196,0.0217238241938245,0.00493670719887682
0.0706130059263863,-0.132025642321789,0.0641539250414503,0.00210649041491589
0.104297058156419,-0.080739496925869,0.0729339492023175,-0.00051931321586985
0.118274944234677,-0.053114407173342,0.0710080203980342,-0.000878135559957029
0.107102609065348,-0.0133724116905365,0.06796545559056,-0.000555372927342057
0.0662749435608471,0.00610042438601113,0.060525606686835,-0.00153846962678833
0.0390244045799941,-0.0235102525283748,0.0536923160508501,-0.00353400395660412
0.053262803858945,-0.0406465334325674,0.0566091817456798,-0.00496165086913813
0.0768283737313335,-0.0528627202363098,0.0605538003221101,-0.00550320732768146
0.0654896954916614,-0.0577148613393385,0.0456548155902522,-0.00537725514748554
0.0309194772905401,0.0742455113935687,0.0148451444758433,-0.00205862892525622
0.0103583676213117,0.330265073037312,-0.0265855846895772,0.00778985406742024
-0.00125105807246551,0.448258257510329,-0.083678194769186,0.0220706446145673
-0.0127229827233466,0.292032731989618,-0.125156872475833,0.0329486084742889
-0.0161418329369346,0.0294825270379312,-0.127479032342909,0.0337070713964379
-0.0170839509819631,-0.150184832332786,-0.112414811738101,0.0247570173946911
-0.0190470304335908,-0.19672485679691,-0.0920151347391276,0.0116673832145624
-0.0115233619660232,-0.195360733794511,-0.0627076668015837,-0.000886995429510169
0.0167932532395784,-0.203429861707288,-0.0369518852451552,-0.0104295641701747
0.0575117507312421,-0.151907414169552,-0.0175536083365572,-0.0156855201589982
0.0814997689660917,-0.0427553670897198,0.00353374460688068,-0.0167870777191114
0.0716134140649108,0.0289111631842242,0.0215033559755195,-0.0148898401717288
0.0521917217823316,0.0232827191420481,0.0479683422175011,-0.0114241456850399
0.0397823638957102,0.0137178892193498,0.0846162643726411,-0.00740247498221241
0.0110003508308283,0.0362338029691151,0.0922507004483265,-0.00332923033808523
-0.0239271504658229,-0.000217605036091167,0.0573851155276754,0.000202036316307875
-0.024135932392135,-0.0494186796128627,0.0208343125830074,0.002991695297721
0.00388894864272259,-0.00154998659391564,0.022264116496572,0.00533926944679404
0.0289333925893334,0.048591997458523,0.0589996156842146,0.00664881331065642
0.0339832528657263,-0.0196434222472752,0.0889923455825393,0.00570915228091173
0.00697237845072837,-0.168958334109587,0.0688950119406439,0.00331202230945196
-0.0297916953491718,-0.229547916230409,0.0161782776253706,0.0018081716892743
-0.0478233399018797,-0.0931395921779417,-0.0252110892011568,0.00104803896597067
-0.0544006530103546,0.0949230448719987,-0.055654763828754,0.000205058012768585
-0.00530387365654023,0.107835138067487,-0.0773455966852351,0.00321251853188199
0.12191605465533,0.00648907126807707,-0.0829894420454789,0.0138803253559514
0.222223873982522,-0.00382485477973973,-0.0797688277105953,0.0268923809319741
0.235170312648607,0.0630975869867158,-0.051798909766837,0.0306945886367535
0.194477577791548,0.107902745468796,0.00773861398708342,0.0183706312350061
0.137930286811435,0.0937947048159928,0.0567352189876082,-0.0056690934414134
0.10742108706405,0.0759033168271734,0.0762535269640407,-0.0293788272134456
0.0997203204503573,0.095527270379251,0.0880989903303065,-0.0440360558536891
0.0590290772326371,0.0364805233097506,0.103680292889703,-0.0493921385995065
-0.0183054190000276,-0.101279082850915,0.107734107004456,-0.048465103011225
-0.0613652167799064,-0.163573014283185,0.0823807409659622,-0.0413157684135388
-0.0407292275256984,-0.133729177168562,0.0424170224712196,-0.0272203444420348
-0.0293161513234248,-0.136369011966856,0.0170272990033557,-0.0122181760129228
-0.0711695017520222,-0.303749715590935,0.0160053720902286,-0.00553901255914432
-0.0788581022772248,-0.510294417459112,0.0313054798703593,-0.00712447456865669
-0.00476631610188991,-0.446200302417548,0.0503532779119632,-0.00844606790692731
0.0391177894130073,-0.185175562997077,0.0505108732276858,-0.00401633184778134
-0.010772810543761,0.0279812114276089,0.0281963346986257,0.00520515287641917
-0.0750104556645148,0.215072598381143,0.020890704040998,0.0159307352646531
-0.0956960289805874,0.379643119685701,0.0312104789576566,0.0252560064320892
-0.0854939940803486,0.443986381181446,0.0140028930086258,0.0310681309804708
-0.0685685272517533,0.354307691969498,-0.037114275868093,0.0320083551954125
-0.0636474561123763,0.119190327436652,-0.0808571284921881,0.0277474159713053
-0.0404978167240887,-0.085496148566473,-0.100246442511636,0.0201731695474191
0.00825536426766829,-0.115491801186584,-0.103054245793459,0.0130945789367473
0.0186470037817016,-0.0451410750826684,-0.0837133792569496,0.00830750619014952
0.0165663659374983,-0.0294454359076624,-0.0337809590355243,0.00319876169426244
0.0519734329632284,-0.12442733746964,0.0365191840391868,-0.00610093698840557
0.0817437662928766,-0.26502159190635,0.0871816386001582,-0.0189580858691306
0.0841832688619955,-0.326896583336799,0.0929778788720656,-0.0295204626595923
0.0811437749835496,-0.265273455269461,0.0723176437557033,-0.0333006793578854
0.0853030689255956,-0.174079900418764,0.054349738706187,-0.0301534857255203
0.087051559024419,-0.122559901086861,0.0443007606440181,-0.0215750050404459
0.0603048478405263,-0.0580394824182001,0.0220137413166317,-0.00936163056131427
-0.00760599268342826,0.027719769136467,0.00653922825771589,0.0039649100819713
-0.105396298992796,0.0499084669787148,0.0240705694551796,0.0138067986237288
-0.158715055193945,-0.00320030192763161,0.0440908214290273,0.0156519172607333
-0.0942345079330608,-0.0780008388172649,0.0564168352420821,0.0103946796116563
-0.005566765817415,-0.111965394174281,0.0568270483189169,0.00393057268881311
-0.00605144787115489,-0.0548994468445887,0.0211858380341165,0.00153318343016251
-0.0445990494484626,0.049109171092244,-0.0236591221453446,0.00441258506449797
-0.0459593304297874,0.0691871026813645,-0.0362806478409317,0.0092442812854027
-0.00920492143193899,-0.00319201884283029,-0.0155930912681603,0.0106901934097546
0.0255073101487537,-0.071628127146007,0.020897117995769,0.00727050171494698
0.0170950586566267,-0.110937372975977,0.0541970713376105,0.00345430854950525
-0.0152207077164415,-0.160189749224219,0.0601080281689464,0.00361314460823801
-0.0313670362915058,-0.243596241657116,0.0308403468091391,0.00737832890277257
-0.0292069309793268,-0.242518860313037,0.00441394350254358,0.0120354157136758
-0.0340431350575046,-0.077493459236596,0.000202474587579507,0.0145427156596847
-0.0689605352901102,0.127217979467264,-0.0172443627162251,0.0133670033406952
-0.139331965809198,0.262692119986392,-0.0560550444734446,0.0109860776704349
-0.244777921124842,0.370969822321814,-0.0907183533617401,0.0110231426678091
-0.207998034397167,0.351368510129069,-0.0900675950379504,0.0140497132178304
0.0934103915212462,0.00462977818379318,-0.0568172000940236,0.017565803642662
0.317007137046771,-0.384372214906293,-0.0387742440738826,0.0176122663551935
0.240855029070336,-0.419175614923499,-0.0151840900481602,0.0114025414795977
0.107122376417552,-0.188837115506545,0.0404236114739246,0.000130674567828313
0.0603015125082978,0.0447872660155564,0.0739538120960289,-0.0117877233614822
0.0425718166110699,0.15033234722142,0.0663685602925953,-0.0204908937924506
0.0322061488281433,0.201388503911331,0.0452359424537834,-0.0256900317822648
0.0406040078905489,0.219412696158745,0.0319882099993783,-0.0291912693639132
0.0641843827940118,0.0447951965493678,0.0337165617360396,-0.030067901214425
0.0633033661570955,-0.192515434804539,0.0424952242718816,-0.0250878162749481
0.0256013256673069,-0.198761675997877,0.055454113761987,-0.0146048140812817
0.0146920843244283,-0.0166470720608436,0.0668720728684586,-0.00309616442926566
0.0440169933777916,0.131680521590965,0.0535196854436623,0.00634284495971558
0.0373096582841702,0.0903502023702344,0.0223847893731027,0.0155056291875906
-0.0431161128514495,-0.0529921594001649,0.00894794575422487,0.0283749737857178
-0.141596755987032,-0.0140029395492908,-0.00597040952393926,0.043477832708051
-0.186916618939498,0.0746186513533351,-0.0347783625724339,0.0497888899754193
-0.195208103027034,-0.069458211592426,-0.0347845671575915,0.0361259491301806
-0.187368215694869,-0.152046849946225,-0.0167559260249256,0.00751127569406284
-0.124596022834988,0.0662406469093223,-0.0242655468974846,-0.0171848889278718
-0.0432070886643119,0.239183114624107,-0.0417774283260377,-0.0268840496387814
-0.00719496564318395,0.0703745298794717,-0.0229440610776096,-0.0268504270972081
0.0346753714974626,-0.265943928269276,-0.00199017524666221,-0.026495753546673
0.115969929301895,-0.41682676375557,-0.0164033158943018,-0.026306449661912
0.145509805522464,-0.312027021500474,-0.00703282067833839,-0.0204317707739206
0.101488331986614,-0.131763617431539,0.0133135583981995,-0.00829058174767866
0.0666748601265701,0.0998373697285188,-0.0132891579911277,0.00519571164087185
0.0548024243846999,0.329949068875386,-0.0642954327079165,0.0141517326786402
0.0564923130876118,0.373575313215216,-0.10182857979654,0.0129314803962998
0.0734173619942532,0.281608454687809,-0.111983289583252,0.001684375652261
0.0649283397242931,0.223113321411942,-0.0958458224617317,-0.0121819485853496
0.00606203526782373,0.202016912418429,-0.0740086453288637,-0.0217768922157468
-0.0895144847175292,0.137847842945581,-0.0494213292288802,-0.025018749254396
-0.150598353796832,0.0613494014442638,-0.00624639538867988,-0.0211561129878265
-0.124164959215395,0.0365845627020537,0.018621216271888,-0.00682931230774937
-0.0800086921099527,0.0295709614364778,0.000450715186827017,0.0193749915713768
-0.0615458497456165,0.00396074818558836,-0.00925432036909341,0.04631535517234
-0.0274239865856528,-0.0276240354383181,0.0153657397749053,0.0550926762433516
-0.0166590937209103,-0.00957983642784713,0.0254861826970158,0.0396953978451522
-0.0834385801016514,0.0680082517552508,0.000496551841896883,0.0124859092786825
-0.132217507857396,0.115168393027915,-0.0146446055530279,-0.011174233359644
-0.0749642325142273,0.0750641626808334,-0.0059667264440109,-0.0250478840121156
0.00638418478133881,-0.0196850830155209,0.000751813546024552,-0.029737580700505
-0.0114690482799793,-0.0999238154087843,-0.00738441453098273,-0.0265952828879129
-0.0772035831280704,-0.145626622376737,-0.025525363080228,-0.0172065694645943
-0.0699830051400005,-0.210835749037118,-0.042266462943034,-0.00449327374222649
-0.0345295879349157,-0.332920960304106,-0.060012237948526,0.00788419021312882
-0.010354871899546,-0.453394986200241,-0.0635084752085282,0.0161154925639509
0.0456928498668751,-0.452334055247576,-0.0171731719477804,0.0170316498077629
0.0833052732735633,-0.349804605626608,0.0503983081717412,0.00979985418051719
0.0490290056038579,-0.252610625638334,0.0597406323418288,-0.00207313048558664
-0.0127907254641298,-0.15242483803073,0.009880584108534,-0.0119614598182873
-0.0427379207906028,-0.0264951848541471,-0.0204181767262988,-0.0156632090015275
-0.00311158652561863,0.214720072060273,-0.0312317252859714,-0.0137084027449814
0.056225394830847,0.594266134922925,-0.0812725706235437,-0.00740565360009308
0.0180412892146783,0.93734999198931,-0.141646149303112,0.0022655806072994
-0.116573756123526,0.963684271119481,-0.15073201168084,0.0127675447958428
-0.205531857744875,0.516660149666364,-0.0989915766990158,0.0219986894184475
-0.147885719750911,-0.0197648366707783,-0.00579487395477549,0.0280550238139474
-0.0211053673804763,-0.259724312181924,0.0740956492818178,0.0273430858901862
0.0407544019662307,-0.28149048806929,0.0849184937113605,0.0193067474883204
0.0400499692989424,-0.262243226038695,0.0572728767109032,0.00917324341998004
0.0469490369183131,-0.316997332707266,0.0484758931117381,0.00169531424075098
0.0793284444059357,-0.390602684913231,0.0597153015507516,-0.00320197012436342
0.119063895790633,-0.376700587078348,0.0756841907342851,-0.00707789446180368
0.132579298263608,-0.382886790300862,0.0969430259538308,-0.00901341644006094
0.100083456911376,-0.467736064205139,0.126874919497009,-0.00850077248840451
0.0771525852034869,-0.444750009484907,0.136401988578002,-0.00936652277972084
0.0742557170981398,-0.140610074872158,0.0761704726232058,-0.0140283076373944
-0.0284559224004013,0.271435738544665,-0.0399622867748138,-0.0182853684316373
-0.194767285736817,0.450454255998312,-0.121726941648751,-0.0168079354992849
-0.222174095076047,0.331274890740931,-0.113666250560915,-0.00885211935134756
-0.117593786612354,0.0886100002264458,-0.0408693361824954,0.00146081301578929
-0.0618508184241434,-0.0230844193100339,0.0452390805697202,0.00765810529528228
-0.0505194144315208,0.0473011891741532,0.0989793189089561,0.00633790417890342
0.0578207373066377,0.0665190609045213,0.126580808419758,0.000631021314154085
0.193216421029025,-0.023056829760058,0.149977694123233,-0.00381198112280347
0.181845713200355,-0.0404038922195965,0.132351691930761,-0.00420399513282669
0.0428947659604924,0.122213580061424,0.0420449470232569,-0.000719769514044675
-0.100885926421584,0.340877382463669,-0.0742683901696726,0.00517943758691421
-0.158182285698309,0.256462915556096,-0.116685675066986,0.0109875928227382
-0.0998980087870422,-0.115330148181595,-0.0591921628723006,0.0134633798146005
0.0331492958112355,-0.318827537170512,0.00880910996327934,0.0103095907542141
0.170031565783329,-0.27269336230395,0.0413828766534772,0.0015447355371519
0.238399557856408,-0.137717288452489,0.0583045234959992,-0.00993529868367293
0.217703229669671,0.173111163018039,0.0389026472798962,-0.0182168024419626
0.131887157266501,0.515667337767256,-0.0215030513546097,-0.018409509215521
0.00249115909897044,0.395763953776148,-0.0663663698910109,-0.0117498515817318
-0.0695884357937133,-0.0772353209486452,-0.0555931059805171,-0.00396071318008921
-0.00170927664857234,-0.328556141582974,-0.000840218225018577,-0.00021565005696144
0.0857677741220645,-0.236628879866144,0.0624526162183488,-0.00294167924622449
0.0871764638607245,0.00686609545239814,0.104631903895097,-0.0110432359966763
0.0611131662950343,0.184633460627502,0.121268802394744,-0.0195003206600819
0.0767520958439265,0.123301852958712,0.126146543892352,-0.0226280803968745
0.080117968635135,-0.0391676637385982,0.118355800833433,-0.0187127017716961
0.00314408656827619,-0.103207398585337,0.0817699424682222,-0.0102108237420143
-0.0514968732643535,-0.0798079928899824,0.0216373172062436,0.00052662807859109
-0.01134964488147,0.0413857845236661,-0.0287142942115435,0.0128833313256651
0.0351672933226718,0.167534983424802,-0.0387305792105788,0.024223154802741
-3.17911322010658e-05,0.138702466239095,-0.0336166913779185,0.0301166549221719
-0.148782979555996,0.0361297585045854,-0.0832455695241348,0.0298252313075668
-0.351284733018794,0.00396744532690657,-0.167620862868967,0.0247939852401096
-0.422069933856424,0.0252856403615831,-0.188278038241316,0.0149176686967347
-0.269695881921246,-0.0333206991226756,-0.136507834294528,0.00236946285309842
-0.057951661851889,-0.182620230239426,-0.0655888225115872,-0.0092051903775441
0.0673051810868778,-0.321559573655346,-0.00284508691079519,-0.0190886718978305
0.123027707273658,-0.46195858435841,0.0341889308637726,-0.0272180233931771
0.160602753169964,-0.515655821341092,0.0404378519666721,-0.0312294506930537
0.179602236023668,-0.261529370996099,0.0238015613880708,-0.0271385800807602
0.0950537610419004,0.196279655553312,-0.0121737214717444,-0.0146734924084379
-0.0796950039823392,0.399713645981983,-0.0601747728111231,0.000876480597783402
-0.14054142602137,0.186865939912184,-0.0838747632615881,0.0142555593563588
-0.0235747390193465,-0.0375447459057488,-0.0599044712081868,0.0214225889002309
0.110143023937517,0.0540711053391057,-0.0231709944272238,0.0202774979500235
0.126180981718227,0.293829241503007,-0.0138248940017675,0.0147154771218668
0.00856768490133822,0.397448052200404,-0.0164974051093559,0.0103335448556187
-0.11529692681827,0.286576976369901,0.000187326923888204,0.00722378592163186
-0.163426269861689,0.0700506427377675,0.0103004173462249,0.00250534593450068
-0.18031794358631,-0.0386278279331614,-0.0327296977718755,-0.00299577537526114
-0.170681988631609,-0.0155737032677457,-0.0914696083201653,-0.00457516952259145
-0.134877963446622,-0.0374007279932302,-0.0876736113919403,-0.00158733122452149
-0.111893808405484,-0.0946048439171408,-0.0453888019237748,0.000310294433073183
-0.132541171382321,-0.0763935211250782,-0.0141673905585246,-0.00205714667146065
-0.158184950797683,-0.0592269199907987,0.0236224514050943,-0.00715436933402887
-0.109582662763781,-0.147738847867976,0.0537531737509425,-0.0132277309019501
0.0254845667110448,-0.246032008566623,0.052395969475402,-0.0174931498469772
0.127043669518679,-0.206133528364258,0.0448413630580486,-0.0167431894326493
0.0950293392967376,-0.0247134038694907,0.0198553594158951,-0.0113328579650959
0.0602587090127171,0.185703744941105,-0.0543084475984725,-0.00310862922410704
0.109974081894806,0.295402493756773,-0.110155482584254,0.00692253596078585
0.113632540031187,0.280196342364281,-0.0775143114987296,0.0153472449539831
0.0369660174065244,0.199549325452458,-0.0257279319733206,0.0181195065802885
-0.00865668780369799,0.0757417162357142,-0.0308022047524615,0.0157086788801397
0.0348665761780661,-0.0230106781657643,-0.050862431487727,0.0107909434505558
0.129909812263106,0.00669446757152131,-0.0178917697049608,0.004374345484507
0.180347751281368,0.0639065148360164,0.0413457291938561,-0.00326555017567056
0.134702391733914,0.0101835651945391,0.0593546990574086,-0.0104813725128882
0.0497218354972939,-0.0580726363253377,0.0335501633535717,-0.0140290220775827
-0.0283832975469793,0.0261233275171054,0.00071775217285143,-0.0113969422212709
-0.102721957935169,0.281615003786215,-0.0142184562308879,-0.00411679976445969
-0.191091855965255,0.398793213106435,-0.0196099793765766,0.00188431032234246
-0.263237751913191,0.149246529289264,-0.0154624220889419,0.000736180524091616
-0.212770380655552,-0.0545418776407618,0.0370202917046587,-0.00746149156186957
-0.0632073457440336,0.0615561865212243,0.112276704709274,-0.0163928789906242
0.076502472993568,0.164877268091457,0.133816859128093,-0.0189560681032803
0.195238670001314,-0.0152716462291695,0.109716831612733,-0.0119651179127492
0.266016220702276,-0.332004863097485,0.0761236420922883,0.00124352409548582
0.226114245086891,-0.331651285572578,0.0418818370485608,0.0127845839740796
0.135455263638979,-0.0471947339909516,0.0381850402716762,0.0161566585533
0.10468668575394,0.0886535517410041,0.0356425553806577,0.0116109549195384
0.0623464701873373,0.127304334467889,-0.0209314626365841,0.00552494535189063
-0.0641028666042099,0.143606881166182,-0.0932028667423893,0.00274334035942971
-0.077583405043846,0.056974125878122,-0.126435914931038,0.00557940329337203
0.104676224638134,0.0594508271768012,-0.107868078674088,0.0146336329635661
0.235453080657194,0.236370003368258,-0.0799744817413415,0.0231564126761823
0.206330246930158,0.401089041952518,-0.0842401663578624,0.0235458433776307
0.171600865019476,0.409820448710658,-0.0802605588271437,0.017533027219333
0.190460485649442,0.286815485799074,-0.0160696005120639,0.0101923324593869
0.133435758298221,0.0481024984200845,0.104144144785466,0.00222916749741134
-0.0553220474597082,-0.28345675608935,0.206898840202193,-0.00846986469766938
-0.222730722710284,-0.380645092055314,0.1978725169134,-0.0212161023979046
-0.249420527271788,-0.168933210181303,0.100441594600069,-0.0291156432442167
-0.206792772704115,-0.0338784992851864,0.0195520944190765,-0.0256606769033697
-0.153184645377134,0.00262055138153983,0.00319754243701252,-0.0140929996267767
-0.0502382732169177,0.0194623992573656,0.0340307600965885,-0.00431227919852797
0.0500185453921185,-0.170841713724234,0.0482512966499015,-0.000444580209476807
0.0587327920655749,-0.393609714258508,0.000868851605969237,0.00247593812677184
0.0610407138784476,-0.36158673529303,-0.0551119128905103,0.00808518759317899
0.131781703373652,-0.18510437650522,-0.0468781059290644,0.014397072869022
0.191101798096757,-0.0584879404622329,-0.0055612077766349,0.019544430352278
0.209283700041876,0.0339215477970464,-0.0122541991883646,0.0234388508444255
0.212076572400973,0.209373470768021,-0.0967894679428744,0.0257483416440586
0.177312731992438,0.349440585409207,-0.175979093385916,0.0256447505569462
0.109341298745654,0.263036901339498,-0.139941431011379,0.0225026426294006
0.0462313648997857,0.174563727504684,-0.0573993504215308,0.016397170607544
0.0109794571734414,0.279721948029926,-0.00995839273512267,0.00819665394540428
-0.0297055578054401,0.252253115220817,0.048452346769727,-0.00190428689428879
-0.114785004075828,-0.00125742763667031,0.117958051820977,-0.0139120745846122
-0.193529219563178,-0.105904352072749,0.126699542527588,-0.0245032644273831
-0.20892244725025,0.0952651093882918,0.0332113655070318,-0.0285483256440349
-0.180189978465643,0.376280503858527,-0.0871996461548719,-0.0241924515456061
-0.175001400563693,0.330515355649201,-0.126043933665822,-0.0136889819679727
-0.195205863706058,-0.0502096096830105,-0.0862759436290298,-0.0025259648454231
-0.144173894020852,-0.289344053332629,-0.0360432677286461,0.00268751869808677
0.00700107704704667,-0.226612326496452,-0.00565697666982409,0.00037625405031981
0.0949110141706132,-0.0942949311400795,0.00983411215566313,-0.00358456050821727
0.0201620738146202,-0.107007241320284,0.0154135790256353,-0.00282084635263052
-0.0743391691220226,-0.270619807116736,0.0196891484796107,0.00355446516359464
-0.0979522331039129,-0.374607145262667,0.0301863610366385,0.0125863982886989
-0.085531004349899,-0.311400239920196,0.0348433103303508,0.0202895837729449
-0.0414919140092394,-0.134593707523569,0.021694979336227,0.0233468194524422
0.0449779687350541,0.0484463444188755,0.00279298943740373,0.0205965545013537
0.122711273069978,0.0847947885257395,0.00047676918492634,0.0124853728498816
0.116546615003262,0.0161467912983283,-0.00594588754085223,-0.000313017861670175
0.0612357821944054,0.0754894225530498,-0.0501608788831162,-0.0141396733461126
0.0556148159342134,0.236883711369325,-0.0757731508725025,-0.0224304105640574
0.0859179684995839,0.205016372962682,-0.0386774403691591,-0.0236583938208662
0.0627184324764221,0.0248221109484991,-0.00892494748372565,-0.0216309673073997
-0.0353456566953716,-0.0498476141982972,-0.0381507900692138,-0.0187137952653715
-0.150794265164857,0.00955871456865966,-0.0914284987131095,-0.0151981005436453
-0.185792161634643,0.0627399520257861,-0.0923384324363285,-0.0112150558046619
-0.14608927825354,0.0395695642542866,-0.0209519927209438,-0.00682166271630845
-0.124192733703728,0.0495794328691676,0.01918325817637,-0.00100060992923397
-0.115625767542319,0.035638663852566,-0.00586173983173173,0.00768385968653182
-0.0985918913975311,-0.0676143797367502,-0.0140765064282051,0.0159291279462365
-0.0642550904222433,-0.0924691064239044,0.00189218788492414,0.0173067315152392
-0.0130996734174687,0.00548054208007637,0.00719640978158928,0.0116901915045114
0.00938181531800362,0.0902719177865563,-0.00337496606778989,0.00462997201859381
0.0161870431900687,0.0983091730331839,-0.0384198226521633,-0.000550724462608289
0.0392551847293884,0.0859175471437987,-0.0658427117990773,-0.00452700742727638
0.0444545410487106,0.118034556319889,-0.0450081415305937,-0.00848101900067025
0.00756589953557835,0.182402671732822,-0.00976152730269242,-0.0115175832267882
-0.0284139122001033,0.155576418138903,0.00630968557327732,-0.0116554072395197
-0.0253416867921699,-0.06933780641864,0.01369129337043,-0.00807246330052616
0.0406175566568481,-0.311581432048659,0.0179609623474484,-0.0022708735858552
0.161049563706409,-0.380300246886965,0.0141124662552997,0.0039045117892261
0.233706276762592,-0.409082572663966,0.0337964694480284,0.00963334820752151
0.178481577683951,-0.436307522802308,0.0916370646269776,0.0124695182718922
0.0590412079479914,-0.317152161663897,0.130100462896276,0.00978027447253058
0.00248614593143009,-0.0206259906556052,0.0970094522589475,0.00395093023088615
0.00749544119484569,0.424836406060051,-0.0211163103502613,0.00133702519631243
0.0168831911286971,0.788221453466512,-0.150713989081921,0.00496392833965721
0.056740808537864,0.712223685892869,-0.185023239863444,0.0110957073955116
0.0804374840503017,0.26810035054261,-0.132626166845216,0.0130651821877127
0.0485103176773024,-0.154087235518021,-0.048677850867763,0.00589996235289612
0.0542295233579297,-0.343707012475014,0.0278945382120885,-0.00966964174884078
0.104528672968689,-0.34530169180065,0.0474481082571679,-0.0248700160697568
0.105583058348851,-0.248736760770997,0.0187879820965449,-0.0289179137883274
-0.00205557310495205,0.0168253584067158,0.00209870779095332,-0.0195243583601012
-0.181444243721255,0.366841386654391,0.0145966410691236,-0.00574622739913123
-0.291669699983351,0.356620357956969,0.0416269713340616,0.000681592481874174
-0.225762623659056,0.0452399208989595,0.0733471568369223,-0.0034415775935359
-0.0566108489721251,-0.0385349201187742,0.106510958598841,-0.01174902120142
0.0481204822576746,0.0368305740531178,0.141887959499393,-0.0160254447246682
0.114610963314217,-0.127396486066186,0.138661516082743,-0.0122044626264977
0.271452241152715,-0.401990991009919,0.0640373709068892,-0.000108840156736508
0.431418340556049,-0.323828680130796,-0.00937703687879357,0.0175326159481767
0.423550495680798,0.0557884245084521,-0.0212727860195069,0.0337841857736905
0.225529824507627,0.257584543460136,-0.0273681834892819,0.0405469768919231
-0.0909038094119641,0.14985155424587,-0.0972626608927031,0.0356255804917895
-0.339382645593172,0.0376081324065883,-0.190037578587848,0.0253461854483482
-0.309781001544205,0.102070583954377,-0.176610498801223,0.0165156493867282
-0.16826947593953,0.0951861518818503,-0.0722172141465881,0.00757195324069437
-0.181959566269381,-0.106761218202405,-0.0414241126259845,-0.0044013057833949
-0.213446132977867,-0.272915266795362,-0.0596784654482545,-0.0137548130086582
-0.130890850632771,-0.264126738709217,0.013426379028173,-0.0153059744477786
-0.0773416332172901,-0.155132656080736,0.114925675899136,-0.0131389835484201
-0.104206321033316,-0.0371065272443396,0.127654309438799,-0.0114340501247683
-0.122360018864535,0.130728111689797,0.0704538254162591,-0.00987448326509461
-0.108516641443586,0.340155308392368,0.013109516809159,-0.00929745576245311
-0.0966412762489501,0.423835760919565,-0.00654128408808998,-0.0117917986973246
-0.0485768372626845,0.325538624769816,-0.000600809577573492,-0.0161235528098018
0.051724627444674,0.148581020768797,-0.0179322737277499,-0.0163565850058916
0.100542042999871,-0.0118362106650007,-0.0780081997497008,-0.00740365472655443
0.0687503592306946,-0.139762228626489,-0.125704899145036,0.00749288299517568
0.0120820320934371,-0.266372435929475,-0.12324644641886,0.0189833842778323
-0.0506346087507656,-0.381937905567818,-0.0870392870260329,0.0211720307180376
-0.120035446112395,-0.427442888571237,-0.033147898993145,0.0144337746481056
-0.170862066936123,-0.372264789321206,0.0281258147042295,0.0021529431428961
-0.199490268808204,-0.303360127746662,0.0700616980085584,-0.00989724775513898
-0.203051117984025,-0.305720539031933,0.0766166822083292,-0.0154849833757223
-0.106150560752052,-0.363283067645581,0.0805174094935796,-0.0132364962412736
0.0402171712222396,-0.307903981274652,0.0737627502293136,-0.0077737637693595
0.0721380795232872,0.0521126245084095,0.0176951317111936,-0.00312566892636916
0.0410606340251885,0.572657172205833,-0.0345595573713302,0.00154602398593777
0.124244759120392,0.835663966496493,-0.0222782962761724,0.00715692267840974
0.303737153349613,0.573918688186716,0.0210465920564522,0.0117260721216453
0.406370898391038,0.109461173176112,0.0455749051927096,0.011704635668526
0.366766467542169,-0.102794419135729,0.0321105504734518,0.00528283079054615
0.26835783732812,-0.116076532584099,-0.00492219889478218,-0.00346453317494032
0.163750486160404,-0.13401889579989,-0.0359611180211398,-0.00798192292410633
0.0144284786264063,-0.200420285213991,-0.114818442991856,-0.00509527285245879
-0.2085083259601,-0.179904550043971,-0.213260596360967,0.00375069181317977
-0.400935042986611,-0.0621673794982725,-0.152713522317835,0.011094626294558
-0.457730552303142,-0.0466219610702114,0.00395856506731246,0.00806564646973523
-0.377394619109961,-0.0594838249830671,0.0223459382476103,-0.00319767483111914
-0.176194471830031,0.0205090681252565,-0.0652181567695244,-0.0103685854810995
0.00845420790855389,0.035695273622586,-0.0608745573768137,-0.00818557069149435
0.0384848680265565,0.0109690890086603,0.0333102873030653,-0.00467894871401808
0.0137750671616692,0.0655442838465828,0.0686252110239111,-0.0071003679231742
0.0694890889248972,0.0709147667327673,0.0308555401680707,-0.0111741406458252
0.145969792093373,0.0201332509298071,0.00533723375613388,-0.00914401722879027
0.15885866519491,-0.00576143060810713,0.0244296334104325,-0.00214311970373759
0.15161416982293,-0.0595439906915021,0.0671348225428772,0.00143693180803427
0.176768480475319,-0.219605473113765,0.107719282084278,-0.00318734482143904
0.221379071612937,-0.405766407069021,0.142102386990294,-0.0124010253585583
0.25107604273927,-0.407080893950983,0.166590874123794,-0.0197149938994844
0.262086171729127,-0.257378595679777,0.162841423707122,-0.0222695425522478
0.233644819405375,0.0675772254006818,0.0871287905106438,-0.0182193919042486
0.0975763655763418,0.545682215339422,-0.052967287008191,-0.00486601885173725
-0.133331328558235,0.7118758513837,-0.13220855915549,0.0134174794944968
-0.300219465060344,0.416948895043594,-0.0780067532252361,0.0255241077077448
-0.259245606672333,0.0579767716713473,0.0295115945405975,0.0260111014795453
-0.0546451961170419,-0.0699131225365666,0.105127007667496,0.0186508978670449
0.124108191502933,-0.0665048249685422,0.125247064242573,0.0102354129975379
0.165493381854527,-0.0123278572810713,0.0541036721511512,0.00615375090402608
0.124965313989168,0.128986754835198,-0.0895597036595217,0.00943452354102648
0.059180211349023,0.140316176099388,-0.165778746332547,0.0185283867617672
-0.0351647345637994,-0.0458386460315582,-0.101258548179442,0.023613775310203
-0.161244199929734,-0.078568023555525,-0.0177701204528091,0.0158960942983833
-0.327421120962896,0.113643196665568,-0.0602311245012015,0.00181340223978193
-0.443477957385583,0.183749494818911,-0.150858441182208,-0.00677646231515942
-0.32673317957778,0.0640464144654355,-0.122492249310576,-0.00951960182626739
-0.0784504198339252,-0.0307475147197328,-0.0250887987191525,-0.0119582962604918
0.0330251880095841,-0.068779834956554,0.0228829997265557,-0.0155612786460194
0.0406958435554747,-0.0856297528452954,0.0289879291665287,-0.0192675524730863
0.0638232709284122,-0.0467905576317125,0.0407078962645325,-0.0213618168628205
0.0737178979386109,-0.00575951729818697,0.0660796865118284,-0.020087275329129
0.0724131394935268,-0.0309470194311721,0.0741444984289614,-0.014954645210297
0.0778376839446676,-0.0718690550517014,0.058890065919994,-0.00708962083673609
0.046707970202377,-0.0506776376343918,0.033185595681558,4.48298468149096e-05
-0.0126877778207619,0.0582899417923442,-0.003707873534756,0.00426220982289615
-0.0537096125191513,0.242503503181115,-0.0257493915149812,0.00756979327994881
-0.0720095996167281,0.339024050774697,-0.00031578506021606,0.00991701118362935
-0.0527512713787337,0.221348997427027,0.0541538265411535,0.0089940622311334
0.018148433832855,0.0474230503565351,0.0791699792194904,0.00794866722066703
0.0983592113745466,-0.0106895149403961,0.0426574189713129,0.0130084728715918
0.141102547557259,-0.0339729729095935,-0.0202726484624195,0.0233428497300918
0.157219068028326,-0.116088904002861,-0.0466477913324258,0.0297054038313499
0.158686749932022,-0.147469583043569,-0.00971615541444208,0.0245456769494985
0.08886147783805,-0.172006238309275,0.0407219837101171,0.0071628490107504
-0.0386064281462946,-0.320472089456151,0.0244540401593752,-0.0167380889827981
-0.10901250030317,-0.473801424238103,-0.0157674270829014,-0.034378625022516
-0.120477789061117,-0.453373596341266,0.00591018614257292,-0.0370730017839106
-0.130179698550913,-0.15666464049739,0.0185738951856261,-0.0303470035179555
-0.0927881224694552,0.302901532561557,-0.031271743118425,-0.0210651737602956
0.0410811363108637,0.491350612394957,-0.0458538545036616,-0.00809817230989306
0.17747155046669,0.301818034268131,-0.0108340157202705,0.00818532477115928
0.158479870200034,0.23808809740504,-0.0295594722551924,0.0245427617551509
0.0137971408228276,0.411588023518219,-0.0606579922492285,0.0385548154464243
-0.105711812119241,0.382096520459529,-0.043619308530783,0.0428722717308303
-0.145373450080948,0.0544791477587585,-0.0172373146426529,0.0303939803608025
-0.0904955050602869,-0.279419728956982,0.0787005251372283,0.005247616649183
0.010920668464006,-0.422688020294438,0.215299475845993,-0.0227391866315921
0.0776909165708968,-0.39229468100995,0.243936391025532,-0.0433094101547174
0.150057705715648,-0.256249372087874,0.180689553431858,-0.0477962756133174
0.202102477202871,-0.0564725833903725,0.104923827617874,-0.0358230202608785
0.132697522006547,0.103063213961772,0.0378453912860776,-0.013883356696845
0.0658647248708846,-0.0654900588781207,-0.0443038679751449,0.00844727707919461
0.136960085370415,-0.427602864964283,-0.128756923642222,0.0230064855977482
0.1583012511316,-0.500895813714316,-0.104391205489439,0.0271413046551383
0.0218601908027898,-0.376155559378843,0.0170290307303208,0.0201404260088874
-0.0868643577666842,-0.10334649631624,0.0654157388700339,0.00517309387328066
-0.116892755546274,0.365278132854117,-0.0103067883755561,-0.00815293876377038
-0.0765663340555195,0.516325439059138,-0.0811903211774562,-0.01192596045937
0.0161519066203717,0.238547579306339,-0.0769304754459151,-0.00587264106120588
0.0241211204674924,0.099382801976478,-0.0627385939891862,0.00734714681452783
-0.0218573624360409,0.225239321719654,-0.0815507543143994,0.0251202790749179
-0.0256629575185523,0.321024491018371,-0.0970833716314848,0.0393980956374006
-0.030125249701655,0.220734349914663,-0.0641082054528638,0.0373587245494127
-0.0306990403179817,0.00137159073417276,0.0132555168065323,0.0146178089137875
0.0505579112549104,-0.12293069480047,0.0913313619454753,-0.0162436959688344
0.210227257264819,-0.183022743617258,0.135146052677125,-0.0346217611447935
0.358165368584282,-0.254733078219097,0.137214015624947,-0.0302251109257968
0.398897291257729,-0.188996293739355,0.098328874506084,-0.0107283006701688
0.31676150497032,-0.0282632731284871,0.0534087006586977,0.00901340468077334
0.187808234908131,-0.0115442672042848,0.048344342400848,0.0190109217305836
0.0848951382227197,-0.115692542234209,0.0755151561971278,0.018265828834981
0.000665212498850876,-0.14780580213871,0.0981302316978475,0.011988538771525
-0.114888668793701,-0.0933913257349522,0.0834439690534,0.00469229392963193
-0.315276476002109,-0.0543990253122222,0.000863568606991966,-0.000485381699550256
-0.496107168864744,-0.070560939411555,-0.124652816586741,-0.00163059666974254
-0.444455809247367,-0.0870952222480189,-0.190791538760734,-0.00189807955659658
-0.265604453573319,-0.0686666222853771,-0.155466764078132,-0.00586248866767124
-0.164077297516222,-0.0689552404117927,-0.0782304956908155,-0.0124315376429226
-0.108296560838761,0.0307755108749303,-0.0271028186203553,-0.0151210666756894
-0.0751440339307113,0.364796268672171,-0.0381683653339498,-0.00880405490779984
-0.0361032802473436,0.628146005729416,-0.0870640450637376,0.00556695040570323
0.095122114288953,0.393537966652567,-0.120129291948702,0.0229115959834973
0.255669999959494,-0.164436460236498,-0.0971050224337552,0.0350932963230657
0.28449304623261,-0.550770816371382,-0.0196067566577536,0.033253476447516
0.179571403051393,-0.723774968688399,0.0655249339473485,0.0165530507802502
0.115095022043223,-0.755546881934689,0.111885972916738,-0.00532234196489496
0.16080318122029,-0.414367879683506,0.0984533525198302,-0.0206853036360721
0.180517582405625,0.354490504490666,0.0420930197752531,-0.0249943667643127
0.0770022882554082,1.08542098887498,-0.0422685502937441,-0.021957611837014
-0.0757434741114432,1.10559603295818,-0.111267366789824,-0.016038087818299
-0.199136262714495,0.396039796495294,-0.0804903915573593,-0.00903300991499226
-0.243714748605327,-0.221709018767632,0.00875211534939356,-0.00408246064638
-0.127567860628501,-0.305989985459168,0.0520620401880745,-0.00378484358013102
0.0166785825964731,-0.174122657073237,0.0656246458805973,-0.00598358078582865
-0.00674155266511289,-0.125911457867373,0.0868216909188982,-0.00575145145409353
-0.125431060040257,-0.21345541695674,0.0922324538857041,-0.00151842791480018
-0.245688541402384,-0.338100475871812,0.0479241110557354,0.00101502544676936
-0.324828218096018,-0.273626479488472,-0.0105502858498285,-0.00196873256240428
-0.316902163110049,-0.0414096594181229,-0.0371850014562697,-0.00637199219466061
-0.210290922363318,-0.0317136489446854,-0.0720335319391333,-0.0073759166786363
-0.06916704518307,-0.286456840415597,-0.0986189514533425,-0.00279122501837017
-0.057181853105566,-0.53721995964094,-0.0393939993944593,0.00346880760916664
-0.141109623393877,-0.71919503972011,0.0687716461705774,0.00108093841636912
-0.0488860855191247,-0.61557509562229,0.101993102220165,-0.0125654245839449
0.174901832663512,-0.110599437299888,0.0409210004813106,-0.0236750962527344
0.180097341252864,0.478961252497534,-0.0237785548908918,-0.0181861481111712
0.00648898397778407,0.820101573609019,-0.0331644563997669,0.000473885515791757
-0.1078599092044,0.733770913773777,-0.0260780759324871,0.0189105103631422
-0.114551691454039,0.338773447731767,-0.0597547205034362,0.0295675251418152
0.000579737466504304,-0.0104342201013145,-0.07525642430656,0.0323555096688707
0.135173917031474,-0.0483477385669539,-0.0318469803099535,0.0261438224481988
0.186535137058792,0.0150529051899294,0.025090437934546,0.00960864966512969
0.185597702603628,-0.132830715647935,0.0624660210445729,-0.0111296922323557
0.129575386678007,-0.26729044941343,0.0693255155567066,-0.0258647495454866
-0.00809609450592974,-0.20556866859875,0.0456500571219166,-0.0289570919750805
-0.204556737742732,-0.057311880238612,-0.0268124639562944,-0.021986465525936
-0.356096486182446,0.10846373293545,-0.116656038612795,-0.00927393768071217
-0.352646525248298,0.12021877561125,-0.150114516446177,0.00442800561502926
-0.233478503118796,-0.0183240294580026,-0.114589763180504,0.0118404348013725
-0.129111232969662,-0.0956966980937438,-0.0340337928214734,0.00844298884791155
-0.0699773549072749,-0.170496019140731,0.0523930004303186,-0.00146678754640016
0.0316328888496205,-0.222453358859606,0.0904131182428421,-0.00881745305633675
0.16127372765837,-0.142876954874589,0.0780280502344003,-0.00678556587402488
0.198772187324699,-0.103600269001699,0.0703485996859623,0.00287708052243144
0.149225135507476,-0.243573344633153,0.0812926464694743,0.00972644352332986
0.0847371035882372,-0.395307096491943,0.0350337247261103,0.00740975119221734
0.019755023137785,-0.191062184068513,-0.0741328545910392,0.00195371336786757
-0.00979184621890418,0.215308967081212,-0.110057109143987,0.00119512779551455
0.024004647391286,0.308034283333802,-0.0421782294016052,0.00415224374072667
0.052410544772595,0.15586897741767,0.0335779565393613,0.00550329559037888
0.0155984996455773,-0.00413693130128254,0.0814967862419718,0.00292438273249705
-0.0310688232629462,-0.138128197602323,0.115426237671362,-0.00285500355601918
-0.00821341022389058,-0.0659053916495781,0.0971505176545771,-0.00863466564945286
-0.005523407767085,0.242945013632919,-0.00319279054812979,-0.00786590847948544
-0.160148742928939,0.393766926064759,-0.0876785067307333,0.00371774266889632
-0.325248242072005,0.18698948275605,-0.0974683809085285,0.0211360061545207
-0.244684409038692,-0.165958309014453,-0.0835108882903409,0.0344791826817843
-0.0167550324303508,-0.341386119100528,-0.0855315332536948,0.037982134180883
0.112213600018573,-0.143914503260349,-0.0872944587918528,0.031243332110416
0.159993359285828,0.138792635707997,-0.0406648587203872,0.0168153583555012
0.18788974798421,0.161929802502376,0.0103821909746795,0.000169783496899396
0.192918461451759,0.0689383043069743,0.0179893758025353,-0.0124501657437772
0.17344111626987,0.122384062514723,0.0241484188805429,-0.019507629383577
0.0954669888334702,0.145185238296568,0.035703682864842,-0.0235202802549836
-0.0337628902217796,-0.0978590229180589,0.0242312051773583,-0.0251940634304945
-0.126795294111739,-0.238516419740908,-0.0068594537643819,-0.0240118190384458
-0.0998658782166555,-0.00226742117794482,-0.0263790365940148,-0.0200494645142639
-0.0383319591796901,0.221923083021769,-0.0335783105377436,-0.0131574754308002
-0.046215393184177,0.211709797520303,-0.028332156858062,-0.0050838954610117
-0.0654149710976334,0.18607060627334,0.0122900357949751,0.000321161582804954
-0.0566150090177848,0.202618628608805,0.0557877443922364,0.00101965670423827
-0.0785484959037932,0.146734461126555,0.0713097142209759,-0.00227727257304213
-0.13530275924799,-0.0497760366587883,0.0943590787894459,-0.00743303347961052
-0.102897101923833,-0.294404349539049,0.129183990195913,-0.0106112961968115
0.0527088941730361,-0.398045582580514,0.161468211194455,-0.00863392404941594
0.167856223299444,-0.309886372049808,0.205049446050628,-0.00502757445235198
0.137894680367995,-0.00432060784963872,0.17922685286691,-0.0051029642098138
0.0104933582107095,0.480757584378988,0.00997512472938977,-0.00311488669843467
-0.126473434494908,0.658185091517236,-0.186680706392762,0.00934962488006667
-0.183774512230305,0.127094131549664,-0.222109646289049,0.0258575153642702
-0.088195930010574,-0.516986579316049,-0.0978475083847084,0.0311926323929846
0.0592792966990188,-0.756557098885855,0.012299796911712,0.0202702788204631
0.0620459744967128,-0.786255255781494,0.0432772365220752,0.00181261431154561
-0.0414043095095075,-0.413199052979256,0.0029158668137008,-0.0127188061378386
-0.10619995198827,0.361778978666604,-0.0931720888901647,-0.0166904044014093
-0.113680858397716,0.724112431823471,-0.155927450042398,-0.00912278053619319
-0.0778575730006068,0.507346064401189,-0.142313828451529,0.00526993156826445
-0.0304142774911252,0.4491991848231,-0.0775259680270609,0.0162737318146711
-0.0113038816273218,0.596732757520622,0.0084987037201873,0.015437316355558
-0.0332339339761093,0.470171343180306,0.058197806882565,0.00567527092651825
-0.102700822897723,0.219495388968254,0.0433365100271979,-0.00369389325054156
-0.0939311214780427,0.0917873068083354,0.00439530126576501,-0.0078576887148192
0.0849067957340598,-0.0487560120163908,-0.0198711666267129,-0.00714069009648736
0.264561818805318,-0.221924499925234,-0.0169479185416161,-0.00577227048004658
0.288692853299007,-0.254787954084465,0.00976839900055104,-0.00893819811528973
0.172527653415082,-0.145211355529452,0.026179058127714,-0.0168546407004656
-0.00494632999482869,-0.0520732948925075,0.00507076651305065,-0.0252502393486074
-0.128302528693362,-0.0430908299144763,-0.0374953126908245,-0.0284222658468157
-0.122048778654099,-0.0268664142824038,-0.0629535820410685,-0.0222443137528517
-0.0309295598258368,0.0499565048444751,-0.0195193528855199,-0.0088272738608078
0.0433835635363242,0.0713860620977441,0.079805461849473,0.0029677843172606
0.0593920727229312,-0.018073785495025,0.124120118717451,0.0064118787511443
0.0565770696199728,-0.0946656954719874,0.0667667434351237,0.00495250891635336
0.0834522862683657,-0.0972424137515725,0.00632681385717279,0.00566066942492458
0.117144247729706,-0.110367042408328,0.011697328154613,0.00856226234934678
0.0566383538389356,-0.149549113514392,0.0278049870378492,0.0100256127639863
-0.0837231823876896,-0.143179304166426,-0.000307511704222552,0.0100156921591681
-0.125223815131863,-0.137381790067574,-0.037766790553663,0.00964146255180371
-0.0590991507952406,-0.0885171126007133,-0.0354287402288836,0.00891921080672273
-0.0404617080341574,0.242427660721689,-0.0454235608758921,0.00980852014625542
-0.0452666949430026,0.676440177961659,-0.10761453622141,0.0173852602131104
0.0173641641166603,0.644824097467852,-0.139717596137048,0.0317857251664098
0.0863143635984457,0.13273325614708,-0.12088082655334,0.040418794867997
0.0766300693383161,-0.183572283769712,-0.127364512368248,0.032126383827247
0.00479798865574546,-0.0882918974890779,-0.13919126306555,0.0139152210966343
-0.10165348519979,0.043945777943613,-0.0888255533754844,-0.00186503853890538
-0.176760488845847,0.0626732542386764,-0.0112760384667004,-0.014565992532677
-0.113983437752247,-0.0113784623364019,0.0104355850457206,-0.0266417188489476
0.0108588902957401,-0.0327615898258181,-0.00712629902090198,-0.0338869930574723
0.0843692690221103,0.0951700718171207,0.00841018900498679,-0.0331698124258853
0.134498913886589,0.210181772459759,0.03828020641946,-0.026121090154641
0.160414896613368,0.190228732056596,0.0510357922191567,-0.0155419028916335
0.136755767819346,0.0827106513557326,0.0697978083330872,-0.00599102176028199
0.0765353600381363,-0.0115263666382511,0.101436704218141,-0.0022280837716399
0.0157670965768231,-0.0344142756536923,0.140460178183636,-0.00444381006728796
-0.0058684006087923,-0.0402523153881075,0.184386799912365,-0.00932238479758335
0.0194967777231771,-0.137609490584368,0.195927599476129,-0.0142397214890334
0.0776815371977854,-0.193908779365003,0.126559346790647,-0.0166200633716656
0.0804051619707169,-0.19128556890775,-0.00174627540591576,-0.0142156880595514
-0.0138828529657019,-0.436781360056398,-0.11146882144631,-0.00686086959395301
-0.0775505283194093,-0.57071871633579,-0.146316159080371,0.00533006871827453
-0.052419207222288,-0.197528834414935,-0.0970118337090246,0.0211911901177037
-0.0800768995172126,0.0803353333548252,-0.0353204102888229,0.035252315260244
-0.215196204275544,0.0782302660402683,-0.0442514950401815,0.0408225933594837
-0.282027286425294,0.180249732184279,-0.0706885642429403,0.0375879811339621
-0.188280743787639,0.178781668232548,-0.0223243420686232,0.0295550086815754
-0.0716347500057815,-0.0634796556898448,0.0593722276300862,0.018605305875663
-0.0236389867592918,-0.121588154382963,0.079086338424772,0.00588852488266778
0.034824979810203,0.215834342976975,0.0245661939065861,-0.00742525707775216
0.0921433282826907,0.598755737873626,-0.0499441558554684,-0.0194418255277964
0.0658301207337515,0.608122074543536,-0.0807304182997022,-0.0259762816777027
0.0631235844116104,0.286806116940534,-0.0612830088722597,-0.0247433616445328
0.131571970693469,0.00824341566763598,-0.0572244376528124,-0.0180250609082507
0.160713886902675,-0.126245915119411,-0.0716481750230492,-0.00836590694990264
0.222599159686875,-0.227806314195237,-0.0385074174521069,0.00151791378456981
0.335446645642116,-0.232406165145754,0.0358380457652377,0.00686788523234039
0.277155561554906,-0.156663960033031,0.0936598361244545,0.0057331286318376
0.0654646954619024,-0.13070418346676,0.0970775460343769,0.000630410874379516
-0.078341647780283,-0.189571304587844,0.0467117627735161,-0.00446302811901217
-0.152544639385889,-0.282171480732713,0.00281013115269889,-0.00703027247963769
-0.262596894686768,-0.303409920280447,0.0164102514274916,-0.00752490409881712
-0.360685791282519,-0.207104675028519,0.0317618652165455,-0.00743345313319387
-0.312300616756503,0.00165274289107564,-0.0254709911542021,-0.00617231670962043
-0.120716117492008,0.19756863421867,-0.0966485704682864,-0.00109761455175987
0.0569093014440221,0.210945556944019,-0.0856204621742444,0.00714824362713638
0.100628422869392,0.1538333733929,-0.0406368580161604,0.0131672593620841
0.0553357327390955,0.135607603946915,-0.0493702999710735,0.0146136348085804
0.0415444544210249,0.0426375515466677,-0.0693565106718401,0.0146599767048582
0.076034727891613,-0.0504089216048961,-0.0360113027908332,0.0141305718019953
0.125501039728523,0.0821860294731984,0.00738108700149365,0.0100577014121227
0.191079562739991,0.278758937419239,0.00514314886014942,0.00339734967627975
0.210322253613269,0.209217674618599,0.00277630304810357,-0.0020546766694539
0.141123670484523,-0.0438254059904581,0.0477366130867538,-0.00652567630334413
0.0497143231065881,-0.217411340168094,0.10991667561488,-0.0116442812972964
-0.0179145299691581,-0.201753445064155,0.131492364236127,-0.0164051199420727
-0.0668283399219331,-0.0241984983692876,0.0817466569215951,-0.0172021242787203
-0.0831415268137671,0.179512531059279,0.0191541997150148,-0.0102219069028906
-0.0311772212935548,0.290816238301472,0.000667145523161716,0.00239581858793728
0.0938496935460178,0.278885387904523,-0.0188033994963087,0.0147226199044348
0.183794925586605,0.117119902047262,-0.0677487230430848,0.0236637601004642
0.116527820594557,-0.150560766011661,-0.0649456556152324,0.0250203564128086
-0.0118624487000284,-0.405909502215382,0.0101179764156669,0.0143615720525936
-0.0869699606381353,-0.44648623770317,0.0254996589688815,-0.0030990847209091
-0.180245960811442,-0.182175040524637,-0.0610262702726939,-0.0163069081470478
-0.271333597017577,-0.053764356942265,-0.0928465453101452,-0.0226174464035322
-0.220333964267788,-0.26813083142842,-0.0165427727479176,-0.0266921142317615
0.0130597242334327,-0.199005034225055,0.0333717737559306,-0.0262565829962252
0.343079134097284,0.351480967546404,0.0457747753152788,-0.0142485860667584
0.53483353780023,0.694189481928517,0.0807513727765636,0.00456397373238402
0.424221731743034,0.481576027306214,0.0987773599373283,0.0169767507408172
0.0971966399633564,0.112235078522073,0.0729183450711315,0.0204974564455113
-0.276364362807529,-0.0459496366033358,0.019743620556287,0.0210853076155339
-0.473957591171294,-0.166466277085361,-0.0278495508437389,0.0198310937950354
-0.373317864029239,-0.355874353038059,-0.0408471996866068,0.0153819078106244
-0.132434281296465,-0.380798242399952,-0.0362586795887352,0.00826023394258832
0.0633814636929634,-0.158811143313256,-0.0559469120293455,-0.00137859736781772
0.138708761292596,0.125074078059863,-0.0749947862514887,-0.0124032854868863
0.101293614148994,0.124848438121907,-0.0171307086873756,-0.0210732037588986
0.0499658768951032,-0.0950924284686906,0.0723789226760123,-0.0253881869098406
-0.00610338418123187,-0.0822813738026732,0.0989826718978437,-0.0263365881195695
-0.0876891465898008,0.160754863542377,0.0964630296521728,-0.023600672376566
-0.109366318938212,0.184221765911417,0.122270797984336,-0.0159846177582803
-0.0335816675058689,-0.0549293343238307,0.138248178122747,-0.00555499713488161
0.049915919356965,-0.110632944339082,0.115752046935303,0.00328410403562493
0.0874614709322071,0.0297636934582367,0.115824020023195,0.00758644401616733
0.133390700608337,0.0357317925789617,0.131038689591627,0.00605395911778763
0.143035640272189,-0.0600396872335168,0.0728641150575757,0.000384363337473168
0.0613841920353823,-0.0834302841395747,-0.0326570366555774,-0.00310396503144804
-0.00971948406342674,-0.113797672202139,-0.096947634256972,0.000300455656398878
-0.0252981306966868,-0.0705803679247287,-0.122041200339146,0.0093349210902053
-0.0374327097203264,0.236183777816506,-0.179441978655602,0.0245217515977655
-0.0609268494460211,0.366214822273426,-0.249006896864178,0.0482783340464118
-0.135579690272148,0.0622717835246346,-0.226953392854792,0.0677247669723295
-0.181978031152774,-0.237786766401177,-0.132221666794495,0.0602889593359311
-0.0393307789050572,-0.376070654278699,-0.0215448274573372,0.0246897629442326
0.126140049860159,-0.508431531482437,0.10185580566919,-0.0184190403913478
0.146895599508189,-0.599787254243904,0.19048766786671,-0.050550976884994
0.15446406009167,-0.458770514463489,0.205204626089388,-0.0626222088123233
0.17503445913352,-0.024279205831611,0.137420205534764,-0.0539102808333325
0.0797025536661094,0.499244752183736,0.00362534752216143,-0.0327618957704696
-0.118034806127515,0.84198629197461,-0.11589169535372,-0.00975889379959068
-0.229008724912095,0.722895618665637,-0.14219511003986,0.00947911074095104
-0.124903410822108,0.144662935352994,-0.0817819672502306,0.0224372917087516
0.0787247404843598,-0.33716215554889,-0.0178421899971793,0.026637138321497
0.195704105979286,-0.346377673500666,0.00459554806881218,0.0225014443785381
0.187911869693112,-0.114814470158503,0.0101925369594608,0.0143504579983067
0.0788105999292334,0.042435229719272,0.0101242725698516,0.00562303534105718
-0.0703177260981681,0.107159721739856,-0.010123125317866,-0.00199576933220934
-0.137805572450721,0.107568673857625,-0.0218845117751817,-0.00611378463436281
-0.101078831509545,0.00146146013127343,0.00792238045713073,-0.00718409584657505
-0.0366514446719685,-0.162729623347786,0.0494560910899436,-0.0102024733854928
0.00173581866673243,-0.266445014694486,0.0694815638451352,-0.0169594357914952
-0.0221755841710796,-0.192090759561595,0.0527835402741029,-0.021522280292527
-0.0579785603305086,-0.0312515686009495,-0.00154686392264022,-0.0157535435833208
-0.0250957992868074,0.0472761113642381,-0.0766466321596961,0.00314561763102053
-0.00363519915021081,0.0899610973075582,-0.136744149917489,0.0282849466832124
-0.0519253424938335,0.209555616084226,-0.128464567278791,0.0452250237478817
-0.0439656451143004,0.35535754924148,-0.0602204618517507,0.0449011038254076
0.0720325041516025,0.328881151593269,0.0107960451468101,0.031249117661179
0.20629355986762,0.0721455312796093,0.0821798693902587,0.0104486821988926
0.277273582535702,-0.151268613442246,0.142225353403631,-0.0149855129805098
0.201867189460715,-0.0911765789879742,0.112423193114861,-0.0381851749948434
0.0560178254099296,0.118091980055203,-0.0240067951369074,-0.0451091334945017
0.0325829120033383,0.232854735126032,-0.131163647331942,-0.0271775726907643
0.0795156144225761,0.145803819978527,-0.0847081739440647,0.00380924466395172
0.0211072638251423,-0.0908521846033481,0.019237188100214,0.0230512887920465
-0.130305059346823,-0.265331305221445,0.0243831043372028,0.0190030447054346
-0.212490262201044,-0.247807630428731,-0.051531295918907,0.00337618640853502
-0.155614506238665,-0.102351399762195,-0.0983656169313398,-0.00820966247952295
-0.0749702411379111,0.0713074461958298,-0.102762935548367,-0.0128000820105579
-0.0369436583329357,0.164955811512369,-0.0933201856503765,-0.0127515178168861
-0.00361793597310064,0.0680276072611727,-0.0350399018589559,-0.00948805987207738
0.0355980929766244,-0.160215368687646,0.0592252881364339,-0.00888318315085567
0.0733195773664439,-0.402191764580425,0.147066654464721,-0.0157682652205764
0.102346949091985,-0.51464684882905,0.20119091880637,-0.0250055943868097
0.158985701852715,-0.305143021541418,0.181679397380609,-0.0271659807963779
0.224105872729209,0.152132031933154,0.0740736086717721,-0.0183568264375295
0.175068915339998,0.651161590174942,-0.0763634096382911,-0.00204958214437952
-0.00273126693227699,1.01345659952627,-0.159873228671985,0.0140628205124607
-0.193076762110884,0.848057686200951,-0.107710851398259,0.0212387807724273
-0.214034118447945,0.134362104767226,0.0377805605426374,0.015288621974287
-0.010782514407825,-0.497441960209619,0.170209179494023,0.000303121100263403
0.200136564346755,-0.62973679322962,0.182607160597596,-0.0144251719818373
0.225109480832506,-0.40114550016053,0.0909415735839687,-0.0194368052219951
0.0824078202309841,-0.0326966944442073,-0.0297546564847747,-0.0100277066611048
-0.105793402909336,0.338357641756511,-0.157869716664575,0.0140356397767798
-0.27269829110729,0.30204879629166,-0.217862590606537,0.0455458638625185
-0.32154109624057,-0.243018650379088,-0.144175214142924,0.0643410398702165
-0.165504108679313,-0.560899241940009,-0.0266508495259766,0.0542298301108514
0.0217038667904568,-0.286262823865278,0.00713378601468195,0.0224214119466022
0.0631431505252077,0.0972288863707785,-0.0167081973748394,-0.0107287145700794
0.0635117743151491,0.239472344959416,-0.0165675850059235,-0.0331765251020232
0.161321755024847,0.191206770225866,0.0122034269006146,-0.0433658784876078
0.259344356164062,0.0921724006770194,0.0322008805178265,-0.0429706708023718
0.182895464808054,0.00592525099969227,0.00942050654352343,-0.035468855979213
-0.0235858975851641,-0.067077782563976,-0.0290285367684715,-0.0225623873951946
-0.141949263852101,-0.0854741416274233,-0.0197573402178546,-0.00597445567823096
-0.0910141898180928,-0.0238837817642432,0.0505481294428321,0.00604104315258991
-0.00262405808133975,0.0792962261089331,0.10950228834286,0.00662236354765045
0.0647454175854695,0.185160182208465,0.0958564579611895,0.000290554132744771
0.159814188940433,0.351560079685992,0.0552822419044372,-0.00390358365918222
0.240721517256883,0.471904928603683,0.0550780835204017,-0.00286542636734877
0.237461436741885,0.309797903709639,0.0781709966292121,0.00105840951549018
0.152599792735204,0.0750254000069377,0.0673572622048374,0.00716826743199231
0.0201027769992377,-0.052407498531942,0.0349190757345609,0.0160694494290845
-0.117550126593052,-0.310984197103914,-0.00304177889534435,0.0234061092144594
-0.2203963220184,-0.628330203956244,-0.075316348967426,0.0243945177699104
-0.27047719632222,-0.662380135396952,-0.132435771453612,0.0220657087517982
-0.2224172817839,-0.434731388376333,-0.111316286775275,0.0207294470140901
-0.0595595428815069,-0.229755502507503,-0.0462552664377483,0.0170458875726669
0.0979868155988345,-0.036149512531954,0.00524738148239637,0.00759249463157845
0.137824693365761,0.345785645884654,0.0370114216665048,-0.00266760592832563
0.0726971005370346,0.637103400591033,0.052039831509195,-0.00877451164151965
-0.0205457697220485,0.406214826278426,0.0414839424048759,-0.0127268212812293
0.0738008132383255,-0.041980320010801,0.0136376463656394,-0.016945062646171
0.315626256188087,-0.0725391383490121,-0.0585135780690827,-0.017425166255145
0.238887991288098,0.135559770011635,-0.111069178236173,-0.00793369116473892
-0.153573131859334,0.0403098362316673,-0.0471934287372019,0.00592821969854749
-0.369058655354746,-0.138580954906664,7.46586019097772e-05,0.0099859096839812
-0.291708273757826,-0.0432102132652112,-0.048209387617425,0.00348548913385927
-0.178762543063797,0.114784405322275,-0.0766130863296904,-0.000898085262556294
-0.105316558161526,0.119035718478517,-0.0343661316864093,0.00248127187827187
-0.0146056137066344,0.178897016584191,0.00752621393892991,0.00816942490662031
0.0482138594174875,0.313648774727536,-0.00351962860864348,0.012130599492467
0.0706628796003348,0.152224294991712,0.0116217260012888,0.0126711853837798
0.0890228600358444,-0.178873524855713,0.0771262179317811,0.00543630694091486
0.12739766935505,-0.249360488389957,0.102485237465436,-0.00791161948159485
0.139881309308876,-0.0576878229146916,0.0726850842387926,-0.0178688813219287
0.0667043346699447,0.135566675832979,0.0440638557812777,-0.0197470726538174
-0.0284842792211223,0.13604041420792,0.0319050111454195,-0.0166455643769271
-0.0579842740929905,-0.0773409728374571,0.018812963396107,-0.0123432862235559
-0.0390346927762944,-0.306985831528114,0.00302385720897116,-0.00846608587087516
-0.0686876668659976,-0.304558689662131,-0.0326553069586818,-0.00484111246404674
-0.13463206945702,-0.142486550431224,-0.0738511907136944,0.000155778688324497
-0.130528805674563,-0.0538512833280946,-0.0608292668266009,0.00600031461480336
-0.0917322830980614,0.0529238140522059,-0.0112290969116617,0.00825565773513343
-0.0597646869853159,0.277506737148427,0.0203898611610004,0.00381693946928969
-0.0386228357871181,0.385452870033297,0.00693868304844967,-0.00370458703486924
-0.0638434099441619,0.294662202266199,-0.0700391466259129,-0.00573659274843502
-0.0696622283539123,0.197852712450422,-0.132195775329661,0.00297671449815999
-0.00757428909669459,0.153366769771732,-0.0797094902318206,0.0171651896929024
0.0425293921327968,0.103198801377636,0.0391049442245654,0.0240796381413227
0.0531200510801741,0.0226477881829387,0.119431779074472,0.0164995892304588
0.0905738965881268,-0.0232251633910622,0.099004877125904,0.00143025551754777
0.143003692985349,0.0512403984566131,-0.0136370067634581,-0.0084889154450916
0.109101549215313,0.102776219803283,-0.122271402625376,-0.0102316590620989
-0.0248875710190088,-0.0569117579447399,-0.136943516588603,-0.0106865576151565
-0.0710683567438572,-0.314303454520567,-0.0199144259073911,-0.0154120302507471
0.0538782832168321,-0.381661564002644,0.157055247011374,-0.0243353215998309
0.154229319529632,-0.358893499500634,0.221490467629281,-0.0323653287748792
0.16964443238616,-0.393014270287525,0.14407197424372,-0.029288124351477
0.14932355535079,-0.172705697285264,0.0671592845179614,-0.00870784956433722
0.0387774012739389,0.174828279363574,0.00549311821985538,0.0194948833302462
-0.0385416056905187,0.170971570531678,-0.0872219398636908,0.0375613129183586
-0.0153228032652286,0.152624709619021,-0.14614203971855,0.0387824846018978
-0.154073964796397,0.374974785726892,-0.174357796308651,0.0283009840580847
-0.355414541652902,0.218039598071639,-0.175636628235172,0.0155418381751826
-0.202622547067487,-0.167315284289005,-0.0910512094707588,0.00717745360765996
0.169271152628086,-0.127845517146408,0.0456514248372239,0.000721618626799082
0.337780396230887,0.0829974291298768,0.138612575221391,-0.0108265446941688
0.243422253135349,0.171301510246502,0.148738611534789,-0.0270515653489242
0.121455715759501,0.177140842632686,0.138223995141854,-0.0381204459395065
0.12769349117566,0.0131734822036275,0.140366994464447,-0.0379472300316778
0.108500702218071,-0.227422545178579,0.0386734031181351,-0.0288777602445958
-0.0272617310531916,-0.264702411407337,-0.141632255260348,-0.0119605262835545
-0.103668492310046,-0.290364502976898,-0.148586664120053,0.0108374805222713
-0.0904117324498828,-0.45720859809146,-0.0118222930018448,0.0289161432202131
-0.0619915180117592,-0.402373092867825,0.0424190141101205,0.0328813422934425
-0.0332415149524673,-0.159776205955945,0.0225863098366302,0.0253746989016226
-0.0145236513600926,-0.0998151392080344,0.00428137196910842,0.0149842049661482
0.0311621769298844,-0.186371994127767,-0.0370610749682817,0.00799241739047716
0.0874602473015719,-0.160884947313728,-0.0907346390687278,0.00729614540489374
0.0892467812992303,-0.0429435783099731,-0.0817057786618343,0.011089661969206
0.0332591485000073,0.0287139040427136,-0.0313382220626068,0.0129216984391166
-0.0130586501275192,-0.0101622158770104,-0.0260148492764025,0.00846073844077505
0.0117317383983274,-0.169006751516106,-0.0281473486804619,2.80926252792385e-05
0.0664865838911891,-0.247607875169412,0.0217963428026645,-0.00906995289317909
0.0467819415421838,-0.125645705910712,0.0697914170399909,-0.0172006849811095
-0.055414317867324,0.0378739104029239,0.0573513237544144,-0.0198305266819124
-0.150781018812003,0.194393463386273,-0.0291516512367446,-0.0131041509203325
-0.224871319726961,0.250360399939475,-0.119616010897912,-0.000277657414647605
-0.243837758623429,-0.0372259340547728,-0.107149442189134,0.0109206213728569
-0.113568411259456,-0.433032490253669,-0.0214567493037009,0.0141187940137681
0.0588478899603077,-0.452837038575651,0.0358253117566657,0.00621618566802822
0.132345389779772,-0.0797846408335389,0.0380969846599511,-0.00896125353442432
0.178890230761061,0.220523732064974,0.0447605325971416,-0.0173712437299656
0.20204835106687,0.105091256169639,0.0947773531232179,-0.0113019689646024
0.115999329256129,-0.0684903473540408,0.102507364185014,-0.0023704012754765
-0.0236230438418004,0.0246179488531607,-0.0369346525633367,0.000654730412848654
-0.0982476618140104,0.00589443599160509,-0.169897626976657,0.0064459206107885
-0.082201949804757,-0.256928229911574,-0.0747476758035186,0.0180067587324175
-0.115458792830156,-0.390800273765862,0.120813507793751,0.0210260285476197
-0.260531389901576,-0.320366064547162,0.223002645015263,0.00662158696052981
-0.314267198326537,-0.266693108292481,0.214650362934112,-0.0139643068519008
-0.170969440920081,-0.166313846421339,0.102606899869339,-0.024267245489488
0.0127805486948055,0.137657192205146,-0.024929791707734,-0.0214304885649521
0.0755641240458031,0.44652457719107,-0.0698978387619352,-0.0132787447440402
0.0216829406224922,0.496193187229361,-0.0977954701989288,-0.00408744912457224
-0.0223766181247338,0.229033462390606,-0.153849176017499,0.00474922295923825
0.0378483851429974,-0.0583191622653816,-0.142650080974674,0.00835237239479419
0.100749023518856,0.0698609128069294,-0.0511942951393333,0.00567832081018483
0.0263641701381499,0.41247080869879,-0.0101887540677972,0.00283605481210384
-0.0583717772260529,0.358006071635243,-0.0470072228069677,0.00564285597799516
-0.00209400084523219,-0.0690115357800881,-0.0364194350152079,0.0136524571836288
0.0681378408103003,-0.368707937652982,0.0595187637879457,0.0186641092102774
0.00732562245135792,-0.326165816903841,0.135895028049092,0.012793143693437
-0.0712825021159064,-0.149253915993946,0.12029363832905,-0.00147130739850251
-0.0273065543556234,-0.0403334098149882,0.0451903322957103,-0.014827473689615
0.0664943911153326,0.0120115311218289,-0.0202727410803951,-0.0210258315299831
0.113545196319797,-0.0228717399883043,-0.0484829262189621,-0.0179505660790602
0.113917903138274,-0.0644300373696686,-0.0266525480474653,-0.00846047840542778
0.0875917604691798,0.0574491528545991,0.0557460130986221,-0.00262583361503469
0.0797434041174443,0.186635870755785,0.153185797257182,-0.00525611102866733
0.0888091697911441,0.0943825125588562,0.199548186218662,-0.00836567860152281
0.0588455207964136,-0.113917973065024,0.168762594518299,-0.00581741176393702
-0.0333328923677845,-0.105185947036954,0.0727329966123648,0.000527764395241817
-0.155581373930459,0.162254499307904,-0.0467956822366541,0.00986455668727219
-0.131506126391359,0.343852329054936,-0.112194112197775,0.0216690383938593
0.129270888435886,0.290322304750624,-0.0667720338584581,0.0298317086809823
0.301394683847152,0.0412309234092949,0.00179845211660973,0.0278779130234684
0.113466071658857,-0.256456651830091,-0.0402855266415626,0.0163367697644605
-0.211416384567271,-0.30615518214625,-0.119025823671788,-8.23064513899019e-05
-0.373979427118768,-0.0331446177038443,-0.125558365863053,-0.0163582430092266
-0.305469141341435,0.320558588235081,-0.116526771283395,-0.0252341788454269
-0.117502731868972,0.411207610901237,-0.110065515979543,-0.0213199273146407
0.0175047947523596,0.180514627294058,-0.0650771392603116,-0.00857090042668623
0.0818370230432363,-0.0398183851488423,-0.0165394865740235,0.00382182244645025
0.139594168663548,-0.0258587271278416,0.0169019570185327,0.0104809986840346
0.145583037594845,0.102027621129024,0.0561013411289858,0.0101884118487565
0.0524811151313868,0.115988241758981,0.107569632232578,0.00288756163769804
-0.0689099100117241,-0.0491649819743429,0.166247896584914,-0.00995829885827031
-0.127431681894326,-0.302930139021623,0.177439085313946,-0.0242649497579501
-0.105430077839195,-0.589105933409065,0.111135459215744,-0.0332256003305332
-0.0722570342329686,-0.7350498333325,0.0229899797868169,-0.0283369002779477
-0.108466431449933,-0.299359572133214,-0.0454627157419345,-0.00689800001516228
-0.189125755628562,0.566038830073146,-0.13960295654796,0.0208863593644126
-0.219333092322343,0.853927368762417,-0.235800956128137,0.0430440741466626
-0.0818940716991305,0.285613458567269,-0.198516495346137,0.0550998101021848
0.223631093567042,-0.33676638770668,-0.0348005070892221,0.051559845575369
0.411871066276536,-0.428365323657138,0.107467620375037,0.0273860046933534
0.317563213290924,0.0450063421418522,0.127539689686998,-0.00743940043454354
0.140822120926686,0.604411159910303,0.0475694994269931,-0.0316011026148235
-0.000469996033566678,0.676643651778775,-0.00713242903248759,-0.0350218041526507
-0.110645043564597,0.238072779541325,0.041174984033296,-0.0251686004811845
-0.0613928778354976,-0.418428590262414,0.144843608311348,-0.0149771321376893
0.134278118828866,-0.733763613534033,0.16885773429281,-0.0127777543900659
0.19862488172788,-0.423811705809532,0.0261591394252529,-0.0141025486049961
0.0702616815873988,0.000462736580107315,-0.148335700044299,-0.00808358555679784
-0.149303870130791,0.12276681136103,-0.186865079569322,0.00272216032842567
-0.42839251918487,0.091919451594044,-0.138715489958418,0.00718152400722577
-0.544476732012209,0.116558045926671,-0.0990789170910393,0.00688358741685871
-0.359153884376532,0.10872538584181,-0.068271057455584,0.00989211769570019
-0.08468880730863,-0.0502233420347641,-0.0324200323413503,0.0143616622084869
0.0639448719203884,-0.148461686842094,-0.00254282430644256,0.0144921872726884
0.0998686419229185,-0.0192627975186323,0.0104188559720521,0.00996207372951202
0.141417139374627,0.2061454660677,0.0210647210044119,0.00394620501881027
0.195808112581381,0.304245589711094,0.0483289147841042,-0.000705743806066078
0.182848560642469,0.198491679279328,0.0774020441041354,-0.00370308326619572
0.095294272675988,0.0467203572193542,0.0629147238063816,-0.00674751086835987
0.0149848068800699,-0.0689813839037291,0.00469138120436551,-0.00936436534283843
-0.00842138297309405,-0.180013825552692,-0.0262849255131529,-0.00920227153578845
-0.0180052522275483,-0.218336073559467,-0.0120323762994005,-0.00775435768232184
-0.0648232504716662,-0.131529115402569,-0.0167130645803939,-0.00972463397262081
-0.0995985295344417,0.139860863561171,-0.0544711647089621,-0.0139360223316871
-0.000846249028784288,0.4754835675112,-0.0678967809763732,-0.0105341848541212
0.157895535124314,0.430525501921191,-0.0428310652914226,0.00577159261593901
0.180795377188868,-0.0101220588948951,-0.0177188344760629,0.0251716297668312
0.0958420061510104,-0.39310879003509,0.000485107341391082,0.0337107820891628
0.0136793107114498,-0.492172073589137,0.0213740851122933,0.0276635237657061
-0.0452310986696602,-0.326454246680731,0.0231283893691234,0.0128396660774195
-0.122550250613448,-0.0547977258291097,-0.000280145035927326,-0.00151643329877053
-0.189996831111652,0.164454290209599,-0.0166859015302896,-0.00867652039530911
-0.086636740314868,0.412624682015746,-0.0279536952499413,-0.00932633993848837
0.127330778914185,0.6315027803884,-0.0673605910121184,-0.00522799515392336
0.180766910354094,0.542115206368555,-0.134965147632617,0.00517085189119805
0.0779854042870933,0.204128585839439,-0.151481278145079,0.0170550810270716
0.03630752997973,-0.0834164443725721,-0.0499822850801925,0.0175488277380319
0.102930596079085,-0.204033164237534,0.0900317182594798,0.000355831592401934
0.13169325667587,-0.274753223085084,0.167711036388031,-0.0242995530728286
0.0377484761034487,-0.342157334352626,0.157537989051809,-0.0402324366233296
-0.0609749162120266,-0.20337268972341,0.0593959750520544,-0.0395355490798589
-0.102279196952974,0.033641765128176,-0.0754420017986236,-0.0226576121267165
-0.144223238900918,0.120995404064717,-0.140251916175267,0.00217887657125405
-0.137385249347003,0.153000341523588,-0.0783171951763477,0.0204935787437921
-0.0741397680058151,0.047303631709993,0.0240999168169675,0.0229397448580026
-0.0477561809668578,-0.207100142561603,0.0719653835311412,0.0107397264337727
-0.0597923620170137,-0.284808070477723,0.0738075975508004,-0.00795668537992305
-0.057018213053522,-0.115230858125998,0.0518695109271245,-0.0209263654898437
-0.0425548047635973,0.0932826369894975,0.00544500767617357,-0.0191541512248647
-0.0427542712523873,0.283505056783824,-0.0570812640384946,-0.00372507078311665
-0.0151506390181854,0.440778949100877,-0.0892029566157142,0.0167659790443739
0.0453941099323356,0.38298153206344,-0.0690211429346909,0.0306667516042083
0.0857335047188838,0.116767911918383,-0.0123576420579296,0.0298850532484354
0.121606377881402,-0.128692500668233,0.0797071368688353,0.0160480583978896
0.149093464868446,-0.215312701521983,0.152812072277738,-0.00366646575588037
0.16236278823329,-0.174134961242028,0.14381380313001,-0.0214470589321244
0.173167968499941,-0.101632414739023,0.0825634015399792,-0.03011463885893
0.131443384981046,-0.066778923459073,0.0108678276451195,-0.0280049255097616
0.0461464211960208,0.0185050218097482,-0.0644008836168746,-0.0183334881362117
-0.0183275236029662,0.251314030421222,-0.099816086806463,-0.00429965490556247
-0.0431150695788738,0.45184809364497,-0.0848075997934495,0.00837289838899763
-0.0592095047112573,0.308337433809261,-0.0688352626148308,0.013640898262808
-0.0829732623033709,-0.176530593989799,-0.0337674570219061,0.0125269488809558
-0.0544703262586242,-0.574968728427246,0.0269320806003924,0.00933527812717669
-0.0148993748641014,-0.532869335994819,0.0491077312753006,0.00490781295073887
-0.0581878187396228,-0.127143917263212,0.0183567660657743,0.000496407674272746
-0.0981988896470207,0.193900313096879,-0.0101380068228669,-0.0001049195940921
-0.0582823241614733,0.212037594031609,-0.0175934296999092,0.000742265406485117
-0.0118539331167009,0.155616306286369,-0.0387864913286162,-0.00310999107896234
0.00934948741433428,0.1114473176474,-0.0764729379798135,-0.00880167787923023
0.0335404731183114,0.0624485064077535,-0.0930424483302627,-0.00807768214177455
0.0281083061888705,0.118626630065466,-0.0545026136218011,0.000787918112020333
-0.00773817860746129,0.20968079847118,0.0100036919952752,0.011002625218499
-0.0172307792757237,0.164668937290078,0.0394461861249688,0.0146818542493031
0.00596511422495401,0.0332054110553466,0.0415719636656651,0.00972330395741777
0.0292983020887601,-0.023225878894722,0.0549191921630415,-0.00120343081013419
0.0431095702174046,-0.0315944529297703,0.0911191583117365,-0.0127011648799113
0.0657756635666687,-0.113873669079034,0.149615492313494,-0.01965622948483
0.120639936062559,-0.191170259369534,0.180122789646064,-0.0222381615855337
0.181033147743315,-0.152807558585055,0.096866658884829,-0.0207285758139347
0.165708497756235,0.0300464095585943,-0.0740067842023722,-0.0114238086499985
0.0810841690199648,0.221107987679573,-0.192774753364167,0.00534725591025382
0.00232059839954721,0.21265466054562,-0.201488345984676,0.0250540301717925
-0.0758554921668091,0.0643783581960656,-0.146866570307968,0.0453799547096928
-0.165131843539671,-0.0848616570254834,-0.0646538056460686,0.0595452499285814
-0.207228429850145,-0.142867834675988,0.0268437162499168,0.0528766298750889
-0.155360104978635,-0.0709341506220455,0.0969877757810816,0.022072538349091
0.00630662474603388,-0.0533237944290833,0.153810120901866,-0.0158526693362752
0.254700019761094,-0.195990151929865,0.204109420378276,-0.0427236577298219
0.438078683461285,-0.271556487587649,0.173064989509237,-0.0511563891994453
0.39039153022983,-0.117397764762153,0.052232363433724,-0.0399872307523651
0.150000170095953,0.201866273230544,-0.0644462986557477,-0.0163450694505979
-0.179001630568211,0.368816433822451,-0.129927971569894,0.00408721484753158
-0.448003841887723,0.165587538532444,-0.142329020901798,0.0119606805750803
-0.445014257467887,-0.0422896182858127,-0.138965619466089,0.0104896024295187
-0.238252532805894,-0.0714008082441255,-0.141685406794816,0.00563273884870421
-0.0719769823632311,-0.104479573244662,-0.105236675737882,0.00140353330784342
-0.0119303982665995,-0.110276658369719,-0.0246982205652642,0.00222944165998021
0.0125737352861475,-0.145307873386213,0.0561862610294703,0.00753141466405695
0.0509718118346499,-0.304532918160657,0.100492697142339,0.00770044596779148
0.118325256583853,-0.40382373187807,0.107776311296363,-0.00248939746815442
0.203530699438927,-0.260783798885939,0.107810914869098,-0.0148400222109102
0.234895063706764,0.147575938250608,0.0916516738769988,-0.019563464577789
0.139150803624237,0.605336408942492,0.027167655880109,-0.0158498749501416
-0.0608807435244284,0.643234530266379,-0.0517134595353331,-0.00872656763879254
-0.246913958177836,0.208891313687658,-0.0876509804029083,-0.0021176593340283
-0.302990558592661,-0.196371931440254,-0.0806764678681559,0.00432005797540644
-0.192527067657946,-0.322509162571078,-0.0449419947517898,0.0124108966642137
-0.00723195576288499,-0.266595247580248,0.0202233060516184,0.0204627649830756
0.114494370747636,-0.167894354421648,0.0855648931388011,0.0210118345241075
0.168152679331363,-0.0898828165297603,0.107672157898718,0.00874241346441545
0.205720678441154,-0.0277618564405458,0.0808615472184893,-0.00792086228188009
0.183683407165296,-0.0134524281432123,0.00809967087750599,-0.0142553151851068
0.0631636816259069,-0.0988896385774083,-0.0859752743001561,-0.00843331829032103
-0.0958449719635121,-0.181232847110276,-0.125817313815194,-0.00218526499917679
-0.188760064562387,-0.155517615131729,-0.0703033842386286,-0.002782440381862
-0.226529868077235,-0.190688453233267,0.0219536124797651,-0.00753304692798142
-0.27270313292884,-0.193381530526029,0.0512497120760816,-0.0132237749096611
-0.254885764938246,0.0586743157868161,-0.020614055332451,-0.0162259289069666
-0.146971547619441,0.251889794532196,-0.125281690013055,-0.0101719748182808
-0.0375745824507346,0.145837263492256,-0.159057477838021,0.00613598814618631
0.0313520785471735,0.0344685198543743,-0.114467233330833,0.023700797741988
0.0547822592033356,0.10925420191353,-0.0564196370058831,0.031087441623254
0.0345572839479585,0.144710789866196,-0.0052199479294477,0.0251222391773759
0.011093983310237,-0.106975931808356,0.0509361182708025,0.0101937390321223
-0.00252173492348707,-0.502938273185867,0.104665907847648,-0.00849460492597642
-0.0377423759431321,-0.71718630131775,0.136595360406654,-0.0257920344559437
-0.0756940790411774,-0.708188480934213,0.127363680374498,-0.0364996235939672
-0.0881397934777096,-0.305241193567956,0.0582713304536717,-0.0367383467918041
-0.0576824372774693,0.566977483272306,-0.0537835094435161,-0.0226677778240495
-0.00271549116854515,1.06938223538122,-0.132671205098882,0.00585198922563718
0.00509423800307568,0.715789795627141,-0.131523945722791,0.0371336147917014
0.0570717131414512,0.123100054926267,-0.0759540413513159,0.0535878799834515
0.202139048644756,-0.232949231061531,-0.00230909261612722,0.0473538246245848
0.181688672932014,-0.288084834377987,0.0476738678561648,0.0236482495161005
-0.029520435147645,-0.13503160324232,0.0565348064861656,-0.00578181178592905
-0.128182869409441,-0.0063027586362273,0.0423131039415575,-0.0277849809855695
-0.0616963550342141,-0.0178168412460821,0.0305078481347227,-0.033243627490425
-0.00524245321994942,-0.0812018591759556,0.0443734611482981,-0.024984883504595
0.00307815596632342,-0.107856639085414,0.0366475752485281,-0.0140531119434067
0.0493800123279316,-0.060895711754157,-0.0304819642530245,-0.00452501547893101
0.126961010856021,0.020489174421836,-0.0798352154126209,0.00630468292999362
0.166170457394961,0.0014431698500121,-0.0550604060426279,0.0165730027588222
0.172001625738858,-0.0198648181771862,-0.00292274474020361,0.0201991876149841
0.132163390009094,0.0536876022243117,0.0225568931624602,0.0159787301322409
0.0205618154918287,0.0487978058686142,0.00683664464316442,0.00920881543323622
-0.0892858930644908,-0.0514014712000917,-0.017292805354236,0.0038163495862595
-0.157084467056258,-0.0938248884531813,-0.00880605643169618,-0.00113347242781166
-0.229545760294241,-0.112355771837691,0.013616915942115,-0.00676916560063554
-0.251445573685182,-0.129161261077868,0.0248191843314358,-0.0115306219030113
-0.136946718105327,-0.0396402422075918,0.0227756949359847,-0.0131795874839334
0.0382155187866579,0.150149550762752,0.0161111478788461,-0.0107110163676305
0.162803986199891,0.377491593008151,0.00691880535265832,-0.00518402371720142
0.202949675413602,0.437746465870535,-0.00514920577012501,0.00176235126758076
0.155256715810111,0.16587055836428,-0.00247612358521217,0.00885355756942649
0.053967192233656,-0.169062715598912,0.0118445046813053,0.0142782659617816
-0.0312123074441561,-0.287037814197862,0.0290287363383876,0.0163745876032713
-0.0762543376280549,-0.207395043468253,0.0414650773236209,0.0133376570273044
-0.0874571136704644,-0.0767400429387531,0.0244098971726968,0.00427887913061238
-0.0249252036581905,0.0346144294035856,-0.0205460653510306,-0.00630619098139085
0.0875730586499837,0.160577090431179,-0.0472828144724593,-0.0100393753373231
0.132487433339395,0.13580168246088,-0.0177152995669859,-0.00537467708750473
0.0952425006813919,-0.0987495417463206,0.0498192866192192,-0.00119245329139883
0.0403738853981276,-0.254217138032501,0.096788748694985,-0.00504074172656965
0.006442965549694,-0.0760046353582529,0.100064656666388,-0.0146599118658632
0.000982181949068531,0.448731405438527,0.0639430308920502,-0.0230588675311046
-0.0178290438668167,0.786134665114402,-0.0113973674096555,-0.0249916488850978
-0.0128024807735468,0.483368514739688,-0.0971929343592259,-0.0175607080567298
0.0874763324052978,0.0681709826516407,-0.137099167588213,-0.000397287840466561
0.15581443810973,-0.0163291134188558,-0.0682612823116044,0.0205127991687479
0.0415970853334039,-0.0443108325178302,0.0623329038402275,0.0333610565806161
-0.122232658900051,-0.175433618606069,0.131440681524217,0.0310084743544564
-0.120170609847439,-0.340817334277738,0.109179914262379,0.0183313718747331
-0.00367136427837846,-0.465001475487217,0.031134262024519,0.00863963965153113
0.0229901674854469,-0.482812875823744,-0.040290453091355,0.011411262099181
-0.0690056532764747,-0.40146964260242,-0.0360631933352413,0.0182579430850029
-0.138745580578586,-0.226836225372827,0.0266893301515771,0.0128477032587084
-0.109879673044109,0.0884628921732269,0.0581506620238672,-0.0042535792795391
-0.0129367749883445,0.414165122555445,0.0316811362448787,-0.0182753947782678
0.0597861173275295,0.455243411149135,-0.0143852309043347,-0.0206039367380854
0.0662078885049339,0.234368287771233,-0.0470554954844165,-0.0141918079696833
0.0578846071163134,0.0152146641174371,-0.0321517900880702,-0.00763197568560695
0.0128313273722914,-0.0941118985245615,0.0156661975061737,-0.00841322403033644
-0.0570257501609838,-0.067391193726145,0.0434726480073575,-0.0172109259126453
-0.0498287304058788,-0.000963013013910247,0.053963325685667,-0.0282952783243802
0.022127924050209,-0.0823647204265563,0.0760225293939073,-0.0346580198394294
0.0624591412074534,-0.199401159754524,0.0981933673440798,-0.0323000252367556
0.0261598360458786,-0.156818568286549,0.0718489755105359,-0.0205079311295172
-0.0481972920686949,0.0038054022366113,-0.0350955305264739,0.00170909373612014
-0.0937894770722902,0.224278464103571,-0.148357724423279,0.0340215266262377
-0.0773973044821121,0.367602395499669,-0.164276683968744,0.0658326987522099
-0.014391989062174,0.228603099148176,-0.113682471680722,0.0791887796831645
0.0244117486318266,-0.044967423295128,-0.0633981427865069,0.066180275405231
0.0183717828088225,-0.152160969227868,-0.0139569268779126,0.034579095977294
0.0518327427698843,-0.0815148373801013,0.020183973487034,-0.000487040102912714
0.112716250730343,0.0177060148367038,0.0213242007134869,-0.0252451320498824
0.107003614014453,0.00278375460847311,0.01994604451728,-0.0346528129788361
0.0626590420474995,-0.137671015154084,0.0362721699042068,-0.0332778888588389
0.0342612360843878,-0.257422309120725,0.0395561282408563,-0.028511310234913
0.0197016189528847,-0.254525054836836,0.0202715648370888,-0.0239940750583072
0.00977989850989251,-0.241871808450581,0.0236995409046532,-0.0195358039235772
-0.0196254664088929,-0.334033907508377,0.0568939476702882,-0.0153206147697786
-0.075158207887192,-0.347288558092256,0.0737236297606685,-0.012696115432803
-0.115305811652518,-0.161648203771844,0.063895886076386,-0.0116431680385916
-0.119655899062351,0.244977102795014,0.0257622172323219,-0.00987314643182762
-0.127741259232296,0.770951010061914,-0.039269857654497,-0.00434564899394249
-0.125967860908331,0.867477030569479,-0.06803845129918,0.00628214753940661
-0.0622049705097639,0.426012923857995,-0.0528932605323096,0.0194359266172582
-0.0327060762348191,-0.0786741576224083,-0.0639709808400562,0.0291140219733365
-0.111216414214545,-0.430356223435117,-0.106752716994153,0.0304231476076223
-0.138875063955591,-0.484111192116074,-0.12709221594125,0.0237658820441788
-0.0378336521500407,-0.250969195051369,-0.0869090131367735,0.0140813044081434
0.0643328787242242,-0.0450874856475945,-0.0162764972926501,0.00545879325720563
0.090141874384645,0.0281461724176008,0.0217546538003554,-0.00147267919235117
0.0580023354827621,0.0212607322968697,0.0215920708709989,-0.00671188885312632
-0.0019055648532396,0.00460625014606887,-0.0014386194693974,-0.0101457687584991
-0.0479977232680622,0.0508283620136111,-0.0355379723334142,-0.0128527141951998
-0.0486417035751659,0.0591366462889309,-0.0341196221620236,-0.0156138390598856
-0.0255285241906838,-0.0115469619209503,-2.8000892708685e-05,-0.0161946232896048
-0.00724451330544282,-0.0589392531734613,0.0171077489420305,-0.0119479096707685
0.0111024400370078,-0.0496805609120405,0.020230774911792,-0.0052693831558042
0.0394610590674659,-0.0359324198410234,0.0285256449650246,-0.000993897879842248
0.0721635051716386,-0.0936031612594128,0.0364400238343216,-0.00152800128962697
0.0985518194874805,-0.201290413386719,0.0409510450427832,-0.00673274026848302
0.085169381025723,-0.281537138166323,0.0490201369869012,-0.013973140554438
0.0114274197902326,-0.361138307225852,0.0549829991455514,-0.0189647958737868
-0.07146304305908,-0.389258677927412,0.0475985372845167,-0.0171896607585211
-0.116979149114312,-0.143189067430568,0.0157083570974351,-0.00673066321032862
-0.11558178401719,0.272818383241021,-0.0322499071055787,0.00876364913874383
-0.0862592388054131,0.475338144351496,-0.0620433522709659,0.0217549244004084
-0.0815697085403731,0.488961759092444,-0.0728246873852125,0.0252657157819732
-0.08321970975102,0.477408194465982,-0.0762601151540652,0.0196331990475327
-0.0324080458016338,0.314084231684219,-0.0500602834642731,0.0121013000403764
0.0277923726264746,-0.0107271795534537,0.00881436885194181,0.00651620373754078
0.0418633331651573,-0.24903224907055,0.0652205749146194,0.00118428751848101
0.0425320836293285,-0.253608603913568,0.0914261370727498,-0.00561416365806927
0.0559545977926405,-0.0794117833118145,0.0835949001346962,-0.0134366108036578
0.082281310132125,0.194548355108093,0.0416240007930894,-0.0181225642792811
0.127397527867433,0.412767385926088,-0.0198674896586165,-0.0136073357709228
0.168055448046975,0.301357080941161,-0.0370674011770963,-0.00231644312941305
0.160897295459748,-0.0735138419633287,-0.000923386569267286,0.00384500601983406
0.0946619424125082,-0.299675679708517,0.0109439565008001,0.000100678275837463
0.00913725327757012,-0.294180974876759,-0.000785743194801188,-0.00613944127962673
-0.0463836837442942,-0.302558159572827,0.0150181478815408,-0.00948888506343346
-0.0757271449128039,-0.336978488700867,0.028064478133977,-0.0116849208829399
-0.116790811240371,-0.223494094842555,0.00163537323031734,-0.011844776167518
-0.112059184348128,-0.0195782472634242,-0.028983679941781,-0.00522500557792233
-0.0281835707347204,0.141923173763675,-0.0344662381455508,0.00836562165903459
0.0406352603000183,0.213774333892745,-0.0235486225793435,0.0225919032907277
0.0798591772866789,0.159549144461923,0.00692688443169868,0.0292455067089882
0.115618019310635,0.0555007234151672,0.069552776273475,0.0246129169412085
0.120443520175743,-0.026193260362944,0.148526880910895,0.0113875240328135
0.0940787595896686,-0.108905862764239,0.190116276037285,-0.00485728600377141
0.0796410574922674,-0.161222441969632,0.164763561476412,-0.018279469958419
0.0617527251907828,-0.0650478594461188,0.0714749509836414,-0.0249585048728171
-0.0491760171973623,0.209969252550353,-0.0868351978096297,-0.0243486318737693
-0.180621076068995,0.413932553550518,-0.215186626378498,-0.0158777549006873
-0.162913861287123,0.370524885908422,-0.215444592725984,0.00236295924412552
-0.056593147781496,0.217870433723504,-0.140048947618983,0.024908995755903
-0.0259634497263072,0.0473930128782415,-0.0617990552343527,0.0365123556479636
-0.0454036560903231,-0.0501704703954335,0.0143644092777889,0.0282812390844122
-0.0286937686611272,-0.0172538630995367,0.0712807143942115,0.0088825006127369
0.0128029567063966,0.00876465509449128,0.0896607927815659,-0.00607342548439359
0.0429944280328506,-0.0503287326603027,0.0808125130840263,-0.00922938024910476
0.0421907323154096,-0.122826171832293,0.0680359629826365,-0.00438930081609265
0.0313246394267681,-0.127625012437965,0.0713342409639838,-0.00011024213562418
0.0414315769057753,-0.0693183424835517,0.0730659702126274,-0.00126301953348963
0.0517833536663082,0.0705965897696767,0.0330930488584958,-0.0054877538278163
0.0366407629351109,0.21514486683537,-0.0323164810231916,-0.00783918876964852
0.00207851301753129,0.150171180935524,-0.0800501055810042,-0.00628412865771765
-0.0196537709463757,-0.0482858161783714,-0.0843328667573722,-0.00284414143134489
-0.0162174312175268,-0.151715563519073,-0.0330378541159034,-0.000898372814247898
-0.0266905604239258,-0.15087631899607,0.0174558689581183,-0.00114436802734343
-0.0432948666934006,-0.122008149910279,0.03020973204691,-0.00123881607536059
-0.0286670443045815,-0.0720870762535331,0.0333557514455397,8.93451835032996e-05
0.0389852127075149,-0.0336719286525834,0.0271188634243041,0.00184605066376869
0.118414676700449,-0.0812585931721621,0.0163886574792843,0.00389957492827475
0.0849445015901864,-0.200532032868754,0.018994087251466,0.00518993759965268
-0.025928386743942,-0.209105464730425,0.0216707003843905,0.00226437364382209
-0.0564945917282207,0.109233374485702,-0.00895847520119844,-0.00324063104794056
-0.0328929595617165,0.439038596776677,-0.0627329727340375,-0.00255054047185735
-0.0844429226555646,0.336992099110929,-0.0725001323882988,0.00660678931394543
-0.183894648291831,0.135516604004063,-0.0229360396871037,0.0128810440716863
-0.176673080504888,0.232494788292981,0.0286218874466396,0.00604416865805167
-0.0368760736045675,0.437369201250489,0.0525780603501326,-0.0103855764311097
0.072418883747031,0.490417898088248,0.0537937117136038,-0.0246529192193663
0.060833012058335,0.352569187274188,0.0269375626969637,-0.027251500270459
-0.00370018652058385,-0.00290479352963158,-0.0311323390968362,-0.0165722778850667
-0.0695560424969544,-0.388783057011093,-0.0820343870506819,0.00120080230650858
-0.0694194184857853,-0.504327990178365,-0.0605953154168883,0.0180645597244079
0.0464437993888931,-0.437380376483195,0.00416841048623762,0.0285163848706785
0.135418828291305,-0.209705235119668,0.00481420925969255,0.0292568886433671
0.103593907878919,0.147922932204655,-0.049037085823396,0.0223082370697632
0.0513010125884277,0.273518437604295,-0.0694729731485142,0.01359175109437
0.0418870755553125,0.155983065392813,-0.0466201438684642,0.00517283468329982
0.0746279397607893,0.0900633766419089,-0.00431312895136426,-0.00411382942727937
0.121514134613946,0.103243032152379,0.0350176634667204,-0.0144606397235556
0.142482536268302,0.0642138256634895,0.0547549751586381,-0.0238573050595821
0.161880587403189,-0.036038832624048,0.0728794913303335,-0.0289245500073955
0.198324907859594,-0.087557191685399,0.103778708064798,-0.027673578783887
0.18577634600053,-0.0649791230195113,0.131569941090132,-0.0212333930613198
0.105318201516818,-0.0284832485651271,0.134292985698439,-0.0135338294215124
-0.0163312457324311,0.106965500922585,0.107052655267798,-0.00703766497087185
-0.230541089564858,0.255262563328111,0.045266409606431,-0.000390425804084042
-0.452403627987843,0.164373391293288,-0.0478993217490203,0.00751398678187619
-0.437494325307225,0.0254457061296929,-0.136622712357042,0.0159020126124974
-0.195100732916245,0.0219715390448471,-0.167127597825816,0.0227780213723171
0.00183630976682397,0.0253081909917746,-0.124479446340042,0.025006148389866
0.0619354621629795,0.0659728485225591,-0.071183738763184,0.0223718889729205
0.120627600083183,0.134762827438855,-0.027914335952188,0.0186640200692203
0.205345422750704,0.11336655179037,0.0327086460281221,0.0140975545318824
0.223262185431306,0.129658197630946,0.0672422616917706,0.00570399178479404
0.15570703300771,0.268501863884707,0.0422591599741231,-0.0033407832699761
0.0589578165009862,0.263790532284445,0.00211198521399411,-0.00733483263422474
-0.0122328891661687,-0.00521761405833004,-0.00284043884567209,-0.00670942693529201
-0.0552231859589499,-0.319501359913433,0.0279404960157601,-0.00508563351219844
-0.0840248936150101,-0.480533222035772,0.0400880436602545,-0.00387383444967233
-0.0826862899997103,-0.441061001417058,0.0196572716422264,-0.00287671729249832
-0.0641321165369067,-0.228484151968597,0.00596584926503288,-0.00343588977301595
-0.0146836660656541,0.0631366141984378,-0.0130805337210585,-0.0054298520741137
0.0699698964802197,0.213456148270781,-0.0381548598088469,-0.00374536927000043
0.0796839942204306,0.181886071421947,-0.0184807455039508,0.00222263798889943
-0.00103605769601896,0.176274273978096,0.0402950549881591,0.0036748624046309
-0.0317919874971306,0.21847481902894,0.0704591142372693,-0.00354890950641609
0.0238304106070438,0.182393304345222,0.0531441458299139,-0.0122117340880599
0.0604772996153929,0.0853171125886679,0.0364448201791895,-0.0147786622575588
0.0157436936918908,-0.0505698738679743,0.0298976914951805,-0.0110038311795318
-0.054697652311446,-0.136624669579546,0.0037468580558853,-0.00423602685220854
-0.0865042791742859,-0.0230346433921619,-0.0336034500750923,0.00368686841289352
-0.0796776517340784,0.0846377818736272,-0.0644141012744162,0.0118622434532927
-0.0199564042887257,-0.0272060613904214,-0.0742280476537535,0.0179306028938091
0.0620986283375151,-0.16747664218563,-0.0455893137551042,0.0182138312164594
0.100077267278269,-0.186673857585717,0.00831889533168068,0.0107733315867665
0.122717933456409,-0.116086389438448,0.056564783189225,0.000124773996446809
0.134660385293086,0.139958474985293,0.0725785434224242,-0.00581971672153947
0.0965220731595189,0.459141715519209,0.0610804996239528,-0.00654043825639398
0.0202908940816164,0.460131655435096,0.0343133643013597,-0.00849474766498366
-0.0248059594670876,0.249380527779039,-0.00995305154639316,-0.0122749551934721
0.00572166839469154,0.0729735343256376,-0.0558768948613697,-0.0112201542057343
-0.00555886315924941,-0.114445458101937,-0.103733916405437,-0.00306709726289878
-0.107667253633054,-0.192069651661828,-0.11671984212546,0.00800356423852567
-0.155367608024655,-0.152370871549236,-0.0369155836594417,0.0158048217044598
-0.116705198672087,-0.202418514473748,0.0576795753324751,0.0142813577803892
-0.0637036694315765,-0.2890139196347,0.0842278007819648,0.00412549530795292
0.00781492191262301,-0.295139023562581,0.0864161847146836,-0.00678532445712223
0.0683913315697472,-0.265024464922416,0.0920277660248436,-0.0136197460920048
0.0370954987314312,-0.123456046633982,0.063865694764037,-0.0180647261150553
-0.0428791394378437,0.155759185360586,-0.000427884991955868,-0.0206124706063992
-0.056337738994883,0.281597677783991,-0.0399517192725055,-0.0165418885591682
0.00325057661040173,0.194309027261328,-0.0291435126128059,-0.00241800772822051
0.0547945803427471,0.161812767645125,-0.0143830221082577,0.0166949984416914
0.040377602086761,0.119318021130777,-0.052834153221538,0.0296402607854838
-0.014058522747136,-0.0247718385699231,-0.115489514351171,0.0300876267484424
-0.031172697337005,-0.013861257039301,-0.110685689933572,0.0199913084294469
0.0231848197792275,0.0769763771409036,-0.0424851153512595,0.00402822028134759
0.0916692759097904,0.0187201945544817,0.0235585859861248,-0.0117904954122486
0.101335992591398,-0.0690775460505231,0.0558612782555127,-0.0209699736957002
0.0683430551773032,-0.0605930354655172,0.0511056258503099,-0.020321405246907
0.0381227308545944,-0.00257911952674625,0.0287644319273481,-0.0116759261180033
0.0335045226733113,0.0195909299388173,0.0172284961737404,-0.00120764717086089
0.0496947600766998,0.0227903035661066,0.0161206025125576,0.00474205666265491
0.0531496694841475,0.0537066094125046,0.00963919866947474,0.00498910784533321
0.045442782105124,0.0463430890853592,0.0146053210539811,0.00296323802496935
0.0180207414090126,0.00334152893493794,0.0227653022166797,0.00182397844802447
-0.0455589495524752,-0.0380736564076956,0.00871309188861529,0.00197838016240186
-0.0765305662853964,-0.192414036171366,0.0243551788656349,0.00207418231600911
-0.0209855959768759,-0.497283123961166,0.0882837293025763,-0.000437886182625407
0.0627243706388674,-0.756902140075416,0.130099021691671,-0.00714692897169374
0.100884054653811,-0.750799884481393,0.120995651125728,-0.0144647331303176
0.0782259698669527,-0.419476958477576,0.0526490932748025,-0.0152403089888746
0.0174463833769448,0.290091811496366,-0.0843590430636267,-0.00428942300134672
-0.0925827916706057,1.0480389296108,-0.210976676488132,0.0166605637129011
-0.212565482590088,1.04329306034752,-0.217944639102725,0.0357480462198408
-0.189989629709508,0.330185791738325,-0.124137157951505,0.0382720698525815
-0.0372453652590083,-0.202270202331342,-0.0405196783860684,0.0217833189674926
0.0564192029668932,-0.268129852484589,-0.00827804792562634,-0.00119919503317287
0.0210624222582381,-0.181694859789122,-0.00155298537846398,-0.0167637715712929
-0.0112119921202733,-0.11984348309125,0.00455778402750198,-0.0198846893474022
0.0772158714844583,-0.0631144229284527,0.0180370204699918,-0.0130247784420457
0.167043524719406,-0.0455489810835977,0.0285955982481381,-0.00216048669724223
0.158852319483785,-0.0529596490706394,0.0432126747826716,0.0063948747377224
0.135119837143654,-0.0168762574574754,0.0721844557763066,0.0100362469723364
0.0884389735653137,-0.000661010258662139,0.093489701737924,0.00963765705940989
-0.0059602115203118,-0.0320907410957337,0.0784353761072134,0.00459430129705605
-0.0693499979592127,-0.0196609523501154,0.0360809139932087,-0.005456842820997
-0.109418028148871,0.0278098520547693,0.011292997573571,-0.015189052628239
-0.123266870301632,0.00194387404055599,0.013719575005315,-0.0187358671774685
-0.0609297661645099,-0.0918372625235008,0.000302335574655411,-0.0167159577419268
0.0127309456667174,-0.154608163372402,-0.0357538644539794,-0.0121319750852334
0.0442290459809305,-0.142352314857813,-0.0409889929265319,-0.00581385193282757
0.0623264831709273,-0.0923436524931162,-0.00770637105715299,0.000999071676707878
0.0482905708628987,-0.0206542696527739,0.00462494025116232,0.00602498876324052
-0.0100982017663581,0.155057893852529,-0.0314426146264274,0.00896022409356823
-0.0451288829736555,0.359681674020015,-0.0633521681596921,0.0102875652321469
-0.0693380783714284,0.360271986487133,-0.0463464807440168,0.00925760711736841
-0.0875001651781887,0.156495045671777,-0.0307373420959882,0.00669262387298512
-0.00914516192894795,-0.0320183705710939,-0.0462399412696063,0.00553276416570605
0.112034736830257,-0.0669470275239199,-0.0360998940513348,0.00568556901960934
0.135721291947624,-0.0222572201625909,0.0104183905335411,0.00364950830535423
0.072684820411354,-0.0175463108850469,0.0401727579701809,-0.000849421089685922
0.0365291899036814,-0.0821564006726686,0.0394745974733782,-0.00532625660891208
0.0335308762589314,-0.131972313721985,0.0341696293613036,-0.00973253650209262
-0.0217227012396755,-0.058699700827763,0.022275217844921,-0.0131179802649642
-0.0903491313308057,0.0250649494553234,-0.00801332532986698,-0.0116567700868242
-0.105443911424695,-0.0269784961855816,-0.040646311462709,-0.00528168436079728
-0.108810262565154,-0.0660122988781439,-0.0499186748737805,0.00176578383941663
-0.124651274448931,0.0140442484870666,-0.0247681806019131,0.00665822374481886
-0.117105414680382,0.0749638826088785,0.0184691900090688,0.00820703790728677
-0.0597347893583567,0.0278166657937828,0.0663127155044821,0.00565006344913617
0.000675739412539289,-0.13148767153746,0.0875784254759052,5.10751643149534e-05
0.0355391615738254,-0.350505440192929,0.0388414299411347,-0.005445830612569
0.0701461133661178,-0.408275733485976,-0.0383077582957514,-0.00778538355940778
0.0868589864391354,-0.127598769400907,-0.0668680931819555,-0.00695877157559026
0.0353922030333576,0.321109396990303,-0.0743602286001036,-0.0051004632201481
-0.0758445118425957,0.531997108510717,-0.0928494342090239,-0.00298958144648322
-0.127709326649875,0.401437819473192,-0.0692755448616195,-0.000743714513157638
-0.0638137725552531,0.201822219394665,-0.0164147140662223,0.000389386891172782
0.0145778732608473,0.0264162632116297,0.00712538623850696,0.000269207020696423
0.0643500063406258,-0.121838189812598,0.0275412221546074,0.000294332865641945
0.130102574076869,-0.202679427263436,0.0873673721479111,-0.000569076680032864
0.190308357268559,-0.275817316817231,0.14662764692965,-0.00532833877508559
0.218859059674523,-0.336076013519966,0.173033932497457,-0.0132475938610615
0.21349135548216,-0.343307598518835,0.189058513767759,-0.019912287470961
0.155449022533289,-0.264843934360555,0.166143902515942,-0.0204963286835758
0.065950450493632,-0.0816221775428061,0.0538815074200889,-0.0100928382268409
-0.0388880427472196,0.129398211960294,-0.0861984546448647,0.010346953207912
-0.137012801257024,0.295084815407954,-0.16585106993098,0.0283381625097652
-0.151486198207306,0.241595740427655,-0.19029819733461,0.0308620365030217
-0.124983647445619,-0.0735505395534092,-0.170296558294613,0.0191373810243621
-0.172400302958844,-0.263617238346192,-0.118154850062244,0.00467595509600815
-0.242562211420968,-0.126597663529919,-0.0721570697431705,-0.0045843522723817
-0.206375936436301,0.0522646764188608,-0.0408686192524299,-0.00804373207620561
-0.055140453425257,0.0655420484452538,-0.00692807631688251,-0.00783378054494004
0.0916802042433097,0.0220116350495385,0.0379597142920273,-0.00662073441420018
0.158567842061088,0.0388979497236061,0.0713756646144649,-0.00644161244974381
0.176336631221133,0.0982320128091559,0.0799085508703533,-0.0050787752594771
0.160606172740232,0.0820953153468909,0.0818765641946154,0.00092319849346298
0.106841051293673,-0.0768141711705467,0.0752436579274698,0.00787361480208378
0.0245216708747021,-0.311408446447287,0.0462837331838517,0.00824803434554417
-0.0492399668669613,-0.433595558299604,0.0152416659897956,0.000523454219561062
-0.0601308060791182,-0.328969443882186,0.00349301715230591,-0.0103858318015624
-0.034508063642988,-0.0724253873739644,-0.0164161331220169,-0.0183378234604663
-0.0315703013472338,0.1590404663019,-0.0525855712741383,-0.0181539018394191
-0.0429245191214938,0.211611043173098,-0.0662900776118822,-0.00712934984257767
-0.011862317094177,0.156343752966432,-0.0454967341722094,0.0113908049708095
0.0716472691330066,0.11840757647358,-0.0124938619840807,0.0272041274810457
0.131431557401389,0.0699169886046892,0.00857704540389188,0.0301890558094677
0.138403928569045,0.00902265652210554,0.0263959543466121,0.0194687473628098
