-0.0308030241874445,-0.0109033840753906,-0.0081846140141806,-0.0023101852105572
-0.000479870489444013,-0.011516839556832,-0.0078606024966697,-0.00098661031799512
0.0259559737265217,-0.0121907106323606,-0.00596631087505821,0.000340981705784937
0.0450029583068146,-0.00316159401669857,8.94356455259336e-05,0.00154748848625115
0.0656353654184329,0.00872845145437629,0.00951747507168394,0.00228637571548802
0.0843078953366372,0.015032198908559,0.0134692397401174,0.00232790548465858
0.0790666014755254,0.0138476669042963,0.00837939427730537,0.00226550816131211
0.0391448551884722,0.00786137178223227,0.00131486732330826,0.00275170425429689
-0.020168122932083,-0.000898212321382647,-0.00141155503639933,0.00354233118384683
-0.0554387556066888,-0.0134479337659055,-0.000779036022466306,0.00383485600831587
-0.0436299182902846,-0.0211165102614473,0.000913957074447839,0.00326177424167651
-0.00778280128989352,-0.0123092717597951,0.00551936485514616,0.00203129471331817
0.0175989712105468,0.00122117272066619,0.010821002522689,0.000428952223907067
0.0173346727215425,0.00449420183847563,0.0107263328027659,-0.00123483815731432
0.0127892359028297,0.00175841076979279,0.00606014464300507,-0.00264429109695064
0.0159864149769775,-0.0029267701378999,0.00226361449417406,-0.00314579803368307
0.00875139101587485,-0.00894909393589282,0.00162474506706315,-0.00253894267888281
-0.00398058607389457,-0.00793385224690796,0.00251443895060932,-0.00187626229382444
0.00444405093114067,0.00675341298263701,0.00320756710322238,-0.00173220462704306
0.0409793196491761,0.0264287791364429,0.00614316038241339,-0.00163774623395945
0.0753415187213465,0.0288582691411081,0.0113657593705948,-0.00125220466326669
0.0761080059947835,0.00922723435045808,0.0114443872186682,-0.000698827601372259
0.0456715224930429,0.000486651217921921,0.00520184650192937,-0.000234135886398821
-0.00243324760515841,0.0197248137141177,0.00326996019450708,-0.000163845833409352
-0.0457099155814879,0.0316994630349676,0.00856122796737277,-0.000795968445183105
-0.0561101854511336,0.0096221750130793,0.00821515306750148,-0.00179592762843877
-0.0359401752442792,-0.0227005533271684,-0.000510692695072661,-0.00205557211310555
-0.0111348195568765,-0.0342353104697655,-0.00244375404562483,-0.00067154339332581
0.00278831573681451,-0.0292327228335734,0.00466883796143578,0.0019827093159695
0.00403742105424738,-0.0266870032157166,0.0109205285264908,0.00429027561032194
-0.000423032605668189,-0.0294412304096898,0.0130318771740102,0.00493922059458899
-0.00762478676866861,-0.029352622796524,0.0113729951154164,0.00405232563902923
-0.0204551360257395,-0.0226805901809577,0.00770890344805112,0.00255214604803655
-0.0344404922516,-0.0140099942401931,0.00478812567891502,0.00108244971562203
-0.0429786605587183,-0.00318277832176666,0.00604187775347076,-0.000538219314445407
-0.0407056020984638,0.012025971562473,0.00975976883452537,-0.00277415209104545
-0.0280864797366897,0.0209481962204277,0.010628497056581,-0.00507752346624856
-0.00260738197968466,0.0112676924023954,0.00738611078439777,-0.00588127865438258
0.0424973201412161,-0.00361096096513181,0.00334595124985251,-0.0047045187968623
0.0759922708114667,0.00243990847168338,0.00318906957829594,-0.00257368432593378
0.0564160324024308,0.0190094437731251,0.00613043787562359,-0.000532601862410149
0.00559290567776962,0.0192592146645007,0.00593660278085522,0.000715483813422294
-0.0270416742612914,0.0079937050809669,0.00133385311176135,0.000951592948072689
-0.0189474303072372,0.000228083490634193,-0.00113494631462482,0.000709317451820826
0.0109668452559574,-0.00242206225854273,0.000280774868999803,0.000949081049670267
0.02333792677257,-0.00553276878400734,0.00220672258152946,0.00202307642990045
0.0162504625474074,-0.0111778984190695,0.00533572866040186,0.0034820243089217
0.00540106344996866,-0.0134498717914681,0.00633065259940262,0.00462099335014219
-0.0111723694190583,-0.0100213182395331,0.00116434601613284,0.00473802754043314
-0.0294272074758955,-0.00954812613388677,-0.00767364138149751,0.00371877088830378
-0.0397936504892851,-0.0164377087952241,-0.0173202508376219,0.00222752055312553
-0.0434726050531572,-0.0229612522255334,-0.0224740623572374,0.000899860998216068
-0.0473705567814054,-0.0243166531926313,-0.0201872941523424,-0.000115517604096185
-0.0526208994886462,-0.0221676523505033,-0.0153287481790282,-0.000879290682485717
-0.052396519418909,-0.019029755934187,-0.0126956310628282,-0.00162915229491324
-0.0430612147389056,-0.0156196106472978,-0.0117392673751564,-0.00237343325426071
-0.0261319656530522,-0.0132313749726951,-0.00898625081167072,-0.00268195321976888
-0.00603505716313078,-0.0128345391323725,-0.00467933407724915,-0.00215067243756748
0.00952794764487147,-0.0106703207296096,-0.00206228320269266,-0.00093029307018752
0.0209789703154904,-0.00540649829841785,-0.00188810378917399,0.000189659831306064
0.0365708297166651,-0.00186040224943701,-0.00555535528757943,0.000801073063532013
0.0524946663231441,0.00604038912834211,-0.00881570840033317,0.00100998723428743
0.0473997895723296,0.0244913213708462,-0.00717336416977485,0.00103032568010269
0.0182472902785778,0.0323733593908947,-0.00953819551112942,0.00129514971114906
-0.00631555774551431,0.0157837423883762,-0.0185930365549496,0.0019824878029195
-0.0104635385501785,-0.00263796041054162,-0.0249829702183846,0.0030353353982614
-0.00545209677571018,-0.00136552051542602,-0.0233802234796614,0.00419470432263167
-0.00664692033373487,0.0140929515391536,-0.0159487316409184,0.00454632599391585
-0.0162157546285449,0.027177102150088,-0.0111338594196547,0.00353270281625177
-0.0256841388103651,0.0247462146378963,-0.0113154763838122,0.00195984744170639
-0.031140060556566,0.00841630487354997,-0.0112573533230847,0.000874650229957578
-0.0335742568901761,-0.00458443077088835,-0.0120560559956569,0.000436537804598185
-0.0311667529286943,-0.00732569272065021,-0.0161114394724397,0.000135261073812462
-0.0194692303622646,-0.00960300887364265,-0.0190004061914028,-0.000418411689357099
0.0027321372700146,-0.0146760765069953,-0.0153151966381272,-0.00127768277357356
0.0281138419875215,-0.0198423157368027,-0.00584290676594196,-0.00233183501026736
0.0432807349421613,-0.0229867606411344,0.00436288610333966,-0.00296447334107106
0.0427691158224122,-0.0186365654487925,0.0116843284687646,-0.00269185707673604
0.0306583322433988,-0.00477097179327645,0.0146258675131934,-0.00202343763436069
0.0118784049169828,0.00965039030624753,0.0143264070744826,-0.00154392943446902
-0.00291342284298357,0.0151543748171479,0.0131322961270034,-0.00133693959486095
-0.00727106287332323,0.0180894483080788,0.0128397638339396,-0.00136008503804444
-0.013894739663206,0.0267593405657095,0.0142068965147979,-0.00156276032699828
-0.0291608390470424,0.0362459944297936,0.01394573012768,-0.00183804766328659
-0.0300799212390416,0.0347446590883376,0.00803461076431551,-0.00185218947090135
0.00388455786537612,0.0159481674192417,-0.000894209576213979,-0.00109109871440806
0.0516106895220706,-0.0119363947742689,-0.00766381644030167,0.000587410102038166
0.0679913044249554,-0.0330282292947857,-0.0123015699701353,0.00244473676071761
0.0416756054481566,-0.0348288732199638,-0.0151390414665535,0.0035098124416704
0.0132691125962798,-0.0156823248224259,-0.013366530026642,0.00329125673354653
0.0141863318282641,0.00947772312955529,-0.00830243938068435,0.00169271849976674
0.022280153023022,0.0196372798632577,-0.00527579483612692,-0.000680119872556349
0.00917641095698454,0.0126040650343975,-0.00391620151239341,-0.00247640894995278
-0.0138042190702191,0.00801655403350425,0.00231859278509748,-0.00293994288170532
-0.0278524569256656,0.0193345012201254,0.0141411885810129,-0.00274116829886315
-0.0264720267396688,0.035420537353312,0.0228212874613454,-0.00279192267033398
-0.00748880467518386,0.0384103234548714,0.0243085933820148,-0.00314072059979782
0.0115405453288418,0.0270448416543521,0.021052339725928,-0.00335911403659858
0.0153949786672013,0.0126071939126057,0.0152307301507605,-0.00337736836911169
0.0105792576351963,0.00274226521771109,0.00996935946468924,-0.00321936468466551
-0.0046290795398378,-0.00357217381693314,0.0057991570214994,-0.00236483649609947
-0.0308483145953194,-0.00849048001137379,0.00415598086033517,-0.000857626319024666
-0.0352547513422107,-0.0115970876335873,0.00518818512210388,0.000191018156054801
0.00425494438133316,-0.0118615006505032,0.00482548966979686,0.000432019385291322
0.0584742933207948,-0.00464549988234121,0.00452676352990062,0.000747063710784331
0.0862237922125156,0.0104304907773347,0.00688969497488817,0.00136584870627948
0.0728899530470812,0.016729672923748,0.00784282592264691,0.00137884468595593
0.0382753931815086,0.00379240427177433,0.00302305766799353,0.000607582995114862
0.00542249058165056,-0.0126048904388029,-0.00496631832562591,0.000240486892241991
-0.0257521034669737,-0.018992722274701,-0.00985614270348399,0.000840002878584285
-0.0431828339691324,-0.0189587251685538,-0.0106208824279776,0.00149580202768589
-0.0299249323426029,-0.0135443086580177,-0.00934268998588727,0.00152116908517247
-0.00213920193747616,-0.0029823268713385,-0.00491787119788769,0.000990375047741913
0.0149172824904668,0.00547961522177935,0.00088087109555313,3.48808734825521e-05
0.012893897505552,0.00727121565205293,0.00240944086353367,-0.00110260260637889
0.00242300483491551,0.00351576982979921,-0.00119776764933064,-0.00207139161343488
-0.00197045162077034,-0.00179779023051407,-0.00493156426871893,-0.00244297573745726
0.000616249268884421,-0.0026575976396424,-0.00641851780959321,-0.00189057721838035
0.00429535140933022,0.00746880740680063,-0.00631071650980454,-0.000578591525285374
0.00607598174512981,0.0221689568929306,-0.00501596906706255,0.000786443832430885
0.00395556088000933,0.0269956323459179,-0.00160793721515028,0.00136478131056507
-0.00184266213352884,0.0177927400371312,0.00376193638690651,0.00113209642388737
-0.00777337824132479,-0.000342879961803447,0.00534698701410969,0.000853040065921691
-0.0134315259136238,-0.013695387792608,0.00155858855379085,0.00105143168877915
-0.0199817175433209,-0.0138935592009657,-0.00278901300578984,0.00162000927507974
-0.0244605390492369,-0.00531006452492838,-0.00423322591013761,0.00207949230363149
-0.0256433056328914,0.00283131077846293,-0.00447900869043557,0.00196113565044508
-0.0254236988120901,-5.25184646572405e-05,-0.00741044435115023,0.00143483699243087
-0.0245288333238115,-0.00869709554772001,-0.0108179629768906,0.00147521674388937
-0.0223343678291843,-0.0104176386095131,-0.0110541679862924,0.00238897643101423
-0.0169897964255157,-0.00206458441739781,-0.00848547441542417,0.0032231096082011
-0.00871279991737364,0.0148462221981104,-0.00439328055070385,0.00310709856876869
0.000382450908545579,0.0279561435331968,-8.17229793492772e-05,0.00193479682428492
0.0082074975073426,0.0231161855358968,0.00214410669509811,0.000205763324435552
0.010109366650047,0.00580795854133687,0.00107173722727941,-0.00144377571439473
0.00303636510338536,-0.00641951458859374,-0.000481793268702225,-0.0025892353024452
-0.00675511904271453,-0.00749524331403046,-0.000611590249383511,-0.00300277892002745
-0.0097648463544762,-0.00307474285842747,-0.000765047282849103,-0.00264613186705305
-0.00296487583731159,0.000609496805116641,-0.000272653317293126,-0.00179734040187448
0.00836102851120743,-0.00407190253351543,0.000222252355410543,-0.000990841111796011
0.0138390013246009,-0.0156745868322813,-0.00169640382810285,-0.000371090375816713
0.00953764554133303,-0.0218394295850252,-0.00472150184324082,0.00032507680495251
0.00494723504365626,-0.0199313760342161,-0.00752426321280583,0.00110571259096538
0.00750414106576663,-0.0164975871935154,-0.0108034749720547,0.00183395276922368
0.00554610604261893,-0.0135603630513826,-0.0139632147862136,0.00243630404865155
-0.0205900836617997,-0.00998439148710416,-0.0137475966019771,0.00263448618762219
-0.0564712221642654,-0.00719685277993895,-0.01289917322793,0.00211120784406448
-0.0448018797882969,-0.00709484654565721,-0.0166420869793884,0.00113341202253985
0.0305861618198204,-0.0109114111755524,-0.0201968210110011,0.000676459557268119
0.0969182072665374,-0.0159283863339088,-0.0166947467216167,0.00121478486917302
0.0828012504177224,-0.0164873983625591,-0.0100928863164797,0.00161881811833977
0.00837792211170187,-0.0163001674260122,-0.0074583874979322,0.000511692219311899
-0.0503874415165658,-0.0136334620701197,-0.00832897948908754,-0.00184564496794843
-0.0622712149312373,-0.00222493368849771,-0.00951613818256605,-0.00409747333191976
-0.0567671296879737,0.00151536804536346,-0.00951652859029899,-0.00503336620429872
-0.0590323054030838,-0.0168958933280674,-0.00886011538932344,-0.00433966333005841
-0.0592738202711976,-0.0297278588022723,-0.00696431163113808,-0.00292320775074191
-0.055716501538416,-0.00298265197672593,-7.79829573838223e-05,-0.00191516087814533
-0.0684688723584375,0.0299104270771591,0.0071396254080857,-0.00181013047217909
-0.0775290203330885,0.0296297777528092,0.006900267033501,-0.00229614140045781
-0.0558574003722611,0.0229187847819818,0.00275879874064216,-0.00228489257587064
-0.0308984400849024,0.0173863825975618,-0.00253703084546181,-0.00107356812423548
-0.0160363180385146,-0.0104275602698289,-0.00793356657111241,0.000881199740778943
0.0100306182613418,-0.0444018517882557,-0.0105671406733189,0.00266315545326873
0.0506134219492483,-0.0601506226610103,-0.00925746151722483,0.00361147769065073
0.0945146109038822,-0.0594025346957131,-0.00494377655076158,0.00343864289156726
0.116107382214124,-0.0505918219199879,-0.00338266291160046,0.00230339684504359
0.0868418468437037,-0.0420306121248037,-0.00724742102906597,0.00111551298909594
0.0247807325067346,-0.0345456072754269,-0.0104577249236952,0.000564071685272904
-0.0181848423988887,-0.0171929887704704,-0.00758208117514326,0.000266500301989108
-0.0211783313811148,0.013140703079944,0.000201092045475112,-8.88182600135953e-05
-0.0019147501407103,0.0389115266389494,0.0071622005022413,-0.000273200863339649
0.0254989992753269,0.0514435308955622,0.0090141668035832,-0.000182208598422544
0.045524954732658,0.0587029946125418,0.00932173529835309,-6.11657935056615e-05
0.0351100945316541,0.060740960659198,0.0118850486851826,-0.000593761439782483
0.00964624956254422,0.0540569392684601,0.0129920544824227,-0.00213090732540106
-0.00196814750822763,0.039503101295358,0.0113691543429589,-0.00381993883026889
-0.01166621344414,0.0192818866867356,0.0115581184876095,-0.00466422914004863
-0.0278502021443789,-0.000471397575581387,0.0144849883760172,-0.00452750555035225
-0.0281714452538784,-0.0103902971160606,0.0169178413342609,-0.00359671094409919
-0.0109163637475667,-0.00981195691681914,0.0168120673990008,-0.00199294071862196
0.00244076176946947,-0.00629579681288754,0.0151171402706355,-1.00536880371076e-05
0.00769185480951041,-0.00194101092405495,0.0130852227619601,0.00186006171638635
0.0131426254784629,0.00369071147335609,0.0117077519366944,0.00316605270309598
0.0163377786547276,0.0067140653814491,0.0117220449095292,0.00382861862036757
0.01010019944928,0.0063884560796143,0.0124304360788493,0.0040426962772309
0.0033440874176828,0.00562263765922316,0.013178395310146,0.0038438742715672
0.009630451812798,0.00732107290667186,0.013808416839291,0.00322049766549504
0.0249989852835589,0.0118284776290759,0.013958599087762,0.00243168972276899
0.0360904973826923,0.01599692774558,0.0147409972858036,0.00186359540076236
0.0394335493277387,0.0143781900047196,0.0152432710381832,0.00146159535405552
0.0408141660758295,0.00845268416954408,0.0143869418310863,0.00122966432088942
0.0429033958693321,0.0105345970652344,0.0145476830172625,0.00147863562166926
0.0456692478209213,0.0247883523021333,0.0158016045945967,0.00163698452310888
0.047530933688735,0.0382915536988827,0.0170018923483111,0.000927657942275663
0.046124490472888,0.0361915566406359,0.016955698031542,-0.000418296704673903
0.0397848267066928,0.0226644519576579,0.0157899444050685,-0.00166721377511815
0.0283991291009008,0.011526427014597,0.0143999726798248,-0.00228073129942852
0.0179010800506684,0.00523026570646015,0.0111340212505038,-0.00223633928454998
0.0125234571489241,0.000745744677800106,0.00718748581776127,-0.00199935501731087
0.0085962343183731,-0.00210195241738653,0.0048697525009535,-0.00172330855971916
0.00316574338986555,-0.0043241113874144,0.00303664286564207,-0.00079772145940625
-0.00238074335509708,-0.00340412430116386,0.00263416116211692,0.000755674358481047
-0.00682920039056427,0.00282308318348805,0.00481147226837961,0.00222114969793627
-0.0107384234728475,0.006248494598214,0.00954637681213761,0.00334406122731104
-0.0135278886851729,0.00339472719236095,0.016357092094883,0.00403843019104411
-0.0137959377122885,0.00341479967184405,0.0233878879984318,0.0040982777925673
-0.0130177904197691,0.00945701207506159,0.0276381864495349,0.00341715588384618
-0.0123357435768867,0.012164867604827,0.0261455931305495,0.00226003772685922
-0.00921046011825629,0.00754811054289501,0.0205643710432496,0.00124658120839051
-0.00554780891507421,0.00106915292733405,0.0122783550604343,0.000994277466480557
-0.00942820084693572,-0.00501254887156106,-0.000574965517195158,0.00153611799380907
-0.0186913342725528,-0.0118170916193371,-0.0134332807572478,0.00214172892888105
-0.0232887548111561,-0.0157337789418325,-0.0177581462891647,0.0020381188362631
-0.0250750022321866,-0.0132685467688729,-0.0162223034194592,0.000957519497903538
-0.0287602192156784,-0.00731694334596397,-0.0153550626594894,-0.000557166568358775
-0.0314546236580671,-0.00481867845312986,-0.015008362532581,-0.00162810357668367
-0.0309599161732775,-0.00736667779527549,-0.0136706797772327,-0.00223309443203818
-0.0226929713980264,-0.00845735238914344,-0.0125984948772233,-0.00267777851823299
-0.00271894480959428,-0.00511013830872524,-0.0115981705695773,-0.00260748011589767
0.0253102118399119,-0.00258573835494784,-0.00842900092346034,-0.00175518504346323
0.0462440303363314,-0.00428205846791799,-0.00281827272398549,-0.00041322699065617
0.0474032866803825,-0.00702888311268712,0.00216947585970402,0.00109963250738361
0.0347999230656966,-0.00859948162813142,0.00607972270610873,0.00211881399829136
0.0193998698642146,-0.0133402362196425,0.0116689223781797,0.00186330327807634
0.00740214841929528,-0.0222750222408589,0.0118053763603878,0.000821871260982312
-0.0167814315245406,-0.0250432173221138,0.00298100905984375,0.000346275745170458
-0.0590903894784819,-0.0159307291843792,-0.00822360928003011,0.000548548064480307
-0.0752784404250307,-0.0020316401351588,-0.0193663113186517,0.000456976711339677
-0.0561873897598474,0.0041182055439808,-0.0253138917088949,-7.33026782301076e-05
-0.0424248651237873,0.00143348521122524,-0.0212157478077098,-0.000488343474444823
-0.0322355574488401,0.0021571714173557,-0.0126037296499038,-0.000768822391909969
-0.0133047767952246,0.00327759781590737,-0.00689993419258711,-0.00142557579593491
-0.00241075458815004,-0.00889806284485935,-0.00830278129435484,-0.0021543027557985
-0.0125584417429143,-0.0284318377800595,-0.014392617320262,-0.00203869119251266
-0.0438231214890733,-0.04559712495349,-0.0180648429589286,-0.00109776153288483
-0.0612469335555555,-0.0554694640595588,-0.0188374851922988,0.000128018099381631
-0.0229636976838932,-0.0526876687324373,-0.0204706425925275,0.00115985976500419
0.0369340548209256,-0.0440009461695734,-0.0218123233752141,0.00169214329242305
0.0637748407636445,-0.0310027214346997,-0.0211086095323575,0.00180699445105175
0.078728129706961,-0.00355935649913801,-0.0171423884851951,0.00139623747241697
0.10906074953672,0.0313105869565254,-0.00739233422365812,-1.4641082039872e-05
0.110615725532553,0.0467803557648689,0.00529829212842705,-0.00254607593811839
0.050922507070735,0.0343214651222144,0.0113580887241676,-0.00525293889464096
-0.0460582181329969,0.0126615722737764,0.00475718953791024,-0.00682817950045239
-0.135611757872637,-0.00795266290304483,-0.008346284954773,-0.00686313864649143
-0.156272432847933,-0.0247612184816898,-0.0182299033729244,-0.00585285603216893
-0.0998069885233659,-0.0250273701997065,-0.022425583379961,-0.004261849513844
-0.0338309866589672,-0.0159079441710163,-0.0238905199259408,-0.00192345255852971
0.0104982547131831,-0.0235822812515058,-0.025312368573665,0.00123350430463188
0.0467074366493919,-0.0393926865603635,-0.0257227912958339,0.00419845355251937
0.0576207612805328,-0.0354533492610344,-0.0210154904407616,0.00557823433857949
0.0335500832408293,-0.0147676189172887,-0.0128364228538051,0.00514524831022616
-0.00153098081588771,-0.00473310032841903,-0.00804300352687327,0.00347012521483313
-0.0292321592555415,-0.015729813029613,-0.00901113994571927,0.00111854435940729
-0.0461932719689406,-0.0236666437891841,-0.0117629091439063,-0.000996755506093314
-0.0566676523914209,-0.016655679448088,-0.00764426146202208,-0.00221918556748532
-0.0578241729186574,-0.00813678330577167,0.00306128821261828,-0.00298797777269984
-0.0389469522975064,-0.00341827472503417,0.00920200044330653,-0.0037421465720325
-0.00837170946350099,0.00143450997290122,0.0119638321175217,-0.00394727527487406
0.00586661834933452,0.0128063260033472,0.0156289832079826,-0.0031500485902243
0.0136785159345146,0.0319003550900727,0.0194465433104018,-0.00194981571555465
0.046714458612697,0.0427381943998817,0.023466627088704,-0.00150391797028735
0.0697426259055032,0.0371715943924352,0.0203664395071484,-0.00195182436075842
0.0364924738632883,0.0265284693395991,0.00991156552845694,-0.00214671181128419
-0.0139963201765042,0.0165092350318191,0.00111461707047184,-0.0013547929116107
-0.0247127591511346,0.00881009315200578,-0.0028243847039955,8.13524719628748e-05
-0.00745598389630218,0.00281619062852006,-0.00266375676551973,0.00142376415064845
0.0104952054443654,-0.00454592264256232,-0.00021890138237996,0.00222472558139215
0.027679885112385,-0.00619284159824244,0.00118321261638022,0.00243974282370339
0.0354023859618361,0.000493734077250962,0.000764827563091942,0.0020897012768261
0.027144706648654,0.00420893242584247,0.0010555729985355,0.00122037122519955
0.00239164405832929,0.000836963912586052,0.00390297538448128,2.42507239163695e-05
-0.0435254818378985,-0.00138610960907236,0.00825222833786612,-0.0010991873447585
-0.0840247307652876,0.00374729543161758,0.0111421219933624,-0.00192931391907233
-0.0765082694015215,0.0120336553057034,0.0115446266187641,-0.00249206244879461
-0.041499220209921,0.0151724895911312,0.0113524942460838,-0.00263047991316403
-0.0160227218673596,0.0144361364889911,0.0112535556205532,-0.00218122156718576
0.00951760277534298,0.0175605330751264,0.0117673008778118,-0.0012866273748234
0.0317287171143918,0.0223194803129077,0.0132402983059342,-0.000316810424460723
0.0385768436624543,0.0213873750869167,0.0140926957774612,0.000387615065882667
0.0530846917104876,0.0168090841065738,0.0149167770100367,0.000671300514228749
0.0800593571708577,0.0146104639824292,0.0162104502714485,0.000659829359352872
0.0854492601064865,0.0156388059506833,0.0156944979465405,0.000602610832017101
0.0580815299017271,0.0160907603267581,0.0136906570052215,0.0006653852283423
0.0231851431062439,0.0121236303337422,0.0114288870227856,0.000880185398939324
0.00300843110677963,0.00647948222958726,0.00832554818019254,0.00128134747575973
-0.00229414043491744,0.00459602782639168,0.00610292172892742,0.0017524002166246
-0.00184641626967744,0.00539039105240773,0.00548368829551355,0.00203199309611776
-0.000833069151443341,0.00396772818601273,0.00496277526915717,0.00201036842157776
0.00125114163131644,-0.000332822669494143,0.00389471564867714,0.00170719576322357
0.00398792207381314,-0.00270498285336887,0.00497034786167892,0.0012843653361279
0.00496706333911934,-0.00112649727821645,0.0111485367835373,0.00077471754828185
0.00437444074140068,0.000407000201670999,0.0189356941011797,0.000178480951030572
0.00345993311937483,-0.000606938269227303,0.0216195731420376,-0.000571496202859275
0.00420101419116016,-0.0012603456427069,0.0182544011660726,-0.00144800026730882
0.00707390786925786,-0.000170149861977984,0.0150342785140062,-0.00184678466985592
0.00846346802715226,-0.000156504408221389,0.0123128945770176,-0.00152812124800883
0.00671041493394063,-0.00265585788582282,0.00442057314617891,-0.000887017067821542
0.00662178356267318,-0.00654601588158575,-0.00559599060155586,-0.000208825835450764
0.0121449104788698,-0.0109725705895124,-0.0101821261703146,0.000371527886596301
0.0172359089038295,-0.0149785864476942,-0.00949048251845449,0.000818249233204688
0.0145014641775842,-0.0177698313978937,-0.00937917361714179,0.00108660133363329
0.00685859063852192,-0.0194004892169445,-0.0111041195550334,0.00129272808816724
-0.00128621202725413,-0.0205049410930239,-0.0124406268351752,0.00162029166661843
-0.0127422967604261,-0.0221561134685233,-0.0128156895564845,0.00195207814655653
-0.0318531361607037,-0.0242523334750362,-0.0127258085239615,0.00234117291515989
-0.051325212048236,-0.0254714782997413,-0.013594453731668,0.00288017603610604
-0.0505171498186845,-0.0196377953098934,-0.0116008899663126,0.00321255212724101
-0.0286508649497083,-0.00681114398962591,-0.00181995128600127,0.00287077851820503
-0.0125205707722625,0.00152904938165373,0.0111417448275589,0.00178697566299779
-0.00530154029849945,0.00264199792278408,0.0177647863949218,0.000425667008678372
0.0108861924614192,-0.00252172322433085,0.01353921928219,-0.00030955859434768
0.0332335645138764,-0.0103764746731984,0.00539782328132428,-8.67888956101806e-05
0.0571818694043589,-0.00765873976315806,0.00183615501238783,0.000130187000014952
0.0726360204495586,0.00415461985331087,0.00252607463085813,-0.000392478852607374
0.0476366096259466,0.00534087962668712,0.00278032260292064,-0.00139872911694997
-0.0115108238432235,-0.0138723380202633,-0.00766851226247574,-0.00219608105791155
-0.055921516295585,-0.033771939894905,-0.0282687347602011,-0.00194842608443967
-0.0620857440935844,-0.0292479951181104,-0.0421587777398315,-0.000535182928934418
-0.0438902474225327,-0.00100005608929382,-0.0380353371327758,0.00103334334922178
-0.0268096861151596,0.0238666404381052,-0.0216385429279193,0.00144243325869913
-0.0218674593293489,0.0193616826320976,-0.00870120008862647,0.000611345376514502
-0.020677464650366,0.000813583997915791,-0.00373339691683621,-0.000129890209134632
-0.0154221933306429,-0.00131839048272826,-0.00209071445099597,7.32697532840311e-05
-0.00553099683982005,0.008636636316399,-0.00141408163172443,0.000873155640667225
0.0040155018839987,0.00792870270724045,0.000324255594984542,0.00144942120611443
0.00215382699576006,-0.00699976960756336,0.00230237798067589,0.00130158639216266
-0.0108556053074589,-0.0234610271105255,-0.000922112263809748,0.000597777794248299
-0.016548413702934,-0.0331446611813928,-0.0101731918845377,-5.98786383109839e-05
-0.00797726420963357,-0.0328526518857705,-0.0177029542514378,-0.000188216665175253
-0.00292394481913222,-0.0220490259744788,-0.0180372934519818,0.000206722595208668
-0.0193711233799227,-0.00714113598465661,-0.01530458448923,0.000875723054013861
-0.0455605623125832,0.00419109396878412,-0.0141966592417409,0.00102525407812911
-0.0525585162485368,0.011099585550116,-0.0137828860144811,-0.000127399723390927
-0.0339213306860569,0.0153753004877424,-0.0123367785432915,-0.00198606186364163
-0.00122067800679544,0.0169438178092438,-0.00982504734801754,-0.00346073326256584
0.0301654334872533,0.0174746753615037,-0.00630196157859085,-0.00418969428178723
0.046302725941282,0.0174170320848399,-0.00263498120509828,-0.00414331969990951
0.0453610660156431,0.0168561246294174,-0.00124928054324666,-0.00337189052525532
0.0327486898182289,0.0176666909612052,-0.00221527621737892,-0.00211867890433679
0.00224726568914323,0.0111317435676594,-0.00463891847616176,-0.000654505292557901
-0.0363838191548595,-0.00828405944575158,-0.00630853563908649,0.000833360640164056
-0.0291348602969971,-0.020086706106133,-0.00358488822035614,0.00187843292902177
0.0211950603338094,-0.00826086418722797,0.000648265153251008,0.00192773917365004
0.040144449385921,0.00774598109295469,0.000475717759825131,0.00115310066335823
0.0155122615996177,0.00655765793029466,-0.00416389011702066,0.000139296532016928
-0.0131898216834445,-0.00513890454760376,-0.00960233079034072,-0.000570557289345399
-0.0274604330832587,-0.0110152315900344,-0.0115762972662379,-0.000601731832359603
-0.0211222022444731,-0.00453217043818947,-0.0064487258710656,-0.000310209326967184
0.00616141905502634,0.00724536903031639,0.0055591305102794,-0.000473553358015888
0.0408128570234842,0.0133297954365638,0.0164631632086835,-0.00105254249460718
0.0517145724148471,0.008620615313012,0.0159253949611659,-0.00135875995908004
0.0223501551402781,-0.00227375779331583,0.00694611053175186,-0.00101961240634321
-0.0178252545468503,-0.00414019502078686,0.00276531140732142,-0.000166699331431198
-0.0271866706922724,0.0131960486888423,0.00676947250173798,0.000304256786518381
-0.00402908246465364,0.0337989211954741,0.00901916078968227,-0.000277024715778028
0.0183230731683708,0.0331922405757603,0.00498984520906149,-0.00118569959169023
0.0234664397675529,0.018327129337178,0.00244636273977633,-0.00150283451359819
0.0211152721526847,0.00942226556089348,0.00418335048206456,-0.00125865192976215
0.021077676836376,0.0051916844017847,0.00455818268781105,-0.000944917482616892
0.025410613019171,0.000410177193570501,0.00219663744542816,-0.00050843543162267
0.0283278141074947,-0.00111969307947673,-0.000220363184277645,0.000421382760890829
0.0261412684666789,0.00125956912229907,-0.00226181736228911,0.00158348847400743
0.0194477555886526,0.00667401619297702,-0.00316685082893411,0.00229669792479455
0.0127301685925651,0.0127675309822884,-0.00167095404535874,0.00225818125811398
0.0161321183839621,0.0137234948592789,9.17720056012265e-05,0.00179008429322455
0.0320791226216179,0.00784932037053758,-0.00074912411119567,0.001281071337429
0.0418936450336745,0.00103949967784625,-0.00218107662749521,0.00120195906177423
0.0244960315039404,-0.00431110982905838,-0.000692952828733483,0.00184093641846438
-0.0142739965234854,-0.0105191964987049,0.00129962947058924,0.0023457771519856
-0.0450058192222579,-0.0118195381177054,0.000652429812970146,0.0017773417606909
-0.0458802381867506,-0.00515094438487871,0.00140760477511178,0.000360134021358217
-0.0399156095354988,-0.000202536336708832,0.00525372094330462,-0.00110651164622304
-0.0432155314414972,-0.00811497680841663,0.00738064070159268,-0.00213268656829495
-0.0297687377655186,-0.0222112432385668,0.00850402089614028,-0.0027484738462402
-0.0029036058406485,-0.0238543035917283,0.0125159406631519,-0.00295425201169695
0.0126318528994186,-0.0125587184260332,0.0189124995447518,-0.00243318943993541
0.0177947884774446,0.000721355493874531,0.0246721733713958,-0.00109113182244645
0.0175039426960274,0.0145351971210513,0.0240024104577183,0.000768942296932786
0.0115791980609335,0.0256570697089837,0.0163082521281663,0.00284563899026914
0.00314662696525002,0.0251426035480334,0.0085479758690639,0.00438629362517927
-0.00303778478192242,0.0185650272093804,0.00594657846457753,0.00445240302650732
-0.00234067207871669,0.0188187973403719,0.00769797977639947,0.00317540145187729
-4.52991341891619e-05,0.0252517020611049,0.0102474149454233,0.00154314198992886
-0.00370614562385268,0.0254949099791465,0.00862868534051323,0.00055072417186937
-0.00460085667499862,0.0106254170013351,0.000251076533868511,0.000545833090620623
0.0076336087954932,-0.00640090429893766,-0.0071231510521024,0.000882877670985299
0.0134885583930089,-0.0116788996217858,-0.0109182982532433,0.000857565959640107
-0.00587181265035442,-0.0132313575185299,-0.014331796526169,0.000616383223401839
-0.0299939442829217,-0.0169391158353262,-0.0151306940749516,0.000474080162491303
-0.0459928842212439,-0.0187969993076833,-0.0122795125621459,0.000320907196656164
-0.0613721322305214,-0.0202153092463033,-0.00675162002695424,3.14400718180328e-05
-0.0712701869957511,-0.0239161028976814,-0.00241186758268304,-0.000354057562436165
-0.0680888596884439,-0.0253824298909838,-0.00149648863924562,-0.00063348756730847
-0.0503307829707217,-0.0272332315265633,0.000989246187912463,-0.000664709749535596
-0.0236103075231083,-0.0321722167096066,0.00824467629395031,-0.000605569107216429
0.00505030957018651,-0.0329214829318201,0.0154708005906321,-0.000420260501898194
0.0197350182881871,-0.030542312706794,0.0191066242095723,-0.000277727278178861
0.00693352518204515,-0.0181312460157561,0.0189765171715994,-0.000757273725441281
-0.00674177404017554,0.0136844726821541,0.0143180971985851,-0.00165177169883562
0.000972299931254805,0.0447032633665594,0.00879156260110144,-0.00230379009037232
0.00973697631992557,0.0470491450532221,0.00457656054982855,-0.00244927173650207
0.0061631799144852,0.0282994356616406,0.000531928384753108,-0.00195343311999919
0.0107684385856101,0.0125663933487093,-0.000796355225784019,-0.000902141781832977
0.0262826394791387,0.00262132417989199,0.00214493980130014,0.000402719856701904
0.0227363454701719,-0.00413181963601241,0.00422285505578082,0.0016648498899267
-0.000992236963620149,-0.00694148308601736,0.00166541488618937,0.00268190884638562
-0.0187475111443947,-0.0111108236394479,-0.00133310966887421,0.00329877254771654
-0.0207352080110445,-0.0220936566891154,-0.00160649218836073,0.00305602094117126
-0.0134394534279816,-0.0308296491566165,-0.000485806377918495,0.00181809545937153
-0.00461529177504845,-0.027083676682936,-0.00132695659922087,0.000349706245805301
-0.00184795199517529,-0.0190438719366181,-0.00502132594158545,-0.000592032005501283
-0.00958191942914531,-0.0134495290114871,-0.00652045438315632,-0.00110503752869276
-0.0141924184708968,-0.00878399555833309,-0.00490142337503113,-0.00178880933878269
-0.00489399395730256,-0.00755058189127493,-0.00433479914468652,-0.00261287790525578
0.00808439075549773,-0.00869866815457909,-0.00634731614005381,-0.00281100098635278
0.00942606037201988,-0.00700283844253116,-0.00849758648209784,-0.0022486614145402
-0.00490544075601701,-0.000687084673034823,-0.0071218471219689,-0.00176322331599722
-0.01372290237584,0.00664461826409326,-0.00538415690782544,-0.00188503843397791
0.00315826896674401,0.00851043905812683,-0.00669950128363507,-0.00215464043048302
0.0350597909782694,0.0045823020408729,-0.00784744288290061,-0.00172488514063512
0.0561871000862992,-0.00135330136699856,-0.00584477144876254,-0.000371606147745105
0.0563052037016475,-0.00921898736063801,-0.00252623376799575,0.00143979837688084
0.0534865936974372,-0.0127732974465186,-0.000701283199016627,0.00307961556240099
0.0653630766193966,0.00484625886189194,0.00295547236308566,0.00381277140319277
0.0733259285718404,0.039743539256767,0.00972701483115791,0.00315650666357538
0.0483995924102504,0.0548048820152194,0.0128381384302322,0.00140517886076791
0.000185871732751003,0.0291215843076606,0.00814195588394495,-0.000397182524361089
-0.037673096432367,-0.00663679132419203,0.000592698089919632,-0.00117509515516642
-0.0545963939233016,-0.0189405701434997,-0.00322995290531985,-0.000912805551337983
-0.0556674737756838,-0.0129225940386192,-0.00421826353619714,-0.000457989742967993
-0.0427494115911258,-0.00309455265673361,-0.00405092416221129,-0.000369464077655473
-0.0259758330274725,0.0052239855663823,-0.00222882661259393,-0.000638191228893049
-0.0140391367564845,0.00697810740206595,-0.000887508080047872,-0.00111799947508928
-0.0052049930258971,0.000990755122420826,-0.00213433363969648,-0.00168714625483908
0.00208310480865585,-0.00580959870947454,-0.00515474767391838,-0.00210549729468593
0.00953245989851406,-0.00735033892328096,-0.00478682991575915,-0.00217485756590419
0.0180336947164444,-0.00240351264217955,-0.00143459091638303,-0.00191962123478254
0.0170020026818912,0.00588871071220194,-0.000798955958745786,-0.00144274828031905
-0.000362515506768798,0.0108100064931221,-0.00206816332085392,-0.000797128535228596
-0.0184888237834192,0.00888604519516231,-0.0024080725312244,7.10931548086845e-05
-0.0201518315934575,0.00442183538772567,-0.00204695184747106,0.00112215727102507
-0.0013053347940736,0.00491799359411459,-0.000807107365602877,0.00198210458241358
0.0276437790313449,0.013015294680488,0.00428389880751701,0.00244018365813686
0.0429321424234966,0.023357815979223,0.013024894303491,0.00254771190115099
0.0345654181073656,0.0254733612240142,0.0195311878238846,0.00225179440062593
0.0155728290162698,0.0156430647686648,0.0201174353771258,0.00163530253296111
-0.000404949060482516,0.00641083948876518,0.0192769732210396,0.00119386087598408
-0.00937808327151284,0.00778411123631162,0.0183515446084751,0.00131760707330323
-0.00765819207953633,0.0141682654781827,0.0132293389644767,0.00151876735845787
0.00321605498222562,0.0193173002957834,0.00703489378822956,0.00114690344903073
0.00899176653647289,0.020335570094666,0.00415685047372724,0.000207974041957862
0.00389528449891644,0.0161589797271486,0.00357954203865163,-0.000924938820508263
-0.00613238322908102,0.00911942146809469,0.00199232195625563,-0.00195615466077067
-0.0153952782601917,0.00215411928853859,-0.000779703986839259,-0.00278907984139566
-0.0184873110440909,-0.00564822534065871,-0.00234366287729797,-0.00326388394489762
-0.0173913256991576,-0.0157404439792204,-0.003540513257952,-0.00322635479921215
-0.0178547359718177,-0.0206761309512217,-0.00609611343100221,-0.00272895717529652
-0.0197336090408444,-0.015719093393666,-0.00867994832914772,-0.00182059163041991
-0.0263225579841162,-0.00843420983493473,-0.00960773695869275,-0.000346255589909279
-0.0350862471672318,-0.00381658008585706,-0.00927215404122166,0.00133541206320134
-0.0335912932194572,0.00227631811610056,-0.0076137423615143,0.00248705305385122
-0.0214180960284486,0.00949755173679206,-0.00525737302131293,0.00324006626655921
-0.00901657725079796,0.0111645653932446,-0.00302842405911022,0.0038680771331248
-0.00329018937476664,0.0114091698005375,-0.00173094822830559,0.00398482298719315
-0.00211032775734099,0.0211174503645717,-0.00114550295380881,0.00332589856419517
0.000710700913757786,0.0307567513393339,0.000588887530930445,0.00194227969823004
0.0241033149033672,0.0224374315020836,0.00529907668157102,0.000193870560507245
0.0648574034196222,0.00487848975723464,0.0106326141030634,-0.00109558028955093
0.0710285779578241,-0.00334107513130939,0.0069803930253208,-0.00146347994122667
0.0310282941176943,-0.00196164738522241,-0.00412696649509043,-0.000948230268079789
0.00480882676599536,0.00233119426118759,-0.00828125667509325,0.00012421770820371
0.0322399285829932,0.00565052648351101,-0.00330939195400598,0.000897643345088454
0.0660975446904141,0.00282199997387758,-0.000652933910583454,0.000873821934680466
0.0531341347340067,-0.00542500406908582,-0.00234481815176627,0.00015000422473489
0.013383455851489,-0.0156927808745123,-0.00377646909033927,-0.000900436543036952
-0.0296980238622443,-0.0292307441796904,-0.00681135741529905,-0.00180914011241659
-0.0655569638989902,-0.0389071470617528,-0.0132659680750767,-0.00240257870680973
-0.0836721126136789,-0.033610537103186,-0.0220434934035118,-0.00256667103682293
-0.0829920540883383,-0.0215857919182012,-0.0255611835438524,-0.00241797870062133
-0.0499507872195345,-0.0161839143591962,-0.0178864152415887,-0.00221397612252034
0.00877316716506493,-0.0154287197984053,-0.00671358249289996,-0.00164108289427691
0.0527710175594715,-0.0180000682044265,-0.00339255791365737,-0.000408730722509876
0.0605978330634152,-0.0280537620055929,-0.010604916928495,0.00122774279095841
0.0521814560202186,-0.0362822577734013,-0.0193879163550256,0.0030551893552629
0.0498811017927939,-0.0187786147149187,-0.0207252126456079,0.00466015489608682
0.0466406733626666,0.0321948398545394,-0.016090453488269,0.00488605889406732
0.0217361376309277,0.0760065088798798,-0.00994923858889247,0.00289827539884643
-0.0230530378794101,0.0646653207313952,-0.00366592633369584,-0.000461995267571199
-0.0439984667292604,0.0168804689402462,0.00210798511590465,-0.00320571293792319
-0.015967957953532,-0.0146476337158718,0.00382109129449631,-0.00394624631982622
0.0190545156169324,-0.0138914876185065,8.7299763832531e-05,-0.00266094186830158
0.0150219203230164,-0.0044727571641648,-0.0035736180518572,-0.000521963748011143
-0.0119896433640482,-0.0116397855224405,-0.00520979399325965,0.000538284633252292
-0.015962953972016,-0.0287399617516335,-0.00648682923628088,-0.000309766209732443
0.00727776296510913,-0.0336366224742646,-0.00532398423736956,-0.00178564564986672
0.0204967176491604,-0.0192263666841266,-0.0019769637393735,-0.0025442403798257
0.00212838126386649,0.0047336939152398,0.000358390798621511,-0.00278866792570324
-0.0217269565019542,0.0218031644233836,1.18239367729693e-05,-0.00314984925048061
-0.0179695595495187,0.0233826548637197,-0.00151965927637386,-0.00310970827443253
0.00626355132060121,0.0126388587379295,-0.00184933905919202,-0.00174857811628154
0.0236991084877278,-0.00289200085693849,-0.00203201160353296,0.000455599283477901
0.0262749367723459,-0.0123169663562706,-0.00307069819020273,0.00212162477352901
0.0213237351154425,-0.00555344093073063,-0.00127085003585702,0.00256343401543653
0.0166742199440556,0.00922490198039125,0.00293826621505878,0.00195874351084319
0.0138366431317383,0.0136934903020668,0.00390961845031136,0.000872858238937611
0.0072927392919007,0.00780850034898264,0.00295114468166864,5.96297798906363e-05
-0.00269799695605197,0.00353418531802423,0.00518336822953481,-0.000171957922769327
-0.0140405764436381,0.00643419924804037,0.00933825705099936,-0.000272154109856892
-0.0220031491414844,0.0110434985856825,0.00965331045700829,-0.000400795867266785
-0.0200524852921866,0.0107680680832734,0.00679059661862684,-0.000243830883600361
-0.0114061534659109,0.00980061983620853,0.00506912978070631,9.43161876230565e-05
-0.00339065033026183,0.0101107151066346,0.00387361412511325,0.000202949121882808
-0.000782575485489807,0.00913980471506702,0.00269494434479182,4.80870964097817e-05
-0.000429507570159223,0.00870737645532684,0.0019095667759767,-9.73097093523686e-05
0.00788250728980615,0.00605408515119394,0.000761740942686697,-5.92573513324075e-05
0.0188413935955652,0.00279238335093055,0.00102321846815333,9.05294515968866e-05
0.0171451629656964,0.00837957390577881,0.00394534982031968,-0.000109467866571135
0.00333865173388949,0.0165876295442812,0.00581762209212021,-0.000679755443900983
-0.0144199345654624,0.0142820301352709,0.00375668695226462,-0.00115948308337577
-0.0255631739720243,0.00549805819560654,0.00126776971411646,-0.00147444536335375
-0.021747699846054,-9.83801828919593e-05,-0.000476805414765945,-0.00140101409024186
-0.0139284158187018,-0.00259572215650211,-0.00257985314618179,-0.000455218910151391
-0.0151216435975938,-0.00480326577816719,-0.00426990741124677,0.00132855622806243
-0.0197399410391708,-0.00611883418494504,-0.00520527041650027,0.00321680218835396
-0.0208867656392862,-0.00729675817506328,-0.00375409536902651,0.00435007637596295
-0.0180901639129984,-0.00578271744823455,0.000513063458821636,0.00430347992176581
-0.00486527789662902,0.0033149050555192,0.00510588438375289,0.00342730500666339
0.0153586929783286,0.0115723695012339,0.00607187941343211,0.00237677748820124
0.0248573370736944,0.00692438706215745,0.00201604563095862,0.00133093770890154
0.0205085593464516,-0.00523252936150185,-0.00510150983117809,0.000537394619707521
0.01109102209622,-0.0102524642696797,-0.0104467470963749,0.000507158570729938
0.00301662833706888,0.00485716301689093,-0.00373395534402801,0.000989454179649583
-0.000823869759452674,0.0316307458017277,0.0146879862970188,0.000654364518399222
-0.00330411963263746,0.0355088407313894,0.0262414527038852,-0.00116420035906557
-0.00577410111874989,0.0134156803573202,0.0224906936738086,-0.00319097747021038
-0.00544329515524577,-0.00588554307919304,0.0136024936415655,-0.00386836011706235
-0.00378956847523335,-0.0155458512811853,0.00670100285727765,-0.0031194362536814
-0.0102733005499382,-0.0227564644912495,-7.71650674264157e-05,-0.00178964356077024
-0.0253380029502888,-0.0276925857849327,-0.00603912666055762,-0.000457020646798992
-0.0325492107449376,-0.0301438424972366,-0.0110280458095482,0.000884027056498698
-0.0341090520028112,-0.0281864852193888,-0.0188623049307123,0.00246849024537816
-0.0518350354684081,-0.0203022259457539,-0.0237549332076956,0.00408796553570512
-0.0742579205590018,-0.0148787865797113,-0.0182689555056842,0.00504497759955218
-0.0609602675600534,-0.0201168098614327,-0.0121990035895429,0.00483501761743097
-0.0125580602207206,-0.0251946120980604,-0.00974575494468329,0.00378941638470493
0.0220979990551279,-0.0132472906190721,-0.00255637818893515,0.00225636021610038
0.0208749564145248,0.00191947532754743,0.00321273369487539,-0.000177717155541457
0.0160566487148693,0.00172337555434606,0.000578210493638964,-0.00280912685674942
0.0307430808894887,0.000659699206903609,-0.00384136339152928,-0.00395428030688922
0.0428266382167557,0.00641439268340641,-0.00247202182598326,-0.0033004619627253
0.0321813735086356,0.00608735593884061,0.00649175498235541,-0.0016029898003654
0.0136739308433967,0.00567615452447043,0.0148619901259316,0.000118628572824464
0.00697063081892971,0.0181848220705702,0.0150468471720709,0.0010269721503515
0.01210043596331,0.0277385949532093,0.0113463307671591,0.000823905014783947
0.0171324284283288,0.015072191535777,0.00824042687612463,-0.000162343317595308
-0.00182709811597991,-0.00683967424867322,0.00436791677377996,-0.0010684742778644
-0.0435712534280284,-0.0170461180883541,-0.000418540041134639,-0.00160232397109018
-0.0657274481862884,-0.0157334646510273,-0.00201776884549352,-0.00187025255562574
-0.0593985916090189,-0.0142861163521761,-0.00194826979624455,-0.00172646843580813
-0.052343316608102,-0.0171577584375512,-0.00467378108579045,-0.00123703224159564
-0.0435700589438937,-0.0206587600769387,-0.00783046944152754,-0.000415657111637873
-0.0218757787426207,-0.0217678355449471,-0.00767510154407307,0.000595776163301635
0.00271975149075113,-0.0199053356902616,-0.00500874364203504,0.00142867217851457
0.0221066022149743,-0.01426142510789,-0.00171122102865879,0.00204776265483135
0.0361308475702617,-0.0051404793964916,0.003293072621155,0.0021427420791015
0.0341417160048493,0.00773464865125127,0.00775856989229699,0.0013294112676149
0.0157078463950763,0.0200379455981114,0.00847236950910335,7.49771888063125e-05
-0.00145571844629983,0.0227029791206076,0.00699999299003598,-0.000882435933654315
-0.010764124928944,0.0182615267870649,0.00529781494390146,-0.00131188205618839
-0.00545510982152449,0.0123374540954108,0.00279382614464388,-0.00141300139163545
0.0193348819322267,0.0048622371046462,-0.00102592675432497,-0.00137201460797413
0.0392286478792562,-0.000987107016906193,-0.00319071364374638,-0.00111523687460238
0.0293090413738002,-0.00193563702893645,-0.00237970878765144,-0.000906729625935505
0.00234557316113988,0.000719802296010969,-0.0015331692652014,-0.00133403079211111
-0.0200374040883079,0.0030634520597517,-0.00160282131861792,-0.00225720354112134
-0.0361058942776011,0.00390624418291547,-0.00105289573815896,-0.00275920864613084
-0.0461418825991378,0.00421900693860918,0.00105597967876575,-0.00226718332504806
-0.0432439309756426,0.00281680191900084,0.00248318852209915,-0.0010165640107528
-0.0266690582466034,0.000832164085669246,0.00297791439965419,0.000501347858102535
-0.00466902181122202,-0.000207493532202906,0.00383768498185496,0.00175637963331681
0.0176643817797707,-0.00153268099133953,0.00472249618536161,0.00228042109015917
0.039154218089098,0.000475598967105534,0.00574832553317136,0.00203756770054856
0.0465546929350831,0.00679977264726206,0.00578307308996727,0.00141669535555136
0.0262535572835203,0.00762466454560691,0.00365262460284496,0.000847058246683975
-2.85383083425614e-05,0.0072560833148894,0.00162289124218165,0.000532095902738661
-0.00250529304534925,0.0170260672003754,0.00268596320987954,0.000293494411834632
0.0102228658773076,0.0270363519287088,0.00246240339355743,-7.51696542252375e-05
0.0165460789828737,0.02739282002499,-0.00158143079488414,-0.000360414362056491
0.0188464078822213,0.0209822185738945,-0.00398557100816732,-0.000212260053161613
0.0344788366212971,0.0147765758331329,-0.0017049243340067,0.000183267487913696
0.0569766162209451,0.00923241328804403,0.00272219445349982,0.000148482434790375
0.0541567367222194,-0.00369840636779075,0.00358514630894826,-0.00063611130767371
0.0197872658191085,-0.0241824996363135,0.000937962573983643,-0.00193779286022391
-0.00687216270298203,-0.0370183597231694,0.00176678838863759,-0.00319672439561634
-0.0039684664167349,-0.027185353235562,0.0064863481615191,-0.00378970514831255
-0.0035588948343616,-0.00607662937415077,0.00810651141941943,-0.00342858021010834
-0.0192806650263894,0.00343806691034994,0.00575330426533582,-0.00214956023727336
-0.0284233993989335,0.0023357610976948,0.00628181585260891,-0.000271817801257028
-0.0173682166285505,0.0123956163122095,0.0135811266021285,0.00125107898949401
0.00959485332154532,0.0356800672200148,0.0213991562676481,0.0012696620651019
0.0350397796583603,0.0429728702894108,0.0190279892192539,9.79363204234746e-05
0.0459417118813358,0.0270780754149561,0.00828701393573637,-0.000461119200045357
0.044806637331215,0.00982357158207502,0.00140090815046515,0.000304712532458865
0.0469896189052394,-0.00180429949316801,-0.000428852738958175,0.00141219382306671
0.059275652824746,-0.00884591352679466,-0.00577604443895474,0.00217769572806617
0.0652293239984294,-0.00792011181221982,-0.0133081753559039,0.00296068267120381
0.0459700378124027,-0.0046626873703701,-0.0140644786597117,0.00395954751381095
0.0132545582958198,-0.00247611407016332,-0.0085296849090362,0.00411817431368444
0.00300269661204025,-0.00438819488411025,-0.00478634049116714,0.00249427006027521
0.0116010620163288,-0.0168310717040102,-0.00632460290381284,-1.15743118387348e-05
0.0011397289654866,-0.027760254513428,-0.00997159842014711,-0.0015750459546509
-0.0268971211785389,-0.0258252289272719,-0.0115821012246459,-0.00162754594602777
-0.0403040156549155,-0.0195018048422365,-0.0100563093958819,-0.0012815189543593
-0.0220550848108543,-0.0147094646574295,-0.00637736504397518,-0.00163529634761212
0.0143808358003766,-0.0114945487527735,-0.00399022751550308,-0.00243370844481754
0.0397899175635804,-0.00884125170345006,-0.00124805176522158,-0.00278074804504823
0.0418579405854085,-0.00163496533818551,0.00508552366443862,-0.00262462322166636
0.0338525040247576,0.00308368514840414,0.0101504949428582,-0.00245190180005277
0.0308435969273061,-3.44725652322193e-05,0.0120578858231521,-0.00230432379228074
0.0281957894898714,0.00299380204962362,0.0124427901290871,-0.00187961221173924
0.0161134939630871,0.0180196138062422,0.0128110906498453,-0.000823039097663076
-0.00103287566409574,0.0324244500493584,0.0170776545410917,0.000777703985343099
-0.0056466607377192,0.0273671083818322,0.0239000840185948,0.00201608552887995
0.00779146312067685,0.000262014828593962,0.0244156333229571,0.00228980190253317
0.0177693097058889,-0.0255051426938474,0.0139222401286741,0.00214789740375633
0.0140719728630323,-0.031009398434902,-0.000248271809065566,0.00243680784918865
0.012944900029924,-0.0229756625511953,-0.00910249112186762,0.00319291286713763
0.00901021828503313,-0.021170761545353,-0.0112997098389281,0.00364390380373245
-0.0111384762497014,-0.0316889571627248,-0.00963075815154888,0.00318083111852141
-0.0320019036196545,-0.0371032538021445,-0.00843882112090149,0.00192752238958421
-0.0451477288630357,-0.0277093500345501,-0.0121715240122867,0.000391183274313725
-0.0555697143245089,-0.0153655047158587,-0.0206773610717862,-0.00095267481296839
-0.0609095964629546,-0.00904932480455762,-0.0264054095863572,-0.00186436017977092
-0.058417116776847,-0.00762806000604504,-0.0242358774660312,-0.00248741185993606
-0.0434220459107852,0.00300567089730377,-0.0155431282657128,-0.00275659952460635
-0.0166699721771339,0.0312037042128206,-0.0052970216236626,-0.00272706570710115
0.0181480793307824,0.0508069221267048,-0.00108342534665581,-0.00280744758579667
0.0541695548041412,0.0381105531475843,-0.00353636861594199,-0.00291138028899006
0.0570637454926425,0.00689680530539202,-0.00763900929261407,-0.00274116105664393
0.0151374981754818,-0.0209086756518654,-0.00868767544957929,-0.00203988041148381
-0.0252925493502561,-0.0354600734823233,-0.00263899322676491,-0.000713159542529279
-0.0448462413804274,-0.0365888369233964,0.00600798325716629,0.000908818070174812
-0.0582552980994285,-0.0275560412976642,0.00866192641069399,0.00216601469510296
-0.0543818201825308,-0.0115576828313507,0.00634523785702926,0.00258455782722049
-0.0343783828330761,0.000303282290253958,0.00380631426333736,0.00249768835972806
-0.0187567551834339,0.00380111754590171,0.00140372014486015,0.00250301366780921
-0.00797217045831993,0.00805755175049624,0.000902704525021214,0.00273044349356845
-5.85661388554613e-05,0.0148550252980801,0.00250604828660567,0.00266046544174544
0.000622840749024956,0.0185348612367276,0.00317782769080043,0.00192332478599089
0.000892903513928349,0.0178593978300318,0.00216274294677541,0.000891831264408591
0.00134243447320209,0.0122218145680544,-0.000780734181382138,-0.000136058804426879
-0.00498551335720192,0.00134412001019007,-0.00378425652471734,-0.00111476258300674
-0.0095006280816313,-0.0100905258391044,-0.0061038642503181,-0.00200920972178493
-0.00443525205044935,-0.0136568400409012,-0.00822801991257461,-0.00259685170380653
0.00574764885682903,-0.00132903049100493,-0.0107701739405361,-0.00261478461653572
0.0112222107528105,0.0176953242655378,-0.0157092487771143,-0.00237302853965104
0.00436329165810123,0.0226242093475783,-0.0202528574163989,-0.00222799408650727
-0.00923141407210234,0.011424595044698,-0.0230722331778898,-0.00189503207026361
-0.019759341625838,-0.00342310039033001,-0.025404274952577,-0.00111958254499334
-0.0254051799675485,-0.0133188669986751,-0.0241142407845686,4.80521370820812e-05
-0.0290379207499387,-0.016431135291946,-0.0183322222046368,0.00131959656029342
-0.0277473258645629,-0.0172825405474984,-0.0106765887896938,0.00209396457236696
-0.0139621066725977,-0.0159763194620018,-0.00425153558962508,0.0020812496842655
0.0073800378425541,-0.00977209935108564,-0.00244227386330402,0.00159821626773422
0.0212147105494797,-0.0033256785958271,-0.00304942468637029,0.00128549963774703
0.0213904075298714,0.00204367589946102,-0.00170228411776928,0.00133616996792103
0.0153761931209737,0.0104722102813949,-0.000360237862808002,0.00127215017249025
0.0102262035703432,0.0163953317890517,-0.00223333864322909,0.000916651866208942
0.00794624830077223,0.00750486612122129,-0.00616115494015478,0.000723424149808204
0.0119416131651708,-0.00906437164502141,-0.00828014785208806,0.00111405597216072
0.0145583175255664,-0.0133322342936372,-0.0040645745908484,0.00184420062944009
0.00304931898329961,-0.00582795470475775,0.00360856258297451,0.00188278743255526
-0.0191950891563849,-0.00139768358490915,0.00564340146373909,0.000473107017910773
-0.0367094699292073,-0.00578495377215821,0.00217019946545314,-0.00172592371819661
-0.0402787849792031,-0.0117810538662131,-0.00143720474582911,-0.0032014194258558
-0.0369902137825644,-0.00827277095731388,-0.00398599157982118,-0.00308316107913148
-0.0358510011173493,0.00555234638510197,-0.00473926550990258,-0.00180136208379562
-0.0350373695867776,0.0177776758902013,-0.00400707935871545,-0.000471212888744767
-0.0278871435396092,0.0186328283176871,-0.00209671663100736,9.45536683593915e-05
-0.0159105246664946,0.010700057502563,0.000315029313545266,8.98044862429421e-05
0.00133257312684235,-0.00271871142984923,0.0010323359942413,0.000398171322215253
0.0288444337613647,-0.0161252400021911,0.000922103729869121,0.00128193273798618
0.0473076695676031,-0.0190183556612512,0.000333623581375716,0.00218217966985022
0.0345904922674275,-0.0169335098882648,-0.00279228472630946,0.0026350722185318
0.00923696765369196,-0.0187417974293746,-0.00699979947988387,0.00255479787551108
-0.00294910827482614,-0.0162922516642316,-0.00978082021029781,0.00195448618963012
-0.00527616180703687,-0.00837624288901607,-0.0112444469804056,0.0010407456167812
0.000365486875965429,-0.00649292675743565,-0.0107373375543431,0.000298476980713975
0.0112891964016104,-0.00688442897671845,-0.0071034778954846,1.3900437774138e-05
0.0102527625103297,0.00181086297816105,-0.00131479184816285,0.000122758305843634
-0.00643509325558392,0.0135885798238685,0.00309561395609408,0.000179077785508314
-0.0296896250077178,0.0152397646783356,0.0043488646415092,-0.000384578183963002
-0.0475821630708295,0.0104830528874112,0.00644893884131756,-0.0014011603507511
-0.0474175013811583,0.0131130564736656,0.009845799424507,-0.00204349989813551
-0.0336306832092558,0.0213688896582137,0.0100498104792967,-0.00206237986163161
-0.0198009538940207,0.0291549217057459,0.010299885476272,-0.0020269933716407
-0.00427501638090752,0.0390004474400688,0.0156169606189598,-0.00209242737388102
0.00982006560015369,0.0404655026758327,0.0206339083555387,-0.00209115085020317
0.0103149085314518,0.0249490869565432,0.01769803252103,-0.00193803659266134
0.00574932819783493,0.00850459830400509,0.00847328907553551,-0.00120247131317275
0.0156520257398499,0.00127377505645018,0.000468312728457227,0.000321543958024244
0.0401521538063998,-0.00586284466344803,-0.0027672796857996,0.00217319702036646
0.0573975233213997,-0.0138727816755941,-0.00296367937593974,0.00350784000240301
0.043205486083185,-0.0156815813449,-0.0020296018100533,0.0039007202521589
-0.00778884588920011,-0.0130495210324556,-0.000851220477130938,0.00365757523872847
-0.0575627432786004,-0.00800887465498992,0.000315494400407073,0.00290828949067643
-0.0678698280853722,0.00134583671725827,0.00113545730839223,0.0015675166637783
-0.0542002654619069,0.0152358443518567,0.00190440741544217,0.000157877611079675
-0.0324523797211519,0.0302249757430309,0.00600843287668553,-0.000691703175519102
-0.00549177013654045,0.0337307629153022,0.0124071496118171,-0.00113827036903066
0.00263611645116418,0.0216786105228907,0.0156057421649159,-0.00143368808763454
-0.0087476415791,0.0114850561210085,0.0144902161951004,-0.00167552814483272
-0.00836999166008284,0.0119938536210213,0.00878041891312017,-0.00217361187527671
0.0159939743144154,0.0141212136199696,0.00101622116547717,-0.00279832126299191
0.0609851480414051,0.0123207400426554,-0.00327803255667167,-0.00291292597607487
0.102722075207186,0.00963401965945702,-0.00351600884327182,-0.00213746875023099
0.1040739680982,0.00907936292327275,0.000841351034228785,-0.000985176550816525
0.0717101741988878,0.00833964012618741,0.00961236910303838,-0.000185357966991394
0.0380259122382166,0.00384760261991058,0.0186269651117739,0.000209236448316743
0.0103678730957647,-0.00268338001657427,0.0233099427121016,0.000292372703322985
-0.017060719308411,-0.00732947800792071,0.0213069176413369,0.000214271271221022
-0.0367534313058454,-0.0091877266900635,0.0166103368829621,0.00016077374350972
-0.042093774165778,-0.0104843737893796,0.013131500651797,0.000193732826629046
-0.0393881699263631,-0.0128384092890626,0.00998923401345872,0.000355028341669704
-0.0377239447995141,-0.015530343538162,0.00690739353755091,0.00045032534510635
-0.0372748528118283,-0.0119319329259153,0.0027923402194421,0.000484039726841981
-0.0269612335303136,0.00797064827757796,-0.00106878189280557,0.000746116436034483
-0.00782448581499005,0.0344605890063054,-0.00216074964612698,0.000876829515896276
0.00465943492846468,0.042727325959505,-0.00238848653181341,0.000199949849968237
0.010222953941583,0.0283751152509426,-0.00270053630084991,-0.000924939919591044
0.0247434212146625,0.00952691187540448,-0.0027984750289818,-0.00139641540332135
0.0424655158623133,-0.00149083726688289,-0.00230050546123614,-0.00111286598362538
0.0398970288298746,-0.0119568192371556,-0.00263324182201068,-0.000949813108774614
0.0182276279558744,-0.0281856785219399,-0.00459782386159827,-0.00117069707957382
-0.00412503805060826,-0.0401167365641771,-0.00364191648358483,-0.00142058111431522
-0.0198173956628344,-0.0391381137615116,0.00265463994335989,-0.00148367227296564
-0.027833537067938,-0.0308449434738064,0.00845143627528033,-0.00136119689618462
-0.0226643921295919,-0.0213740322322808,0.00855605310646359,-0.00104093552687344
0.00045225432993155,-0.00668518969130406,0.00722518154373586,-0.000481532245448538
0.0352487724662599,0.0139173498760374,0.00898577080374596,-5.977621239683e-05
0.0576588774055173,0.0271083876100551,0.0109027882096564,-1.16562832509646e-05
0.0507739255761779,0.0223768780116996,0.0107775205350386,0.000194317259367905
0.0289914577670213,0.00881360605374928,0.0114616544702457,0.000743477823098736
0.00808279247897375,-0.00238991561031778,0.0119367377702034,0.00117451722984546
-0.0100366275663522,-0.0106428611861552,0.00924120290461812,0.00123021811017637
-0.0175285525611149,-0.0129212716873877,0.00526005802457771,0.00088518318827724
-0.0102789032567515,-0.00819933126826822,0.000693224378782385,0.000342954487793144
0.000805176122035925,-0.00461237161741685,-0.00521058326882017,-9.5915056148012e-05
0.00676893569454857,-0.00599234942823963,-0.0113906480196051,-0.000221318970665516
0.00605719595644548,-0.00898576762679398,-0.0153641376118835,0.000117019568457959
-0.00377936530910726,-0.0112166864668767,-0.0149668230435384,0.000803443346614262
-0.0196438416745156,-0.0119955141131956,-0.0150032388593861,0.00117114755717733
-0.0309046428482669,-0.0120751940018965,-0.0205756090733458,0.000705866221150507
-0.0392933026747093,-0.0164565245327235,-0.0250551579939247,6.10348721867796e-05
-0.052768755688205,-0.0244921001724438,-0.0194537743175597,-0.000226150579930092
-0.0630758773981725,-0.0239093231800059,-0.00872734872979201,-0.00063345419612185
-0.0540490161014534,-0.0102265516384928,-0.00366348266412597,-0.00123275598175383
-0.0279835975176972,0.0110668992974421,-0.0019939566411998,-0.00135367922645744
-0.00148682363309484,0.0306753369580944,0.0030408330841197,-0.000987352707864952
0.0192947766853047,0.0376624544157039,0.0108300215879723,-0.000909196781355704
0.0363048309600878,0.0348679765038969,0.0155465494614753,-0.0014257760259119
0.0470198643167953,0.023388200682509,0.0117937021868271,-0.00183808186995295
0.0504494285738124,0.00276647810902643,0.00256861871806489,-0.0010476061554283
0.0562417782025824,-0.00520675812585279,-0.00305102178695994,0.00112400493310131
0.0600985579108233,0.00610452035273258,-0.00158213943763744,0.00334531267641277
0.0413439540985411,0.012962472268148,0.000775554705011115,0.00406443644544361
0.0139692009645899,0.00515329805899853,-5.26573816675181e-05,0.00315125590233949
0.00623842632443156,-0.0063832415870364,-0.000905775134328242,0.00172762976766941
0.00390264363571678,-0.013602731128726,-0.00171545457249828,0.000777551094962667
-0.00974545251828949,-0.015876913105037,-0.00372164514780417,0.000498413187865898
-0.0254929006483877,-0.0115575449847988,-0.00539641072382922,0.000550859814126301
-0.0381737379962707,0.00190438158638279,-0.00541950450052784,0.000264027564301087
-0.0466319754900358,0.0161844991966321,-0.00437336095693873,-0.000672659883687935
-0.0466038191205057,0.0174341404218561,-0.0052228385232673,-0.00163309970732477
-0.0323411979128825,0.00773698037627328,-0.007782783602179,-0.00189418989336763
-0.00924937020039038,-0.003155673966903,-0.00598869074898252,-0.00149990766084858
0.0023776130079716,-0.0130679001767741,0.00319390214053515,-0.000769932277133013
0.00068856654891333,-0.0181541629396119,0.0139809630043192,5.7725373259728e-05
-0.000635967047132794,-0.0161960093022977,0.0211700488508764,0.00034289737920684
0.001108242320399,-0.0178591633633229,0.0219593615923247,-0.000204580697284666
-0.0106619721844865,-0.0256554705265424,0.015417670010329,-0.000600918197598287
-0.0338584668796091,-0.0260097103449677,0.00617486589242885,-0.000230838520875175
-0.026881053240989,-0.0137842667143354,0.00112064434678906,0.000223973510377516
0.0179298368443784,0.0126165941403407,0.00201099954586494,0.000312055539420238
0.0610892354438023,0.0534875774157103,0.00500398257791812,0.000190913818251071
0.0719268294789379,0.0758448071325353,0.00452762460618538,0.000218849363311464
0.0521477224295765,0.0556801933582253,-0.00258574910618383,0.000521495740864065
0.0229895220498754,0.0226525053233532,-0.011524323785418,0.000754899511892246
-0.00831278359826376,0.0024115062974147,-0.0189521241746074,0.000908233133457736
-0.0374679462701075,-0.0065823812076181,-0.0235563983839214,0.00129611628663781
-0.0467472744585856,-0.00783161736157056,-0.0224330214314998,0.00172434368386357
-0.0394618446459998,-0.00711837204153308,-0.0156324973608876,0.00156621271151664
-0.0310500141514395,-0.00712284460288161,-0.00473870985453655,0.000542078188013758
-0.0220415233896422,-0.00608102794884071,0.00798050941896278,-0.000927994787565749
-0.00764584235943261,-0.00084590223387913,0.0202872772153789,-0.00204611771435303
0.00536965988394464,0.0152751841722098,0.0272587423402224,-0.00234582717522512
-0.00365969630540713,0.025290361964163,0.0240113584201867,-0.00201224673761881
-0.0266158686572559,0.00780145501749861,0.0147566004568431,-0.00149744409361065
-0.0389551767214272,-0.0168642143514642,0.00800497697450205,-0.00108120488381025
-0.0475348570953061,-0.0232236238579152,0.00295396740969834,-0.00061705104571632
-0.0525622235143401,-0.020078551649755,-0.00350048331316445,-7.96125868725924e-05
-0.0387311851881156,-0.0100642128331622,-0.00556288999666356,0.00016143117635454
-0.0137424187449576,0.0101675676808494,-0.00275711823030749,6.27777619725154e-05
0.0205685574195606,0.015320257805453,-0.00433897758952274,-9.64401323814403e-05
0.062168828009741,0.00544252410686901,-0.00917041245368186,0.000282389092129984
0.0756658237202224,0.00347917093644337,-0.0112872199462416,0.00180923058328154
0.0517761720055665,0.00560469687434288,-0.0126564693826187,0.0041118693820274
0.0236560332237113,0.00444369090085703,-0.012925015507099,0.00604516893012266
-0.000325042189499358,0.00589953693429544,-0.010946547946307,0.00681223948317239
-0.034717015662367,0.0158628190840424,-0.00832815332264266,0.00630946600564174
-0.0667462903880477,0.0281673334738295,-0.0041805406195071,0.00442876663642753
-0.0703226164097909,0.0320334414484011,0.000551279376985056,0.000984400366108429
-0.0384399112285469,0.0222930113538856,0.00273839403648751,-0.00311431217333859
-0.000877556467553334,0.00235248048430585,0.00277834419006564,-0.00579211655978874
0.00349690200115149,-0.0144612840670742,0.00133245647308416,-0.00592612775024521
-0.00277030595643961,-0.0123392850284557,0.00155360395880074,-0.00429627848269452
0.0211935327757676,0.00610302177175978,0.00658408647285585,-0.00211335663410986
0.0633393822787072,0.0195589673721122,0.00867316385570733,-0.000257247364606196
0.074854538901991,0.0192127580484854,-0.000125548545057599,0.000885668876022045
0.030564357340237,0.0119389854655473,-0.0139203075255083,0.00155250346114612
-0.0219211943558456,0.0049126764169456,-0.0212479789517491,0.00188870912458892
-0.028148365768437,-0.000787865855914404,-0.0200655155200093,0.00184315944060383
-0.000782273672188302,-0.00748713867578788,-0.0149192631994893,0.00154992087830226
0.0183376463007359,-0.0133612199708606,-0.00710492825970745,0.0011526073460955
0.0254040606821009,-0.0116924705584257,0.00222371608301445,0.000741507671310175
0.0385553787335303,-0.0016476348777021,0.00948374053120868,0.000550336222313781
0.0380389114910109,0.00443460348914791,0.0138637493412449,0.000532652145878845
0.010233755203468,-0.00265713405753871,0.0172217304623096,0.000376230767380937
-0.00931412561354229,-0.0176034456648386,0.0183860136238674,2.61265836156039e-05
0.00220207117750603,-0.024258267757293,0.0199005321175027,-0.000270410507955051
0.0299458431493113,-0.0124722665957158,0.0237122700534234,-0.000506546902628155
0.050316095705623,0.00451253147080895,0.0246192815799282,-0.000891347827851162
0.0519504937015814,0.00852591283931823,0.0216820011990038,-0.00115565359611414
0.0446003910968562,0.00302541721457544,0.0175066701765529,-0.00095677827068425
0.0355268987809337,-0.000207023693357471,0.0136778116551526,-0.000577438669521134
0.0266860918993725,-0.00123668924593856,0.0106726329858705,-0.000601404645637875
0.0294403630306457,0.000818906886357947,0.0071646647817691,-0.00100698678621252
0.0438691888900886,0.0163488698787366,0.00348109474716544,-0.00130544404324326
0.0481183498681591,0.0387876270071764,0.0015618963020941,-0.00142230008450054
0.0358486378776749,0.041448020859823,-0.00158776876210099,-0.00186872674062271
0.0316397895207476,0.0216348666159627,-0.00844383682194271,-0.00268669417732833
0.0300234832015589,0.0035756194947026,-0.0132480526798186,-0.00274809753031799
-0.00329471409655628,-0.00638788386881326,-0.0108950222105678,-0.00126156926647533
-0.0504285064519021,-0.0190493567209616,-0.00619566533048828,0.000838885875962048
-0.0651028503641408,-0.0322485236871101,-0.00502470204633764,0.0021465093388253
-0.0560845745965338,-0.0403412031668686,-0.00571421398887032,0.00250523008267383
-0.05199377235492,-0.0442068784590307,-0.00333949711211172,0.00230895330299899
-0.0459758381864129,-0.0401288625642943,0.00304523691876753,0.00155173983436421
-0.0324814524645944,-0.027608847444151,0.0069998193137898,0.000467417304863322
-0.0189903384527957,-0.0183166302768016,0.00478772277403519,-0.000365760501124771
-0.00426226606600245,-0.0193858717195792,0.00021997246414877,-0.000674702455905246
0.0243314749178169,-0.0168657082394756,0.000806068516044299,-0.000712327263903389
0.0662222454512337,0.00259463706465106,0.00851372403415313,-0.00123182719681281
0.0821811457171014,0.0239497729195969,0.0134286816968386,-0.00270016737879195
0.0512188257151293,0.0301408369750294,0.00992654391667603,-0.00435138591982788
0.00441273006993827,0.0239662464843834,0.00287000619031888,-0.00500545593690216
-0.027511665526081,0.00957843013298637,-0.00158268063640326,-0.00429278726224252
-0.0318783507851589,-0.0066434961424173,-0.000267883409900794,-0.00265902513270274
-0.00662389170079553,-0.00742023967950827,0.00522599636291575,-0.000781484911690752
0.0324244546412324,0.00315706812650234,0.00956199004913539,0.000907744418571196
0.0508124785062416,-0.00172930073879951,0.00680835186616968,0.00235337838623357
0.0272294356150739,-0.0172594629921505,-0.00260869016506894,0.00341246965036347
-0.011065012639818,-0.0194139834176887,-0.00988135040279168,0.00359312417677528
-0.0254911502026674,-0.0120370858596645,-0.0117219565998197,0.00291781679396552
-0.0167146796500286,-0.00885051611804066,-0.0119555399233195,0.00204684068052473
-0.00724032400024358,-0.004748010191145,-0.00974373495733819,0.00153912513874789
-0.0142957041057602,0.00716394727598912,-0.00491691253821731,0.00150282230910274
-0.0310527051737127,0.0198091213133691,-0.000409134197170795,0.00153221168795913
-0.0300623331707466,0.0235822368275466,0.00159039225108865,0.00126642568657752
-0.00893164446471438,0.0158266851407923,0.000857586709839686,0.000816332431329263
0.00809047959592876,0.00449921836124142,0.0011018819505473,0.000440927045102489
0.0106933598789662,0.000150988373411303,0.00366539290791849,3.76481036813907e-05
0.000805004726710468,-0.000687731201961958,0.00432064686321012,-0.000592009433398984
-0.017212194712702,-0.00653805245830308,2.65731715476739e-06,-0.00131556397718731
-0.0243188381879642,-0.0117707757344214,-0.00601239363273735,-0.00192401629882682
-0.010885235424394,-0.00820649109328836,-0.00903369588098715,-0.00205145429578935
0.00647021024607145,-0.000741005364727691,-0.00846673598634412,-0.00149449527223568
0.0148852020493115,0.00249186480775441,-0.00605860304765766,-0.000364006037476254
0.022181570176513,0.00361559028309526,-0.00369221784698804,0.00110164832223586
0.033632909689843,0.00560602015536841,-0.00345469163232231,0.00226313842441925
0.0346135763717648,0.00508506389158026,-0.00520317299424637,0.00269944441428606
0.021478955163827,0.00494034769436584,-0.00454174116691568,0.00255060406981669
0.0115516968082052,0.00596953051073815,-0.00246801185827702,0.00200045789320935
0.0110202052401569,7.44867519297222e-05,-0.0041507858898655,0.0011199853656264
0.0117851914724219,-0.00848119852555543,-0.00555009633278087,0.000366424206853707
0.0125216603479912,-0.00628054192336708,-0.00180561582613303,0.000297164187691017
0.0140835944251863,0.00374658208507833,0.00356152574489156,0.000732240995490344
0.011186657152131,0.00753891643657518,0.00638808409080566,0.00124362571200826
0.00648355523316613,0.00163043960461178,0.00583623666655525,0.00150304297149826
0.00232603428321868,-0.00419265776828158,0.00455678535041647,0.00128566559990982
-0.00865215405485541,-0.00776680603345122,0.00211156787282069,0.000728245435102332
-0.0250869566888875,-0.0151274372950693,-0.00341638693737211,1.86239947804021e-05
-0.0354099465560756,-0.0200447351066848,-0.00948276749540734,-0.000743489244192381
-0.0354015425922471,-0.0169755405770074,-0.012232490720315,-0.00140809565523789
-0.0288689301180126,-0.0111130113966353,-0.0106523366811511,-0.00200732915483903
-0.0157003492845313,-0.00758479978430245,-0.00773291486548572,-0.00258255378522201
0.0097274521211503,-0.0108495254723816,-0.00600347997490868,-0.00281610454111438
0.0309236896127731,-0.0148743891936418,-0.00535052707520821,-0.00244271467791665
0.017762921033609,-0.000891860577938372,-0.00271186948558294,-0.00154865766139802
-0.0148523531756693,0.0267221875899198,0.00401182719516926,-0.000533125155266997
-0.0305075786162586,0.0347722481934595,0.00820201473616638,-1.25386376933741e-06
-0.0355971442884138,0.0139939236287396,0.00369366997469868,-6.92632238211647e-05
-0.0464631846410357,-0.00877860314436615,-0.00369440279178802,-0.000127207697949828
-0.0472933572484089,-0.0183454929734641,-0.00785107428220601,0.000515858134740381
-0.0333036747553573,-0.0242545383623613,-0.0093516460644526,0.00190690831359222
-0.0192748209833718,-0.030602258842917,-0.0104762748278295,0.00331854528925077
-0.0111633640317968,-0.0318787658967285,-0.0101258761115195,0.00391132000703403
-0.00944608508819484,-0.0290266962051041,-0.00741820176756106,0.00336797684020922
-0.0108996025419759,-0.0243888670654116,-0.00501141137880479,0.00204181872311545
-0.0133341871358997,-0.0181565311050881,-0.00462791987202233,0.000572351799172904
-0.0115209599906931,-0.0135761506182907,-0.00261176361951404,-0.000698382030318788
0.00373822195935309,-0.00782105002540713,0.00465834823554105,-0.0017142786407951
0.0255145599491341,0.0107889963988322,0.0149044106585877,-0.00248462463255503
0.0296814058897786,0.0346773606914866,0.0243368580456969,-0.00323035117016593
0.00104975152599498,0.0371976003074718,0.0275322118143945,-0.00413183402323099
-0.0376491428626145,0.0158862444210501,0.0222880981324285,-0.00497999274038435
-0.0480098894957544,-0.00498904093468858,0.0131589278868339,-0.00511385089734086
-0.0287751669895289,-0.014173930239976,0.00403126866638955,-0.00388390732913956
-0.0052046998220195,-0.0167888355289524,-0.00216056300702794,-0.00157186136356519
0.00443364016603379,-0.017437525645847,-0.00515824853967035,0.000752470365347861
-0.0125038332257602,-0.0185014524645804,-0.00867011076820835,0.00234449606475722
-0.0405147015042013,-0.0152956409929294,-0.0124126075003772,0.00322757319957089
-0.047849994038001,-0.00958636759831734,-0.0150897408046917,0.00365087183852868
-0.0367413047176871,-0.00710946180325493,-0.0168753949720924,0.0036365698882682
-0.0204558609442238,0.00079506551728226,-0.0163894791929739,0.00292209106158366
-0.000548607410708862,0.013326771774484,-0.0147323394103254,0.00148597170826411
0.0342609344689088,0.0135158422192467,-0.0107045801120171,-6.86223740492585e-05
0.0714182210912647,0.00198161245850916,0.00151973700600536,-0.00119444323698412
0.0484832237071406,-0.0141657034671874,0.0181819601878785,-0.0018754704451485
-0.0273978235625005,-0.0273598022563703,0.0290515852711665,-0.00243995636622262
-0.0708092654978663,-0.0219679961918979,0.0346823014043492,-0.00292715273464805
-0.0627693442073364,-0.00109894472403091,0.040593767485061,-0.00290500525352747
-0.0331620937852579,0.0203014927098459,0.0427532564865562,-0.00238398375128833
0.00523377433255759,0.0295461941477666,0.0343454263858993,-0.00194572364370009
0.0386479922264098,0.0205442158284174,0.0169295780947459,-0.00168320264359929
0.0623944963805479,0.00586318999824981,-0.00129475199769279,-0.000999916628045521
0.088571518065425,-0.000253794334713292,-0.0140359745411336,0.000454705503602348
0.105738596631764,-0.000700412924452899,-0.0189365080321465,0.0021226785525572
0.0808079794858476,-0.000946548596894806,-0.0174461621609688,0.00299484035471492
0.0180637483255737,-0.000661660365671429,-0.0127035509896267,0.00270966696333294
-0.0347359369524567,-0.00233187905160129,-0.00741738850243749,0.00155642532874969
-0.0459253516332275,-0.00870909827673677,-0.00564617692131689,0.000106313292320622
-0.0378058876537853,-0.0171925590491184,-0.00877909734022096,-0.000775260250620601
-0.0465262365351217,-0.0237899028808732,-0.0128172938347761,-0.00067330366170419
-0.0574002787802996,-0.0264471606866153,-0.0120611952027107,-0.000132877065773588
-0.0388959362351472,-0.0231360896028539,-0.00617431974680435,3.14246816905459e-05
-0.00375937470273258,-0.0115543146237792,0.00102598309705067,-0.00021544176849737
0.0192381697603518,0.0100020813071284,0.00687942983095268,-0.00010277075236777
0.0205841433230612,0.0318127997509984,0.0103050366247114,0.000655500899023691
0.00908832160141044,0.0322612748467131,0.010831616135384,0.00125853965236316
0.000586662303412937,0.0136696425549466,0.0102716528433771,0.000936314082122144
0.00362814475032754,0.00124595445112105,0.00786332132313748,-3.59608014534447e-05
0.0137118544802929,-0.00093301115960176,0.00218634975910578,-0.00100134635119372
0.0244428118000041,-0.00129637924057789,0.000228823142133558,-0.00189971190799564
0.0380077209994237,0.000830109160769107,0.00482506092435345,-0.00292227286266654
0.0540321234235437,0.00178660401431374,0.00700244796175929,-0.00365740755568291
0.0591733022818311,-0.00232005929751056,0.00323031853589599,-0.00323283696336154
0.0428304483735262,-0.00623053483787594,-0.000109425903008876,-0.00167824783716233
0.0167282794155058,-0.00886965409255015,0.00301678954858725,-0.000175570501979891
0.00383280312767083,-0.0162319473282352,0.0103721145027046,0.000586556267200612
0.00930085037165263,-0.0238363783618553,0.0142247494738644,0.00122199517980325
0.0194439892871631,-0.0190013324092127,0.0147921666652058,0.00236161575201009
0.0252964100735772,-0.00165787655404212,0.0163909821463715,0.00367678656016143
0.0200148146020834,0.0140842110347541,0.0168933514262675,0.00438604418047747
-0.00702125731251014,0.0138633161030205,0.0121753643046757,0.00407159024374586
-0.041258733834504,-0.000338461724710325,0.00379263597234008,0.00305024160213367
-0.0458372528425398,-0.0104844014042227,-0.00320848673857078,0.00187554161645821
-0.0229056590476782,-0.00303160765916137,-0.00542340129358087,0.000811091605120667
-0.0105485240014429,0.0130962462130344,-0.00290366640114362,-0.000305242702416476
-0.0130804079773168,0.0198039368099194,0.000484683091745668,-0.0015802202632605
-0.0126581839496306,0.0130414796883522,-0.00012793584727513,-0.00246936304022977
-0.0118628550873866,0.000233947048003044,-0.00404502808393841,-0.00252944959429286
-0.0172473852417718,-0.00889851179372766,-0.00580839647390208,-0.00224272429193814
-0.0224961545979871,-0.0116495588017949,-0.00455378184843738,-0.0021769085495708
-0.0176461062282309,-0.0121411353737393,-0.00335282780255847,-0.00208658623402203
-0.00911491640559425,-0.0134026012300022,-0.00339398154360137,-0.00141063340348914
-0.00886828230711676,-0.014171928135493,-0.00377802150404581,-0.000131610561600785
-0.00702919647867208,-0.0157647614469568,-0.000289482699585411,0.00129598478511625
0.000317836699580736,-0.0232076901835374,0.0068334805453214,0.00249250492762952
-0.00669782453348556,-0.0341393687642574,0.0110784864547107,0.00322751765241528
-0.0305178562222886,-0.0427283084310084,0.00875360900151297,0.00331493078989896
-0.0463259177110043,-0.0456672865617741,-0.000547254190854979,0.00275357970218268
-0.0392410488887487,-0.0425243731201219,-0.013836137097836,0.00187207222516063
-0.0207742481261813,-0.0315357264568133,-0.0245760606109708,0.00124602848282145
-0.00544553298147362,-0.014425408467576,-0.0279941351544862,0.00129688188405618
0.00558259467113112,0.00102064400135279,-0.0230501376132458,0.00166572816104422
0.0184811304773655,0.0258943867061753,-0.0080417115190678,0.00148750644707821
0.0443713433507185,0.0634087497456891,0.0112584473422128,7.99967857145955e-05
0.0703795194122066,0.0871765786863517,0.021408902434446,-0.00261977628200549
0.0558770998192585,0.0806128192724474,0.0184847859617338,-0.00519913660907826
0.00979024725906803,0.0465463257765182,0.00936453806670682,-0.00575441945252571
-0.0252111431068881,0.0100559339284891,0.00118838487524266,-0.0041064293692368
-0.0477947254657392,-0.00856810616370589,-0.00347812233298705,-0.00154827619292108
-0.0611766866385655,-0.0171785576696764,-0.00440507281039842,0.000427935795523316
-0.0620720349047701,-0.0239185432155086,-0.0023264976877279,0.00107812282756501
-0.0573657217659638,-0.0319296834010398,-0.00164945920104592,0.000681745245015525
-0.0478310678769589,-0.0393782486636468,-0.00549500517455842,-3.27120350080759e-05
-0.0343749174887456,-0.0416592807951262,-0.0104155875901393,-0.000116650147659246
-0.0137650728674564,-0.0431361625038159,-0.0118458705983945,0.00064491558060344
0.0225932861653757,-0.0477797259605499,-0.0105689041303237,0.00130728324804897
0.063542088513463,-0.0510522808586434,-0.00960420424663332,0.00134712866966208
0.0832103678395986,-0.0428266703753686,-0.00930763486400114,0.00117967375555844
0.076828527730759,-0.0116752960776798,-0.00794272459923593,0.00119011557674422
0.0532973135091468,0.0269222867316012,-0.0060818326187212,0.00114455288803894
0.0229364025578801,0.0412539313014208,-0.00710045095020712,0.000759284548362114
0.00488845132036994,0.0353564341755287,-0.00863580376505726,5.64872994890055e-05
0.00157035785449804,0.0316815843502896,-0.00634036857807634,-0.00093148088987706
-0.00241249088510205,0.034028865310919,-0.00117364782830004,-0.00173288640341146
-0.00199316039509486,0.0381286510196694,0.0046700332977655,-0.00187860786775748
0.00122895506337578,0.0379918196183382,0.00368038749804251,-0.00146789696447418
-0.0202120193648914,0.0247506519201125,-0.00720019026881859,-0.000763673197739022
-0.0492170437383428,0.00865014998122695,-0.0126506706819604,-0.000394060442354956
-0.042809126400784,0.00642601337609749,-0.00496199825353668,-0.00101546339077805
-0.0144575283519496,0.00527611211464045,0.00347057870239775,-0.00220265960955617
0.00308269150572019,-0.00602011380086993,0.0058867570416691,-0.00292329695401038
0.00190794547457554,-0.00954282224045796,0.0066278514616571,-0.00281431858498196
-0.0111983208424157,-0.00290028035308306,0.00504116596928461,-0.00226673893263279
-0.019332078058962,-0.000115496700413349,0.000611027355650265,-0.00160514780858733
-0.0182066523593933,0.00935215627318233,-0.000528609336684879,-0.000816737454842919
-0.0191260706662815,0.0289435059236077,0.00140618356544769,-5.27461079010368e-05
-0.0144091146075955,0.0371645597071446,0.00199304996956163,0.0005973067519429
0.0210853202940236,0.028286135704003,0.00207192471151639,0.00109031593695748
0.0725702700214981,0.014383210474893,0.00332785215622851,0.0013057378133185
0.0996831158776905,0.0154115169153115,0.00738251281334872,0.00138670131563
0.0981016547175279,0.0367340060440073,0.0125607866046615,0.000977537665753301
0.0686248163142341,0.0408523299571022,0.0108847201970389,-0.000504989909398499
0.0134415558121558,0.00917767850523014,0.000663663509869327,-0.00207264725873502
-0.0359990223847669,-0.0220591205119652,-0.00386578016360763,-0.00195321134943113
-0.0561692092021742,-0.0270737400675336,0.00240252826943752,-0.000319943178877031
-0.0485546318397632,-0.0150644661732294,0.00585326574069757,0.00153335150322882
-0.0288573326613167,-0.000894904935955551,0.00316990637965086,0.00297674292598648
-0.0089299838220016,0.0118123453892139,0.000479236225328817,0.00352358494190158
0.016365464633687,0.0165450625748218,-0.00103139393267698,0.00302488811609851
0.0409823660445034,0.00797027732994403,-0.00264768765284181,0.00159974802763494
0.0521195709715114,0.00400012872269135,-0.00240664665085147,-0.000368341525135472
0.0557842437446382,0.00735228162499031,-0.000754215921974428,-0.00194923647896106
0.0445164403891261,0.000542842745531787,-0.00293948997773696,-0.00250481875566219
0.00670002318590177,-0.00998030999128659,-0.00454671455615575,-0.00235324417240103
-0.0295952026846169,-0.0111910368268715,-0.000326005511387241,-0.00223415940960384
-0.0303861005916097,-0.0106889317701843,0.00364652480994789,-0.00221171147426403
-0.000356357198683249,-0.0138428912769005,0.00235913517838685,-0.00193103875362505
0.0217934479429718,-0.0105652873258892,-0.00279770897686144,-0.0013550423749382
0.0128046072067518,0.00280939092785037,-0.00796777018141163,-0.000604135700971826
-0.00233657117607965,0.0193159442309696,-0.0108198333813378,2.16015268616038e-05
0.0023264654231568,0.0300689318451671,-0.0107108185649579,0.000300786779871646
0.018505074716563,0.0282137191049659,-0.00713295417403127,0.000578275528951261
0.0201089747931273,0.0164138166775617,-0.000757565735313779,0.00122173384141086
0.00209412971628675,0.004537834675353,0.00385065923075553,0.00212160555459019
-0.0155221881843921,-0.000543305315786264,0.00210864460389537,0.0028477551018468
-0.0228537235275706,-0.00206562914144597,-0.00409405670770685,0.00328041384098831
-0.0147001802299752,-0.00474032409967835,-0.0092626367307256,0.00354552502496453
0.00802559635584425,-0.00343681580936825,-0.00750035177795859,0.00330018995867503
0.0301023848593166,0.00227602193748013,0.000593364692260501,0.00222131539515181
0.0334984606538046,0.00234329337196736,0.00888362408773877,0.000853946430809082
0.0227319743962935,-0.0048094341873308,0.015762996732959,-0.000261682691106254
0.030449467813601,-0.0117380354085325,0.0170408514692136,-0.00163960514346228
0.0508965381204255,-0.013089739017612,0.0105416062027795,-0.00331946004087612
0.0504186813266025,-0.00880016956650237,0.00398149690001745,-0.00402752242329837
0.0379036179325705,-0.00246368901943251,0.00414556372386987,-0.0031028134821449
0.0301182024939077,-0.000675773959309336,0.00709050439315317,-0.00137118366983382
0.0208618192677013,-0.00928900788202939,0.00478155918719776,0.00021856867299616
0.007601698257611,-0.0187083733522611,-0.000214293703042776,0.00144306604155895
-0.00539020501314372,-0.015063694139804,-0.003469970977155,0.00249478694477622
-0.0164415856710814,-0.00594134761213178,-0.00560320096410302,0.00336131731776198
-0.026291147225583,-0.00508779992914176,-0.00868877768424732,0.00389104199352826
-0.0286462945826555,-0.0101803399778784,-0.010784996264377,0.00415586864318891
-0.0258128085015119,-0.014388484748649,-0.00764467253610033,0.0040795358310212
-0.0346264496818293,-0.0160224570024199,-0.00317424601518325,0.00356636250977764
-0.0464564825075754,-0.0123106778447525,-0.00149821493894454,0.00280619636306038
-0.0398427055174753,0.000475930357049605,-0.00149374132321588,0.00212536549282482
-0.0129412246667573,0.0165313866832141,-0.00108459462348998,0.00141877075399794
0.0257876536187933,0.0254732294716799,0.0019924174305422,0.000238010353769277
0.0495502343526958,0.0240782025858238,0.00524925612672551,-0.00123875747953318
0.0332292023895255,0.0141033332242767,0.00373584674083914,-0.00231441145190493
-0.000298663257869702,0.00528774591677347,0.000885358174303227,-0.00259043675910817
-0.0162803125629972,0.00998388048280352,0.00300822701459435,-0.00232636625709219
-0.0150385017331429,0.0214726012588456,0.00603116830032406,-0.00228501856125663
-0.0106103129443931,0.0175883945007407,0.00391254866298892,-0.00242849975040733
-0.00792936085360077,-0.000583805069218447,0.000678678823777808,-0.00148339369334442
-0.00663656781531346,-0.0108486118557211,0.0018635358453268,0.000760064401323867
-0.00784395164438553,-0.00931667600086491,0.00609375372128019,0.00279125025069703
-0.0121827768824084,-0.00677821773447968,0.00815749707587849,0.00358526487415859
-0.0150258417984821,-0.00639517183049067,0.00638046478963379,0.00356938425246184
-0.0122512150395211,-0.00520886749136045,0.00351596597905962,0.00347736011648649
-0.00796154388757998,-0.00339378454593999,0.0019782390077107,0.0034598588696546
-0.00636746993452845,-0.00197220043061843,0.00248959519414811,0.00317003914490228
-0.0080401288751104,0.000464578963569601,0.00447744668599599,0.00231672471094232
-0.0159332347401963,0.00213346869641934,0.00587941758852673,0.00131187397244067
-0.0272732171618285,0.00133175118791061,0.00460624393082442,0.000661672825528433
-0.0324458354554455,0.00248501628132977,0.0037837359071624,0.000262857009391837
-0.0312405784541571,0.00531172612737134,0.00567547951284858,-0.000248069988296329
-0.0280348602379722,0.0042352076232871,0.00616933393467654,-0.00108712919916791
-0.0224358817775047,0.00177144250645629,0.00443791795379843,-0.00214374452546468
-0.0160212385803481,0.00151710012622826,0.00279237222908955,-0.00309797970157264
-0.0079805454460734,0.00130822682186526,0.00107445807642881,-0.00365490969724427
0.0042080737714487,0.00309965210957049,0.00109282265985295,-0.00361176325724824
0.0175793622241159,0.00941111810477975,0.00372593812492969,-0.00305332998850595
0.0338300242117978,0.0134272779718567,0.00486298172782769,-0.00220805472124558
0.0483458975990465,0.00949145162364173,0.00282707867699365,-0.00105772643842553
0.0410594723960988,0.0035344145690294,0.00140236619616718,0.000279296736727254
0.014038094185853,0.000750097458567653,0.00508610878587395,0.00126353146396272
-0.00867909771438619,0.000845249271397965,0.0136237236358729,0.00139192862326871
-0.020400444341896,0.000730843318159045,0.0198566190698428,0.000900144901121614
-0.0274993623967323,-0.00228689330388246,0.0190946864240665,0.000407577246092405
-0.0302175653624974,-0.0042330397822096,0.0169223786633968,0.000237598822238425
-0.0289017028907441,-0.00374598249274674,0.0176274461634237,0.000258848286799399
-0.0281985000620223,-0.00306202141536523,0.0158593392601261,0.000148066604600472
-0.0279670874502828,-0.00256870453406875,0.0112289727024798,3.18099650038489e-05
-0.0262905488196546,-0.00594634408908673,0.00698355477421118,5.18542268116527e-05
-0.0238272310370788,-0.0129116491118139,0.00199958977983478,9.381941217104e-05
-0.0175883491008767,-0.0148702260719888,-0.00201768189985964,5.53500630061687e-05
-0.00969376125995849,-0.0103266503245,-0.00506371583385934,-0.00019170087145101
-0.00964090164536972,-0.00677792223074719,-0.00826978327067317,-0.000753985363177925
-0.0147860046333782,-0.00687928501348819,-0.00940702590214834,-0.00171469825679425
-0.0160097003500682,-0.0120700135211762,-0.0105383704644688,-0.00289996417904774
-0.0121942341350212,-0.0232567008576277,-0.018450568232025,-0.00375977656619605
-0.00548670734736123,-0.0241988758266253,-0.0271554110667095,-0.00371809977280383
-0.000905466253435119,-0.005599516215099,-0.0249006051959921,-0.00253259207972201
-0.00307404231250749,0.0132668805162882,-0.0148875156671696,-0.000761497787889909
-0.00953473421542599,0.0174097209159945,-0.00562323370510142,0.000433869907210243
-0.0129867610995785,0.00869998756496146,-0.0029297523840675,0.000547912581835639
-0.00728179714117528,-0.00586255533697466,-0.00643635135095433,0.000267593469137473
7.50530412369152e-05,-0.0157646139749874,-0.00740391133003936,0.000336054784370189
-0.00177245272068846,-0.0161501314287985,-0.00310448948653612,0.000364342028600947
-0.0069845737499235,-0.0113540698186314,0.00197759626548922,-8.29169365034717e-05
-0.00865647223404571,-0.00696980851683521,0.00351316499749683,-0.000293877614546269
-0.0106362761242487,-0.00622560282305431,0.000556845285542451,0.000261811663824149
-0.0159983036531822,-0.0112995389717912,-0.00287913279708527,0.00102155794298575
-0.0212383486917893,-0.0208854572107136,-0.00577670664756578,0.00160945087046934
-0.0205166206916387,-0.0273483587221407,-0.00819054564622753,0.00205035815551445
-0.0136243877409146,-0.0262728856442163,-0.00575330952176677,0.00210549674378669
-0.00933694566236412,-0.0219319198767771,-0.00180326780331889,0.0018474739383877
-0.0126040224705371,-0.0161754506659692,-0.00660319948549347,0.00121827560221448
-0.0191940109896677,-0.00147035148220531,-0.0169336167761332,4.01856170561478e-05
-0.0217119739704488,0.0162252394061895,-0.024238946907958,-0.001325169473138
-0.00838133151242072,0.0173898499198709,-0.0295786363037574,-0.00255812940619433
0.0137192367366968,0.00740714722284937,-0.0348804770993737,-0.00323924637899329
0.0224951419647195,0.00346850476494297,-0.0381672235440325,-0.00278164936463875
0.0154251760313967,0.00692975716789325,-0.0373128609617004,-0.00105442610373673
-0.00110415995151231,0.0140158032628964,-0.0300353280710121,0.00118995784250819
-0.021532202356534,0.0142029252455049,-0.0213278984858859,0.00273286902626638
-0.0346806728418093,0.00267223074389471,-0.0187141695435853,0.00295856564659704
-0.0340407338811709,-0.0133302089316148,-0.0194755541936778,0.00220017728550988
-0.0277562245360001,-0.0276482970434967,-0.0232883243292917,0.00132736848898959
-0.0237373349580838,-0.029677996777591,-0.0262537925575533,0.00083898320593085
-0.0207678896529238,-0.0133648529180594,-0.0202821779724767,6.37877046106563e-05
-0.0202553493672944,0.00133907574314288,-0.0140131710515367,-0.0018499341745006
-0.024293305267568,-0.00754683428820985,-0.0144973140009911,-0.00411762565975612
-0.0270736287654649,-0.020748673973005,-0.0156952459467274,-0.0049742493519282
-0.0192517357305874,-0.0149473280912016,-0.0145514122768934,-0.00386696002182816
0.00394353807047908,0.00209287070668591,-0.00998655473866804,-0.00167835075021341
0.0245018875600027,0.0147731045352768,-0.00125049991334736,0.000685199809540211
0.0154293549066987,0.0142916451626644,0.00770710266758067,0.00237624571301793
-0.00940001907178077,0.00557988103366421,0.0136384357385673,0.00264454027933496
-0.0211622270207259,0.000506146234799329,0.0169434994466063,0.00187313300330847
-0.0229187961877767,0.000962870682201835,0.0191206569388081,0.00088706348041779
-0.0239338898527805,0.000953041758001314,0.0193431131562152,-0.000124835920667033
-0.01847009581252,0.00487407133582942,0.0195120525243509,-0.00109345757651737
-0.00544291469050713,0.0105638679865077,0.0209897034018066,-0.00163275316083611
0.00399181647842561,0.00559891649392219,0.0154368900486354,-0.00132722129629152
0.00225908905615785,-0.000428920968152819,0.00190270162547667,-0.000135511281930589
-0.00624440785791786,0.00296673750699501,-0.0117597948688163,0.00105822766448691
-0.013292201650982,0.00650788018214553,-0.024838769821807,0.00099699769065695
-0.0176417496355596,0.00456694679266951,-0.0377207438621505,-0.000222811517081286
-0.0158676274541725,0.00260103370298416,-0.0422577451552188,-0.00136400728019719
-0.00163083926066142,0.00111529405671294,-0.0347500824730508,-0.0015928560758519
0.020265250291317,-0.00654273327001642,-0.0266467696358219,-0.000416615379540832
0.0393384540484772,-0.0186774202524934,-0.0253364393616621,0.00219651779224613
0.043553042080917,-0.0253011203070235,-0.024547833030948,0.00483257685077602
0.030608556231267,-0.020752910068066,-0.0166887879781735,0.00548056282542274
0.0161633159837586,-0.00960207555545855,-0.00253559474478179,0.00378370339116576
0.0095629421010866,0.00110152392863543,0.0117318854408717,0.00098582886395076
0.00659955238874963,0.0117683290463746,0.0262558166056324,-0.00226806646581567
0.00376968555694236,0.0153052234260153,0.0358688121546226,-0.00579547937910131
0.00295303076729177,0.00361381532886103,0.034121062093311,-0.008324547479226
0.00510795553660597,-0.00948885079013656,0.0295636251205594,-0.00825671682370949
0.00264147557808463,-0.00997523595403374,0.0280185973542155,-0.00561187941765012
-0.00134802141404693,0.00455382675392858,0.0295069511317819,-0.00189933657337587
0.00559108833010969,0.0224479163110869,0.0347661829397827,0.00152919545751899
0.0168774911288984,0.0202696431780963,0.0404093130344089,0.00381355439669832
0.0197488569952048,-0.00151952043801913,0.0364484970742097,0.0044309843455113
0.0143592768072275,-0.0190049365198038,0.0186123942896121,0.00389704559381124
5.46489067448849e-05,-0.0236559306802949,-0.00273360400964178,0.00343739419118226
-0.0215501204273646,-0.0204945615502997,-0.0191960482874604,0.00334117796650548
-0.0297415996016887,-0.00303234952081343,-0.0297725637451844,0.00313988382630919
-0.0123423530022614,0.0171076542952682,-0.0340859998314295,0.00248644635919282
0.012268963953901,0.00883029398312044,-0.0340683209950659,0.00121276330254286
0.0253059636497975,-0.0159854894459113,-0.0369638471620408,-1.06518046687916e-05
0.0328742136813199,-0.0207818929687328,-0.042804934708201,7.08248720919795e-06
0.0418131621503836,-0.0089726523489043,-0.0419002152009828,0.00137789978457084
0.0398162853884545,-0.00442150127421824,-0.0330357253080623,0.00260831959432435
0.0232600599416887,-0.00171107547405797,-0.0198244420397911,0.00219479753744955
-0.00185417960641979,0.00541779033330965,-0.004900537759988,6.02582041784065e-05
-0.0289693428088509,0.000399067663571989,0.00644562248359928,-0.00258484799779681
-0.0402053861951832,-0.0138129977459969,0.0115235771130137,-0.00403545691335365
-0.0292762291071832,-0.0191227713562007,0.0145907184333175,-0.00334255598529704
-0.0150205984712178,-0.0150600846430521,0.0192041380965153,-0.001235750885489
-0.0124164200034428,-0.0096819036681287,0.0223366406255084,0.000606695924467505
-0.00871385121644697,-0.00786121264904716,0.0223961417631557,0.00154101793007588
0.0156631577599883,-0.00432862896534609,0.0214873373607799,0.00187633006498266
0.0548037763557107,0.004604621262498,0.0183530629109063,0.0014190571414418
0.0769856307988901,0.00125244975658498,0.0102949589655961,0.00011232005075289
0.0640277008861685,-0.0184150239791122,-0.00057474375572085,-0.00119318755315427
0.0318739107018616,-0.0322126795614573,-0.00838129107626033,-0.00172606771382513
-0.00215041908028984,-0.0220250484403043,-0.00786425958041916,-0.00190277617271647
-0.0286691413476606,0.0206183475498845,0.000189600400503,-0.00257659473703753
-0.0382200394046979,0.0599748322248277,0.00667355809394587,-0.00370537659716007
-0.0413597254526685,0.0521222186404549,0.00446683898864092,-0.00443079073747269
-0.0437568507112561,0.0247113520367637,-0.00164660066934881,-0.00375852726244306
-0.0234271626524311,0.022894111155522,-0.00160996663465574,-0.00165811303189592
0.0157566566546738,0.0449926563278265,0.00692611278268089,0.000619612867647726
0.0420614317944798,0.0548634177169231,0.0143681659333155,0.00184640960189381
0.0331590735993848,0.0292710300332526,0.0125194573574122,0.00196381967940307
-0.00703972917949894,-0.00993794050337704,0.00514448678439598,0.00170136699035829
-0.0400422267362723,-0.0292935148713823,0.0018940739641471,0.0014252855012625
-0.0380862921771999,-0.0261084922463558,0.00471664843780372,0.000817761268416481
-0.0136955722019835,-0.0172036488159616,0.00622427628372285,-0.00026270596810115
0.0133498480090285,-0.0109650321674157,0.00554924559565925,-0.00125485649882902
0.0246535632704394,-0.00523600512700182,0.00678874486691926,-0.00171496878980213
0.0174494499804395,0.00311450397033466,0.00875893522719922,-0.00188564794716251
0.0190959746382963,0.012600692764538,0.0118561923221349,-0.00213292377212385
0.0416800030480726,0.0178414483856733,0.0167936801184577,-0.00224992460536223
0.0623318128859329,0.0185238944597689,0.0176246683816665,-0.0019562336661961
0.0578730044006598,0.0177497430341432,0.011386096954154,-0.00135356434337006
0.0297724989361846,0.0166702891486393,0.00559340979531051,-0.000628118923110136
-0.0127155024511174,0.0165792913310693,0.00592334114767927,-4.12126348369246e-05
-0.0506539239086402,0.0192169068469651,0.0102188549278106,0.000125866769798095
-0.0506476801108558,0.0258197632533689,0.0153000004615536,-0.00017796947564104
-0.0167535064046974,0.0307616805925435,0.017329032646108,-0.00049206987348134
0.0172390175528833,0.0272801633236412,0.0159036749668619,-0.000382631361344192
0.0350446794803079,0.0191858381366103,0.0150937059078968,9.60261144552898e-05
0.0293890984344974,0.0133896501198494,0.0150392337645472,0.000642599256401711
0.0112073380699329,0.00935737026422114,0.0140419897374966,0.000666903892835468
0.00572474452650385,0.00795686159634547,0.0120692751137745,-0.000197010885125855
0.0113811987239848,0.0107363836798275,0.00973757940291969,-0.00129458872681249
0.0126082207066614,0.0120372768979597,0.00806278995667834,-0.00161173927551855
0.00996819000520954,0.010777857262527,0.007288519854474,-0.00104494823297813
0.00843988911213189,0.0103788646125521,0.00728385620378932,-0.00016531235960965
0.00698973778490953,0.00963806399163247,0.00615733057269503,0.000677502595507789
0.00423015568695358,0.00821255245144942,0.00427566374958104,0.00130651723584439
0.000714031913152673,0.0074205738287709,0.00339965431084938,0.00171948535475892
0.00158111293782652,0.00743276767830868,0.00285966850736309,0.00214407302197627
0.00786948378914587,0.00705342639700613,0.00225547174896375,0.00250207606121148
0.00996947546030644,0.00397242029130063,0.00047166458053698,0.00260918338439881
0.00617432505493478,-0.000963922688599976,-0.00213849034648558,0.00252355835006163
0.00294046650530178,0.000632438225912379,-0.000804088610400029,0.00231544059586613
0.00129531393039357,0.00748505262349148,0.00281875834688803,0.00192548378424435
0.000736279313138891,0.00499149213845889,0.00174262649510258,0.0012180580482435
0.000107486751285678,-0.00341852675657706,-0.00175540156117947,0.000754842199936819
-0.00190258953101793,-0.00599806729518305,-0.00243187167464183,0.00118099299748866
-0.00380746432606658,-0.00498736499171838,-0.00116111266805645,0.00185095763379069
-0.00505225729657287,-0.00396385868337067,-0.000645991990679936,0.00203130932330422
-0.00677373313358779,-0.0025445822516864,-0.000766252249716151,0.00164241950156075
-0.00792612192076483,-0.00102143646329638,-0.00124548062954754,0.000898452476638809
-0.00679737726210679,0.000441107012501863,-0.0025060251786821,0.000214436329324736
-0.00403048358997564,-7.20634889355577e-05,-0.00321024797170636,-0.000277388416320833
-0.00342349936529707,-0.00212030268094678,-0.00278971060032175,-0.000509967016778899
-0.00573605432359907,-0.00265458934788823,-0.00196625805536268,-0.000475087377511614
-0.00636500984932107,-0.00235672005787234,-0.00108623441030591,-0.000242044385987745
-0.00204910494274204,-0.00250894092827677,-0.00187233804403123,0.00030309879931935
0.00616143607179018,-0.00199268261715311,-0.00293470648094351,0.00102332088461992
0.01110202653874,-0.000903254871937816,-0.00122861403833046,0.00153092651345886
0.00852863483096636,-0.0013368360541118,-0.000194435003550342,0.00162733363961097
0.00264249911532778,-0.00281575333297394,-0.00343558045153752,0.00144290524684279
-0.000964343773354649,-0.00361220780154252,-0.00727326162473961,0.00123121319971424
-0.000770173041600676,-0.00430993452335305,-0.00802499278695172,0.00107205738540103
-0.00752240719557005,-0.0063660914637607,-0.00820362613218767,0.00100734837648119
-0.0244966075635166,-0.00811100735748057,-0.00797034384292512,0.00109455982610683
-0.0320525162867042,-0.00495661411160482,-0.00584911396768686,0.00122190205641839
-0.0214636716769255,0.00331028773859554,-0.00241580678653283,0.00121057838359528
-0.0062995743438727,0.0106681239905364,0.00223465797663309,0.000775416926541241
0.00228507652623245,0.00970204675632456,0.00424657282758967,-0.000388517840445667
0.00868488866934759,0.00179585336132323,0.00412516004949845,-0.00185729343421498
0.0169967642459173,-0.00564821085473919,0.00549665632374288,-0.00269477782465678
0.0208700752294401,-0.0116960103542695,0.00542746541889993,-0.00256899543049195
0.0176761460261085,-0.0131379767137686,0.00248303292695975,-0.00163523401017721
0.00807431551768474,-0.00970063373317372,-0.000885471907334306,-0.000275726113181204
-0.00693470594916443,-0.00953959765779229,-0.00297634636514989,0.000774526534264301
-0.024074200416911,-0.0154379664790967,-0.0080082922824523,0.000950017281897642
-0.0390940343615064,-0.0236819051411751,-0.0170778789753432,0.000265323493240964
-0.0442577837933593,-0.0270310962924928,-0.0226901174551686,-0.000780326602431833
-0.0320423574476002,-0.0234490560944697,-0.0214945875566696,-0.00144364962524117
-0.0063601253915246,-0.0204876033141527,-0.0131501790825659,-0.00110831368780343
0.0140195030751857,-0.017034354169038,-0.00196750303323884,-5.6674958293676e-05
0.0174642782912027,-0.004572334589792,0.00381057501038223,0.000655845667751671
0.013085581796303,0.0108694937008102,0.00460765916823964,0.000615405761701062
0.00834652709333852,0.0173443274035719,0.00390633880958564,0.000358328949242283
0.00306687699951084,0.0164612880981669,0.00141419599976878,0.000335744937884244
0.00129451442554833,0.0204736371829919,-0.000361892435078808,0.000608896961223912
0.00183180359694608,0.023952764744528,0.00105295706178158,0.000899891584042637
7.35809818094083e-05,0.00591881117546909,-0.00168962313119341,0.00062103376003527
-0.00327553982036041,-0.0295023791990682,-0.0134765471243714,-5.42849181858827e-06
-0.00988751850936906,-0.0599319230275407,-0.0226756136847206,-7.78177577247438e-05
-0.0209689695763813,-0.0745276244312608,-0.0203952687934178,0.000375961474985467
-0.0297859588941761,-0.0773775530105704,-0.0143271094715854,0.000469902033222625
-0.0293157649926008,-0.0718014613265322,-0.0114212290166634,-0.000238059914558462
-0.0208076947038585,-0.0631257113555797,-0.0110227322402915,-0.00155922327893725
-0.0112242167212942,-0.054177366743584,-0.0110025935716517,-0.00306124751923411
-0.0026870538537801,-0.0285678512662133,-0.00904066837395201,-0.00415553443339343
0.0118672780278036,0.0137841199065896,-0.00403961447541077,-0.00448606500444106
0.0274904596237129,0.0447305918090002,-0.000251586364499639,-0.00404644888408862
0.0384241854544997,0.0506392846769069,-0.00327837501685137,-0.0029755118388739
0.0409640724582527,0.0379191158210733,-0.0122165370316246,-0.00109338605035047
0.00939758647058878,0.0124551690207404,-0.0212824348646965,0.00169602481800624
-0.0378048042137426,-0.00887648525130671,-0.0245749624811412,0.00428120927973416
-0.0428755257756377,-0.00542362804443099,-0.0193750697746962,0.00509850012298983
-0.0155124368391617,0.00789823979582632,-0.0103442518627028,0.00371523048433489
-0.00487143867442261,0.003362489835812,-0.00779770924548742,0.00119963216415994
-0.0112866090873249,-0.00902626900325254,-0.0149492074083604,-0.000721554381222798
-0.006632732226758,-0.0178984895850163,-0.0240918350404233,-0.00110420517355332
0.00682125517625457,-0.0303995282446342,-0.0266886742323818,-4.96066731100917e-05
0.0101878136568585,-0.0362611361691471,-0.0207001270190552,0.00161778052340306
0.00453455860930045,-0.0289640370447052,-0.0101329815099417,0.00254237309972418
0.000583704682029785,-0.0170587562829595,-0.000978663050158913,0.00221558516347302
0.00218586901619295,-0.00677461741560538,0.00719921769870349,0.00123347849244135
0.00618547164097489,-0.00581361051393755,0.013946799126689,0.000561509503198319
0.00745969831368394,-0.0116293121055576,0.0158597196408707,0.000909654741699053
0.00504848158929395,-0.0146005845154861,0.0151066931107384,0.00155646991218956
-0.00116645140768965,-0.0142309060701692,0.0131320837907835,0.00117633584477916
-0.00250628193540106,-0.00714438496805411,0.0111023036395798,-0.000373891465269851
0.00559937709117041,0.00772768897159173,0.00963200175867291,-0.00153313351875492
0.00675532095197883,0.0147143970700935,0.00274563574571007,-0.000430746527342464
-0.00774176452866219,0.00632817585219876,-0.0133555715915511,0.00239652008365739
-0.0277384731168547,-0.00439753346760279,-0.0309245797880883,0.00435235119355971
-0.0359652903348038,-0.00893069281057645,-0.0392519220342367,0.00371742640578605
-0.0270410102383544,-0.0106942497987699,-0.0372550574078351,0.000826774342314398
-0.0200048346242742,-0.0102776106463253,-0.0282684041381355,-0.00247465860578391
-0.0241977073050627,-0.00981671258052458,-0.0114631868940832,-0.00413694316491043
-0.0234309284794431,-0.0124641676695396,0.0124538269936514,-0.00363111203615009
-0.0106325981138367,-0.0165419214858865,0.0313313443763817,-0.00225299211887999
0.00247009213327828,-0.0204899753492421,0.0310020660772778,-0.00104876931918028
0.0115792268425833,-0.00948080324530625,0.0167144302423041,0.000147027209402761
0.0242241918089797,0.0157950931452935,0.0104716450800605,0.000980184468172802
0.0348997845769825,0.0332850425408217,0.0255618269805819,0.000901682138146091
0.0380647664978823,0.0382995750943721,0.0506734627665339,0.000200048527907607
0.0477310285112912,0.0364366386197495,0.0665922916475142,-0.000672348321326934
0.0664402420596268,0.0425346543474669,0.0664365344335203,-0.00113674829136606
0.0667467504492737,0.0566263660603033,0.0535056380000199,-0.000992752672021117
0.0316247852285193,0.0556114007605222,0.0357347816087917,-0.0010916993271148
-0.00238314113935559,0.03629595787726,0.0203000212110418,-0.00201227987484851
-0.00529995365622085,0.00957990269522854,0.00387056215411759,-0.00242124218961623
-0.00441097694504859,-0.0191554170340075,-0.0142979730604191,-0.000736534648663917
-0.0205357156211206,-0.0410481684921624,-0.026101261944084,0.00257478221493706
-0.0444281320157311,-0.0502514323241542,-0.0295609214591362,0.00573500287195558
-0.0565631464781461,-0.0539999378765265,-0.024025759672387,0.00741370851257926
-0.0413777606030982,-0.0524238357025285,-0.0112929547999523,0.00732582576532106
-0.0130027438318447,-0.0375457848949031,-0.000485478653616263,0.00554568307485575
0.00613891055740551,-0.0141586709445919,0.00310382577775358,0.00224388912052655
0.0159035690761299,0.00187970083916918,-0.00218794331922799,-0.00192046809269455
0.0266066160756934,0.00297741725186186,-0.0112143098243528,-0.00552550451602976
0.0377573389442027,-0.000902789900776028,-0.0180810664153779,-0.00724453538248003
0.0387731147184958,-0.00433020540299591,-0.0293183984740351,-0.00736848851633125
0.0253933006529916,-0.0121879495459642,-0.0426186092064243,-0.00699884996431945
0.00838809003227066,-0.0145217976568134,-0.0409015472416459,-0.00715127190554066
0.0040711818048278,0.000635545248898549,-0.023392806338768,-0.00869328213097252
0.00978674281452075,0.0206981417728538,-0.0108876665841627,-0.0106943311273314
0.0148189128031548,0.0300695924487847,-0.0116368268879883,-0.010902527117696
0.0219581079335286,0.0255908931073512,-0.017197766057523,-0.00822026148399066
0.0309996597550073,0.00975645957839765,-0.0196420256402769,-0.00297120542722596
0.0339762305501618,-0.00372618146859396,-0.00756709723821114,0.00356703716958263
0.0320969445737064,0.000278030304171504,0.0143986318492833,0.00891852194682131
0.027579633684411,0.0141660564005406,0.0238325280648295,0.0102319602207748
0.00987553765003405,0.018075570575034,0.0222435755078451,0.00654469778327898
-0.0219935463981544,0.00860477856111585,0.0252196025288247,-6.65306691537398e-06
-0.0454402812766123,-0.00276768398970873,0.0330723168621664,-0.00583192825307421
-0.0482942887732414,-0.0101230444320562,0.0333718713331069,-0.00845517244925632
-0.0489447513829064,-0.0133917681728465,0.0152320330916447,-0.00729054518062269
-0.0528744659892315,-0.0138977517781081,-0.0100601501167176,-0.00349954483805906
-0.0413314570457307,-0.0208801173739522,-0.0277280226985708,0.000556925146449731
-0.0112645809689096,-0.0302746509972169,-0.035605367662784,0.00295264114701047
0.029919666651363,-0.0169914629330776,-0.0279268194256195,0.00331651729051679
0.0755918834536023,0.0215333649874884,-0.00906286245364445,0.00232802077102338
0.104618194484458,0.0553522484022607,-3.92023738189778e-05,0.000840659806921875
0.107005150088314,0.0602485223834467,-0.0074045197598458,-0.000521354558679074
0.0980765545343611,0.039263096880349,-0.0167522435447968,-0.00153751675027313
0.0606971522020154,0.014053215991185,-0.0174893689979205,-0.00209812983836479
-0.0299685764058596,0.00810495691725056,-0.00974057215923139,-0.00239549922192761
-0.119932261282295,0.0224793017920475,-0.00178218203888732,-0.00307549891922442
-0.144404604903067,0.0269649518980716,7.12032792775028e-06,-0.00405944542995245
-0.109724604646336,0.00844501224415072,-0.00067392575559239,-0.00405553201165143
-0.0609038426547115,-0.00795228483798093,0.00211732218520536,-0.00234318449347799
-0.0315063685611214,-0.0101847443609917,0.0132569151888492,-0.000174817202940781
-0.0095004027783927,-0.0211935230511289,0.0245140932677067,0.00105710153222539
0.0201044801054665,-0.0415950999285983,0.023971898577807,0.00166177547939652
0.0371704014690037,-0.0359633406471934,0.0176893975884786,0.00253633224861607
0.0348294751920347,-0.0121687389100206,0.0162052327585909,0.00385292005791079
0.025028339891148,-0.00543290443629622,0.0205702591048515,0.00482889793987253
0.0200998474112205,-0.00358897262027905,0.0267877121809975,0.00466798876552334
0.0377965819430931,0.0162806294177516,0.0331153908777193,0.0037701114634767
0.0643099817113509,0.0374421690699273,0.0364294157049611,0.00282254221028553
0.0715306070427698,0.037913774938236,0.0338941543187439,0.00180397097001322
0.0668066236178357,0.0330663852367652,0.0333096539489576,0.000549676141358668
0.0534302634525447,0.0420080011390561,0.0388741081536229,-0.000816985264966755
0.0132923308697899,0.0551742048282202,0.0420380884378553,-0.00192780660822367
-0.0317953710067789,0.0616586820231096,0.0422432742332401,-0.00252654217238525
-0.0405030139230182,0.0551531736253287,0.042436705369033,-0.00286045728310862
-0.0246190924256009,0.0373396061884594,0.0365145578436988,-0.00263918132980546
-0.0158705847422555,0.0208793720900293,0.025210084824703,-0.000887408106166366
-0.0188094816439819,0.00781476615704044,0.0156055037410543,0.00197631351661681
-0.0163346301669764,0.00023321616798689,0.0116042675095847,0.0042524539639027
0.00165702586857973,0.00446967121947547,0.0113850762701761,0.00507256680535611
0.0194388861159263,0.0129832838992526,0.00964708743096354,0.00477542175764254
0.0240697687639014,0.0138340807003331,0.00569485287764208,0.00429637319744672
0.0214238411182225,0.00795512013496194,0.00229403227534679,0.00464794437841604
0.0188028646786121,0.00406632238366752,0.000854653107203145,0.00582660711045247
0.0176612388225314,0.00460771628345284,0.00106249964415463,0.00680724974399848
0.0180721700218113,0.0047356548685073,0.00320717500769288,0.00680143591860734
0.01786551699592,0.00318763351763568,0.00491060916837416,0.00574056216210172
0.0149443868704302,0.00229204626352016,0.00352100389063457,0.00421353407472855
0.0124629810909769,0.0026833869583271,0.00228017167599921,0.00277236195827137
0.0121260556084029,0.00536586812859486,0.00269537129413637,0.00135106496923174
0.0123874983943429,0.00975592281273965,0.00328023514288283,-0.000123412318860416
0.0123693412953808,0.0115977878265718,0.00389889931786459,-0.00146591458275141
0.0105472626883715,0.00874271121083119,0.00277686737273678,-0.0024452709861759
0.00763944074573446,0.00866348527423297,0.000868109393433931,-0.00283688492280485
0.00578196991857556,0.0155531435798918,0.0022851466050531,-0.00288323769474252
0.00387600332303039,0.0178767204084113,0.00331430665808027,-0.00304267922933651
0.00213427981592486,0.011457901558706,-0.000286885394175037,-0.00272445317954421
0.00171958002498789,0.00836223104051585,-0.00345162136964456,-0.00106471030909927
-0.000364212726305136,0.0119841533013952,-0.0037277806672004,0.00134353238310151
-0.0031789453650309,0.0137914500021294,-0.00244092120828561,0.00312678848914262
-0.00296788942412789,0.0106025019257506,-0.00113533904796566,0.00361922185332124
-0.00424249306668357,0.00779096558847899,-0.00166673208827496,0.00316367478225974
-0.00857529722220079,0.00753004881032217,-0.00304230398176384,0.00246294321614633
-0.0110509688452252,0.00640116739919368,-0.00293740124428281,0.00203458150766466
-0.0119713768609873,0.00408058110931864,-0.00181388565358782,0.00199347678295613
-0.0133246606830004,0.00160787890600314,-0.00359010114156728,0.00203707702651095
-0.0132353943375848,-0.000747301519927077,-0.00693629730493469,0.00196757992443583
-0.0107491132029769,-0.00216678950957162,-0.00775619590571528,0.00177116694521519
-0.00903999166847954,-0.00227780073126831,-0.00719490426220154,0.00142778436275969
-0.0106480701054263,-0.00357719356275795,-0.00623013512052397,0.000977072076385474
-0.0142177530836225,-0.00678050697409681,-0.00530118700655353,0.00053514568668793
-0.0165864513768727,-0.00839269351375986,-0.0063210450069778,0.000106105998179972
-0.0167850094119722,-0.00901233041091107,-0.0073344789831358,-0.000486414207011982
-0.0158390331701122,-0.00967826355155467,-0.00676698553199271,-0.00121150631256906
-0.0147333181426069,-0.00950476146927632,-0.00735476806422015,-0.00185080431092638
-0.0122528723274134,-0.0103619040614623,-0.0113673530032292,-0.00217343853583192
-0.00793117040777233,-0.013613174533716,-0.0193448973211808,-0.00202266491318391
-0.00696624958592894,-0.0165005689016522,-0.0252693820096594,-0.00144214016899176
-0.0109637022800001,-0.0175772712132959,-0.02305810298258,-0.000626713595189524
-0.0155385027704818,-0.0206537332015365,-0.0193426246874396,0.000210197966845737
-0.0199618501959217,-0.0254040611284492,-0.0209923015505225,0.000838436909040947
-0.0249480298963682,-0.0267643538078822,-0.0226214066374675,0.00116012140479103
-0.0302786386398858,-0.0218573157915112,-0.0194180855446317,0.00167963214388749
-0.034415013129613,-0.0154218221470515,-0.0177986891630717,0.00288600084619635
-0.0354120658914683,-0.0195321196503143,-0.0210317362115998,0.00426895457617297
-0.0328792394036114,-0.028176656812654,-0.0206978670541247,0.0049022921374455
-0.0252992964741474,-0.0229678376497234,-0.0122586858870368,0.00442085108270464
-0.0122535135309348,-0.00822295344709696,-0.00162564447222014,0.00318261618575154
0.00191962111420501,0.000735035210937394,0.00376337227712472,0.00125189999760882
0.0132180216771616,-0.0124406097836216,-0.000844924705129135,-0.0015177224683195
0.0199041461012099,-0.0531897244006262,-0.011659730292082,-0.00390451603376988
0.0163068655846632,-0.0901943108577338,-0.0184662683075263,-0.00478404365526575
0.00295508112073174,-0.0951313583562479,-0.0223780159979292,-0.00452652737222874
-0.0139734779770229,-0.0703310076966277,-0.0287672237565286,-0.00313988778537822
-0.0300103218922446,-0.0241011496214858,-0.0281157055678028,-0.000983909987004609
-0.0398484343688366,0.019622350177659,-0.0184720194465273,-0.00021239750319959
-0.0475409700543185,0.028968197247197,-0.0149745051226992,-0.00198186545179428
-0.0474600523467886,0.00765217978134488,-0.0197905934694858,-0.00414600329865689
-0.0205519856088392,-0.0100416966607303,-0.0208527319067567,-0.00322000725786526
0.0172608425962599,-0.00872886564578483,-0.0138255824513153,0.00119837316140394
0.0450245692623023,-0.00491048281883484,-0.00748324983101518,0.00538311685059853
0.0671366578049462,-0.00856657131852251,-0.00709133760643451,0.00633787565562973
0.0664861279325384,-0.025217789738192,-0.0125229760373918,0.00448978086902075
0.0308805852975906,-0.0507922712361948,-0.0236053732539796,0.00141839448357333
-0.0177196976866795,-0.0631589316125577,-0.032125220988945,-0.00156577410180523
-0.0471558896258566,-0.0537918165887168,-0.0304519049611132,-0.00366689600539509
-0.0397974760440515,-0.0207615288832417,-0.018313167883593,-0.0048035271289782
-0.0166791179114488,0.0233970684727553,-0.00309202258027116,-0.00544015223228499
-0.00672885836902866,0.0410519597457263,0.00372255063347218,-0.00570713823276028
-0.00490512057354219,0.024342402966586,0.00348953114176611,-0.0052156500077652
