0.0185362966625495,-0.00914654004962429,0.00820016996561544,-0.00127007393301445
0.0295035704087117,0.0126575712388278,0.00642878130161845,0.000194985757187488
0.0366124994743999,0.0307650944708769,-5.04685023957714e-05,0.00124633465347095
0.0378067696234217,0.0345927495323409,-0.00357419400920218,0.00162887121889475
0.0330270939423454,0.0274133130020236,-0.00363390590357789,0.00140148235344856
0.0246605889744603,0.0166619618046471,-0.00268571215101341,0.000971895075044377
0.0176191308375518,0.013771378805603,-0.00308601260262251,0.000634608764676183
0.0130245604337823,0.0231833760617256,-0.00737112741106881,0.000408917552040262
0.00693801057329629,0.0225073127867704,-0.0120283502050531,7.11539969185811e-05
-0.00229846126954283,0.00138698130562781,-0.0104286298436543,-0.000364169506484045
-0.011493085736836,-0.0130361798310259,-0.00490672390355268,-0.000435664886973285
-0.0170734436355157,-0.00870255542946312,-0.00477306681101254,4.11879361200235e-05
-0.0209895901779356,0.00945765693423042,-0.0125843340981639,0.000404034085060132
-0.0234273893821323,0.0331949139578816,-0.0168242828132689,-0.000275178611455632
-0.0191386040760302,0.0285249116046287,-0.00690438854327737,-0.00148215675630935
-0.00983613049934994,-0.00871046757744078,0.0067623693507964,-0.00141249145219211
-0.0021447069463305,-0.0408425162040986,0.00983449910864491,0.000231496391839532
-3.77532269737503e-05,-0.0541256450485613,0.00745544010609236,0.00182081111162138
-0.00656803920205049,-0.0584705367852344,0.0088499102682802,0.00228807969764188
-0.0163324416640931,-0.0582435157042662,0.0119811011021651,0.00180809108024789
-0.0182313934813648,-0.0507814483032595,0.00921885610613419,0.00105483421456984
-0.0129178722956417,-0.0361145239842468,-0.00282173642322775,0.000654975631053516
-0.00667720136324209,-0.0115648305932012,-0.0181694240504052,0.000547448081861252
-0.00108058408907892,0.0357064881013662,-0.0290278580385051,0.00025831439129766
0.00201066187503939,0.0921884608124769,-0.0301313934502851,-0.000263162936453865
0.00339357885854822,0.11093032807318,-0.020498087747048,-0.000496090314941452
0.00582135033794842,0.0850869217475085,-0.00896913687805506,9.73312828994796e-05
0.00932174413607626,0.0536875912848973,-0.00159516018965238,0.0012939721271508
0.0159537342149646,0.0376378119650495,0.00392099952829009,0.00215266997110409
0.0262032593417863,0.0343404976792197,0.00832164786755782,0.00208838186639385
0.0350682403870178,0.0370678512095784,0.0111616827155649,0.00140203134627486
0.0391125972894153,0.0362102388570473,0.012625045326817,0.000804104034914233
0.0344655449848351,0.0286891911801691,0.0133131526149422,0.000669255736162059
0.0186957360976575,0.0186734492547181,0.0123338306604744,0.000491255462077455
0.000271150795783409,0.00679728389546785,0.0133001104120807,-0.000362632963106689
-0.00687455763359683,-0.00539891901140063,0.0208609233122587,-0.00129750362672997
-0.00315594676063425,-0.0166922327065932,0.0307707977036934,-0.00129140473757233
-0.00992015095466549,-0.0257258940035792,0.0363518196949096,-0.00042541891290511
-0.0351588059163468,-0.0296975660551186,0.0346828444934832,0.000648873618981783
-0.048028644332792,-0.0340037287423302,0.0267577642583332,0.00130320550307918
-0.0228266086317921,-0.0483056264195727,0.0187754348688343,0.000952984918985079
0.0148895205509714,-0.0664064749159401,0.0178379840431897,-0.000215612197492681
0.0297110862400463,-0.073100001238063,0.0196478794568037,-0.001215695942691
0.0210777787005327,-0.0708131460965354,0.0151736290994228,-0.00134122696921368
0.00685796322707434,-0.0634820562089874,0.00132019266342008,-0.000558894848021299
-0.000927259039517878,-0.0375199774968115,-0.0158775589516952,0.000603510587491477
-0.0123000962226731,0.0070658321781763,-0.0230925549436225,0.0014742049368747
-0.0361444825803251,0.0396099753264206,-0.0198492259214055,0.00183769501110048
-0.0506475792871874,0.0452574927901866,-0.0164103502756366,0.00147635808639746
-0.035695478180946,0.0537933498932575,-0.014614455589486,-1.12052828517785e-05
-0.00991008761473923,0.0845110373952432,-0.00940665774613157,-0.0021327123293416
0.000110496953911285,0.104636384060929,0.00122677981414135,-0.00345871282884516
-0.00183676058350176,0.0805069447712852,0.0135994729550612,-0.00343644418077301
-0.00617576148125144,0.0240839145179246,0.0243209621781462,-0.00260554217878028
-0.0104729009225421,-0.0246304751428911,0.0312156867641091,-0.00147340764207803
-0.0086106312154124,-0.0441893226365402,0.0303736862113747,-0.000372605596407
-0.0025571625964881,-0.0448483590444442,0.0224939628030826,0.000351111175748195
0.00166893125310592,-0.0386234034325027,0.0160954536797022,0.000398791050201055
0.00873154672783624,-0.0340931759652816,0.0156443609175691,0.000111226213116459
0.0205182520471294,-0.0390159979400666,0.0189052508812252,0.000269228240969501
0.0267302066026832,-0.0456252109687104,0.0203633075740295,0.00117790808385182
0.026211705990647,-0.0442539290392225,0.014317059188787,0.00226939505127147
0.0254003027678248,-0.0425231455161127,0.00468058475434165,0.00239352084383292
0.0165166672341658,-0.0383555393812794,-0.00222696110471261,0.000980941204851932
-0.00714186718264106,-0.0201322010632081,-0.006744619105301,-0.00109583959334461
-0.0279594611862601,-0.00371280492128687,-0.0093826721252593,-0.0026864947917152
-0.0329208203534942,-0.00924259227665103,-0.00741811310435968,-0.0033971698098693
-0.0338607769537862,-0.0202367578554258,-0.00274077655742419,-0.00265183577451799
-0.0451186037033743,-0.0119781121533847,-0.00419684925096359,-0.000616808648359045
-0.073585967849447,0.0133774758709597,-0.0132825878668199,0.000967196310020407
-0.103478125592865,0.0462514191173788,-0.0227016792631232,0.00100806216804149
-0.0975000010095501,0.0801599750077607,-0.0279689499726238,-0.000223349760364126
-0.044492111502662,0.0879368667080611,-0.0264313011534446,-0.00206806391316255
0.0215634408898377,0.0551492749514832,-0.0181708446489788,-0.00385289705941214
0.0625512688655827,0.0193994449929383,-0.00906394136201139,-0.00485017355902338
0.0687377558618973,0.00569956553428932,-0.00196384042933339,-0.00439919735342421
0.0504547936212234,-0.00371771503067153,0.00407487464219016,-0.00239300009971234
0.0249638835063302,-0.0187596484111122,0.00772353531749201,0.000591002383316035
0.00573210760258851,-0.0271242314872592,0.00815715817161652,0.00341377778759714
-0.00533680191735764,-0.0186406376059366,0.00515940746969751,0.00483915361728464
-0.0108436830973726,-0.000866552576432332,0.000729071422898597,0.00437040524892139
-0.0130712657946066,0.0138315193983316,-0.0029731171005275,0.00288162093811182
-0.0139944688206512,0.0256329146026114,-0.00739904781688288,0.00183414121055819
-0.0153547689342447,0.0398874848446635,-0.0114838980570992,0.00156844081224642
-0.0185292339809988,0.0548938374513812,-0.013636068263091,0.0014188772903522
-0.0185150639113459,0.0600425887163583,-0.0149877591431019,0.000895315765343089
-0.00993449207121194,0.0480967200565386,-0.0158009780399452,-4.74797625138294e-06
0.00153711791724965,0.0283308455635555,-0.0156380221654605,-0.000969330213482107
0.0110540288555344,0.0145979450719061,-0.0156523006746975,-0.00140173089413522
0.0192212434233016,0.0101224533250989,-0.0151189847222223,-0.00102651053610872
0.0211119800376655,0.00672666804838947,-0.0114523446677311,-0.000167288554181764
0.015956170365716,-0.00414400006836664,-0.00434066392517037,0.000860607489054321
0.0111174685434651,-0.0166422245430665,0.00360393013273867,0.00180814590773485
0.00888681491439148,-0.0207883032654701,0.00988362353644548,0.00239617525520384
0.00765470252955118,-0.0195425885612888,0.0144119104295728,0.00239282990570082
0.00754222745555594,-0.0185747449522855,0.0142491323688394,0.00178372267909097
0.0090773596629369,-0.0167490392236401,0.00957382267763175,0.000803779223351209
0.011702965734218,-0.0153456071818149,0.00743012034612862,-0.00013688074538428
0.0125004824113701,-0.0145336067009837,0.00684019920155731,-0.000741535677645701
0.0108472762659843,-0.00896432756359872,0.00234555787214749,-0.00104924921672442
0.0103347288560053,-0.000614752404964745,-0.00206897090677881,-0.00100630471908258
0.0129051003437435,0.00115592323100084,-0.00222035827708807,-0.000684890574091771
0.0165146582646139,-0.00456916248089503,-0.00102731121839187,-0.000406655429768689
0.0162759090732751,-0.00981127270996426,-0.00100923240019888,-9.11073082319053e-05
0.0120229794932389,-0.00710730075657124,-0.00112954679923887,0.000457497604241858
0.00859081696813406,0.0143427424102617,-0.00395957147504546,0.00109891140255307
0.00637992341679373,0.044491159656339,-0.0121086122900242,0.00145103181862988
0.00411613349292923,0.0466837058206678,-0.0172568184244804,0.000922729519996845
0.00314733301503491,0.0133003842462917,-0.0142923957517554,-0.000438669556599259
0.00322108749062492,-0.0248005841060486,-0.00905672346617813,-0.00148008217591115
0.00386813408759787,-0.0448675432714793,-0.00480517197176139,-0.00149796079525659
0.00550395395999094,-0.0472105872101927,-0.002015663320161,-0.000755197359071107
0.00606220358694022,-0.0400572646705943,-0.000687667161797797,0.000326056163015723
0.00434311292319547,-0.0304775373430199,0.000456690358595852,0.00129520987381128
0.00206344352988724,-0.0194971955702087,0.000384154044077713,0.00189718673187077
0.00171794392135221,-0.00251197585337615,-0.00188881802510309,0.00194095690995282
0.00377531831686841,0.0203175836385498,-0.00558033074452654,0.00141452705968532
0.00926789046302522,0.0295235133096968,-0.00960069403913272,0.000552367891360566
0.0181975996887629,0.012320592892096,-0.0122498250125395,-0.000475368677013227
0.0240849737214788,-0.00957173221145709,-0.0123519735347006,-0.00140710795511766
0.0235927883759451,-0.0174950848858942,-0.0109499286368916,-0.00202414318360342
0.0213978861614782,-0.0173346121482237,-0.0110816025850685,-0.00216898335812124
0.0224628906423814,-0.0171179603887478,-0.0133657826588459,-0.00187822699757187
0.0223585661787018,-0.0165474444450745,-0.0148196054338753,-0.00142664998228833
0.0155709300110115,-0.0133085343104084,-0.0163912794265692,-0.000933544511702496
0.00610256309855468,-0.00955550336448532,-0.0192223791258883,-0.000292056191680565
-0.00273704647501867,-0.00638077092598427,-0.0212134371706984,0.000405407035569049
-0.0119071585675063,-0.00235362525538543,-0.0209627228775914,0.000802208870591528
-0.0175691321152958,0.000489050483729882,-0.0187271508034569,0.000798054270105304
-0.0130537890721044,0.000711040727313934,-0.018511002933681,0.000604861794306025
-0.00190648578548004,0.000220030437820981,-0.019794431957978,0.000530038391758919
0.00632684802358057,-0.000742952061425191,-0.0174676963780085,0.000778650088816177
0.00764369700487722,-0.00308134137159797,-0.0111232988095753,0.00125233820363075
0.00609854618638306,-0.00518536958147975,-0.00318475660517383,0.00154934849923928
0.00630246606903048,-0.00544231361712226,0.00188858706774101,0.00138094709383054
0.00625018339592664,-0.00422575417572222,0.00251432294367114,0.000889353931314855
0.00512455639678675,-0.00262859552815442,0.00322280452189296,0.0002666007596639
0.00537916867989927,-0.00117581287210903,0.00358250228739693,-0.000394844883869446
0.00735423582216223,-0.000483879809072524,0.000751172084419726,-0.000869486374311439
0.0105481484983833,-0.000131778478684251,-0.00324062191260758,-0.000961015363913505
0.0135264740509523,0.00118186681254593,-0.00629251849711249,-0.000698180406410074
0.0133493806240212,0.00259521918281709,-0.00883020213154065,-0.000272268266245265
0.0085676301489963,0.00447286238881562,-0.0121310112676112,0.000189813978682128
0.00343921187601669,0.00820884251825634,-0.0147881804257342,0.000693890240169489
0.0019083550982968,0.0102080325309939,-0.0151747992249412,0.001077133825965
0.00114361172919344,0.00861652105503428,-0.0141108089216338,0.00126888023571394
-0.000727760583748617,0.00624781739196254,-0.0128751981453071,0.00156928780469794
-0.00316318214930549,0.00345773648131396,-0.0126702987440372,0.00197373149724757
-0.00473779576908618,0.00126905532991093,-0.0140799917053367,0.00200880080030325
-0.0048799635515184,0.00201639457307034,-0.0153631815808608,0.00157134509476931
-0.00689516679039139,0.00439691315277533,-0.0143286497961763,0.00106732945640407
-0.00884887308025931,0.00320914233583569,-0.010030921328618,0.000785560724048533
-0.00700588502688605,-0.00385545083200722,-0.00230131849285826,0.000717715723228565
-0.00168161734415602,-0.0123671397124174,0.00490068901721767,0.000782443110888136
0.00674736449549208,-0.018509302007698,0.00709275290352016,0.000872216238575357
0.0138189112098198,-0.0215362729911157,0.00619224430245494,0.000664333835748652
0.0172545507020361,-0.0203930308672663,0.00599795985485938,-0.000103130057204897
0.0186885489825851,-0.017499979598083,0.00659503114283691,-0.00111682443346068
0.016642657647052,-0.0182455215740275,0.00752530625679389,-0.00170808735518137
0.0115087717603739,-0.0235284516338802,0.00943972315048531,-0.00157705681581192
0.00730361441326237,-0.0292596451483951,0.0111822404647675,-0.00111993955063621
0.00397503761765814,-0.029295027092756,0.0101513288547772,-0.000869838011453202
-0.00113753909913894,-0.0235374042441934,0.00595989740267214,-0.000913609171005972
-0.00657221743598136,-0.0194332113723407,0.000871524508869537,-0.00104125441367488
-0.0115002724084426,-0.0210091598422648,-0.00590947997889253,-0.000973674072222999
-0.0173608488064851,-0.0169483498349506,-0.0171408354868999,-0.000935583419003741
-0.021130169342941,0.00593245216491396,-0.0273854712655318,-0.00137743573118183
-0.0192057515139843,0.0308055223966014,-0.0276794651296439,-0.00193984486532869
-0.0127691898466769,0.0366559931226441,-0.0199410091937055,-0.00186789212579219
-0.0047993789165876,0.0292628348896393,-0.0112206705430487,-0.000904612142313261
0.00254214196399772,0.0196327442602569,-0.00421848374702438,0.000512413134860926
0.0106929014530935,0.0105074704769609,0.00109243773653308,0.00167452879444453
0.0200125225868006,0.00178101312169517,0.00447215382053174,0.00202507098600191
0.0237245118998924,-0.00269922557355164,0.00495299894099014,0.00124580438238589
0.0175060754026771,-0.00337369839542141,0.00507682237291809,-0.000439379541342275
0.00628936545600809,-0.00689822562862847,0.00948709854998922,-0.00221319787622153
-0.00349731980966158,-0.0123239682505855,0.0159140695784754,-0.00331820842106992
-0.00888627815832005,-0.0148534401299563,0.0152345789021051,-0.00340152261779012
-0.0102175329300862,-0.0153994604001945,0.0053310280572188,-0.00268016347751739
-0.00871262877895656,-0.0167492478685867,-0.00399169437360455,-0.00178310502393955
-0.00812822476270236,-0.015485329229404,-0.00617745758303834,-0.00114782154517352
-0.0176774517711607,-0.00604576823347479,-0.00696736885488073,-0.000814622646327562
-0.035809770123724,0.00718437080001435,-0.0101734321076247,-0.000747691164029667
-0.0408620250178256,0.0128816751981729,-0.0127352391427209,-0.000889056682362856
-0.0194254568067908,0.00637996707872843,-0.0138502847660563,-0.00111950483549695
0.0106592050068761,-0.00838977368431656,-0.0145184998981638,-0.00167252453110386
0.0280368972501974,-0.0230627323285256,-0.0144746624553465,-0.00259207387206946
0.0301238987297497,-0.0276083884537579,-0.0152763787243687,-0.00303974321638839
0.0194120884208214,-0.0150734891942497,-0.0194065133757525,-0.00218085507649838
0.00452184477620662,0.00994604113506044,-0.0214257689164628,-0.00020951124342728
-0.00347727976359928,0.0349343685056191,-0.0156210343633077,0.00195184909939752
-0.00446180904304393,0.0528579593595454,-0.00795152051122272,0.00344526497523635
-0.00567819616904068,0.0567305589092771,-0.00300827146483262,0.00393893817128762
-0.0102425980028551,0.0432642248467528,0.000852829736281844,0.00350647840666005
-0.0110650806518422,0.0214391087489183,0.00529822597158876,0.00239388967740677
-0.0041418913900116,0.000518609303899874,0.0120391297378018,0.0010748133646709
0.00227422154672863,-0.0113818588909867,0.0177280166224818,7.35995742608382e-05
-0.000335131077990429,-0.010751066280646,0.0179109632968487,-0.000551761214775097
-0.00797001534260805,-0.00513257532350038,0.0151359011334347,-0.00127294858947746
-0.0101204193938193,-0.00202451737622843,0.0133936878209553,-0.00201372038217763
-0.00338044108609196,-0.00417193883246191,0.011994873147935,-0.00197001896257541
0.00827050861767782,-0.00955395173685375,0.0105348696115449,-0.00112969046335494
0.0189939195802499,-0.0137260967185125,0.0104274879539596,-0.00034996033469783
0.0257735076752386,-0.0166012747715887,0.0113418150984726,1.32907412306157e-05
0.0262367581480018,-0.0189239893862522,0.0142540354973362,0.000224046474786277
0.0139391823614727,-0.0207881065323447,0.018841707499707,0.000689067269653915
-0.00642330298981088,-0.0197606003786356,0.0189660500177844,0.00157124041388733
-0.0154334620655638,-0.00726190934658321,0.0132313812103469,0.00232057862177447
-0.00958319235490011,0.0174615513538738,0.00418518049591456,0.00218355936898206
-0.00563497197957183,0.050511095557044,-0.00752477839145546,0.000980532437293164
-0.00927162347512887,0.0849787731276616,-0.0168673428038472,-0.000566223788005891
-0.00775460725415999,0.0876354353136536,-0.017720669239751,-0.00135873859479691
0.00360886826995516,0.0457047464658332,-0.0112104188871484,-0.0010445840121678
0.0112251832661266,-0.00290289312583908,-0.0033119222440334,-0.000238377322031396
0.0081544833312303,-0.0317970074668418,0.0054161917093841,0.000150917752297557
0.0032837307799447,-0.0417920790128324,0.0162915841175621,9.66751769965121e-05
0.00197497087191842,-0.0406171824039507,0.0248471325643419,0.000467314154649509
0.00519530442583772,-0.0411598636867362,0.0276620225285206,0.00145404056090723
0.0127034901069253,-0.046126440751543,0.0248433067221606,0.00224591298630619
0.0195754645032715,-0.0434066259653374,0.018830548359841,0.0022613055553521
0.0237882960453724,-0.0282233589839902,0.0152549125947192,0.00175928747515167
0.0241648231452266,-0.0129895910386507,0.0164305659924479,0.00135207593319676
0.0198813750957095,-0.0076012453515021,0.019062149664855,0.00117696802210915
0.0152580512262767,-0.00620655238248811,0.0201440914511528,0.000951461241570501
0.0085384693522132,-0.000584373317654093,0.0181483044281537,0.000584579109394702
-0.00606250102931101,0.0116112372114521,0.0120108411634075,-1.48053140771097e-05
-0.0196901970760058,0.0271277358622448,0.00616517359900104,-0.00103130276530073
-0.0195882165808059,0.0320237486284707,0.00524236073525005,-0.00229096805340558
-0.0110420996118623,0.0165254230451788,0.00733423217512265,-0.00306000694574426
-0.0061364536541841,-0.00300404997890855,0.0103460392241877,-0.00262344648099312
-0.00819846004191868,-0.00651484248818295,0.0124533727494443,-0.0012280149883995
-0.0187481102904263,0.00501820635910949,0.0104255030790342,0.00032748588084369
-0.0371676752157184,0.0201296434441506,0.0055269135424355,0.00144183894169635
-0.0470201706700321,0.023106596899522,0.00345572990513646,0.00163837821923398
-0.0279873887179782,0.00958322416915196,0.00614984486293704,0.000841534498435764
0.00624129545558473,0.000356740174242011,0.0112264626014637,-0.000438889149655028
0.0219041298167588,0.00928794365089681,0.0143171621130792,-0.00150511823885042
0.0157825442144365,0.021320289199241,0.013793653716538,-0.0018765085720345
0.00495250629728736,0.018975609924676,0.0119248426329019,-0.00144900781311456
-0.00507668127042066,0.00142709118008045,0.0101904004637564,-0.000777272780094567
-0.0147375633830406,-0.0182253000764416,0.0103559189903617,-0.000519502108061683
-0.0238986772323769,-0.0244940976887064,0.0108514879210574,-0.000457242807525027
-0.0305528628041716,-0.0208421102267904,0.00814726086707626,-0.000126714912360064
-0.0305184144691851,-0.0233074985571283,0.00416984798855381,0.00040088037028339
-0.0248392043122284,-0.0359358427445022,0.00148124993494897,0.0009373777343871
-0.0181057199906761,-0.0441256832545941,0.000473957948016752,0.00140646557136344
-0.0125391239896958,-0.0348690506409428,0.0026141800576727,0.00176897565560332
-0.0112145339181256,-0.0173178831957594,0.00474627051306385,0.00206269314397334
-0.0156341805388296,-0.00383535330485069,0.00117514274888929,0.00198892665585028
-0.0191175680164576,0.00489681085487797,-0.00397621085524514,0.00120570160734488
-0.01906114333397,0.0105055468303939,-0.00379220728035528,5.83511151463368e-05
-0.021142235754047,0.0117813658964876,0.00137186391744004,-0.000659216077162121
-0.0219744233287578,0.00928197720330365,0.00700867610339585,-0.000560863906318589
-0.0137070786722143,0.0065787727901308,0.00926814251059412,-0.000317337770878686
0.000608255099592968,0.0069822487036589,0.010186834487337,-0.000607460578454486
0.0108480543831264,0.00986798449712988,0.0132162805762303,-0.0010084378693278
0.00958736130825943,0.0081983556981358,0.0181307200651042,-0.000902215287270238
-0.00114870371338108,0.00506629072529718,0.0191199561533024,-0.000190451669527637
-0.0153281448789349,0.0129589084891459,0.0126174925374497,0.000670534932620282
-0.0319813963280823,0.0268276933619537,0.00793018317899821,0.000880618068293145
-0.0499563181210673,0.0292215123537125,0.00955597375597152,0.000358823998881977
-0.057588455721978,0.0154063750419301,0.00952383684196488,-0.00031469149197178
-0.0416822895879941,-0.00470861984286442,0.00639958671438351,-0.00092060672610987
-0.00239313216156493,-0.0204609130886198,0.00500363110480815,-0.00138882066968528
0.037173201439248,-0.0317072981997889,0.00344638028519593,-0.0013717605854999
0.0440808439952733,-0.0448023569149716,-0.000242044429490343,-0.000807957335288743
0.0272259223623142,-0.0505022741991903,-0.00113214852473405,-0.000106262526612051
0.0252410153496562,-0.0300489486609242,0.00141328098672183,0.000514760427174351
0.035102313815369,0.000152104930902446,0.00342260058472486,0.000872634433930717
0.0306262188299295,0.00575729276626145,0.0052902441316703,0.000961483817313175
0.0181456272056068,-0.00713012181650616,0.00861376821119963,0.00135333247469595
0.0126487076114356,-0.00899152822680706,0.0107359366485211,0.00209260309018773
0.00315689556110148,0.00719857276228832,0.00743004896952402,0.00246359079852547
-0.021446924862376,0.0286658270319257,0.000293284449092584,0.0021920720074402
-0.0412105812520832,0.0390177299995409,-0.00432179740068577,0.00167269708736557
-0.0347218175898481,0.021597945587856,-0.0015137844745365,0.00118000410270392
-0.0162715237964053,-0.0139138739673553,0.00496336336174922,0.000834927038685478
-0.0075736404116781,-0.0283668496835206,0.00458759472410886,0.000827589018815065
-0.00324581958209563,-0.011269245139537,-0.00341342407611991,0.000841002765779218
0.00703151421895895,0.0119283756680764,-0.010773002091978,0.000265779760783896
0.0142726364361212,0.0250020411134799,-0.0134436403055766,-0.000916257128649454
0.00953726591883903,0.0238530037281177,-0.0121311156006148,-0.00200743385075652
0.00130509022423265,0.0131117456482564,-0.0100578591751069,-0.00243184516027763
0.000450266807076001,0.0146407545836219,-0.0115827626395025,-0.00232814703973973
0.00814907866923362,0.0362664115156574,-0.0147909852297513,-0.0020607720938999
0.0157182790170547,0.0478025051214743,-0.0126180390947411,-0.00174728039309254
0.0135235203313394,0.0297310274507806,-0.0065072949700809,-0.00111507904528917
0.00711246308100689,0.0053100512280849,-0.00178350882322374,3.24755363975992e-05
0.00704428255415756,-0.00646775741850308,0.000856551267552606,0.00122439119233857
0.0113601134138353,-0.0122695524298913,0.000914968713333218,0.00174913636592318
0.0136406321732777,-0.0193015494122277,0.00105010941826302,0.00145509238022548
0.0137527643394371,-0.0280440735410103,0.00413897697397428,0.000930568594652701
0.0120950877220387,-0.0325040420668771,0.00616170500461749,0.000674442881640247
0.00713014405933694,-0.0275127085311559,0.00390677588380454,0.000488215888041277
0.00207816697218943,-0.0131515670126955,-0.000342947411149611,0.000122103207614878
0.000506932290517185,0.0066406070290749,-0.00446490801870832,-0.000363586218842904
0.000498604561179401,0.0192980922982284,-0.00624508778304236,-0.000823065579105294
-0.000457473365718532,0.0191829227076358,-0.00627623165604749,-0.00110023757555094
-0.00232088632556298,0.0157309803154242,-0.00884328546806872,-0.00116486455390489
-0.00262171244462336,0.0148124877116945,-0.0127791540767575,-0.00099899347823751
-0.000585127400079048,0.0130263593778801,-0.015007334006426,-0.000571151533167842
-0.000590580702459705,0.00642163509023175,-0.0165906083174411,6.44329933165864e-05
-0.00747698066394241,-0.00104019055230527,-0.019543088344997,0.000696996675486715
-0.0187748995864785,0.00299248798032565,-0.0269977669842269,0.00100274995911875
-0.0242945700833617,0.0211771086926833,-0.037466214879188,0.000906519648187713
-0.0202186174026563,0.0350022900834768,-0.042358766258605,0.000455007740709802
-0.0138151213720408,0.0322647820608634,-0.039600241969236,-0.000181617220605419
-0.0103600726319932,0.0207438699103797,-0.032362792586529,-0.000471157147062843
-0.00696117170381271,0.00754796950295521,-0.0242342413519057,-0.000158199140739103
-0.00214419505517503,-0.00416551955108981,-0.0184169324686943,0.000409389747283178
0.00187354666391026,-0.0133945122445413,-0.0127970647383875,0.000809015375811034
0.00457213317903814,-0.0219230376708707,-0.00709423547798478,0.000867015346191833
0.00555842843041175,-0.02725005986267,-0.00210277108641548,0.000544279726759533
0.00708465240721011,-0.0261581725788965,0.00279219272556396,-0.000222130976822382
0.0113677661374254,-0.0217774802970796,0.00446553378865213,-0.00133988325608037
0.0137632640290504,-0.0184996412101521,0.00258653781092778,-0.0024834308463066
0.0108488897480151,-0.016458794034187,0.000647797838384605,-0.00324623874816574
0.00762451353236641,-0.0130835731158391,-0.000450846583682116,-0.00325470458312884
0.00646961023298563,-0.00683191842662987,-0.00256599782105683,-0.00255243968758837
0.00424771013233158,0.000586640893360108,-0.00624215304093596,-0.00167564644148354
0.00184236282798139,0.00409231760929984,-0.00746998571153189,-0.000845829106424604
0.000372485212793679,0.00211455119954887,-0.00710020505805773,0.000251034935070757
-0.00106562229014148,-2.60854985947821e-05,-0.0095668024697255,0.00151449960341284
-0.0012483718990806,1.84975391494288e-05,-0.0135083679055993,0.00237032595858209
-0.000320805216529882,0.000524922845886077,-0.0165836392272101,0.00257131350723784
-0.00177967010535111,0.00131309300167826,-0.0168204557267939,0.00232854828692757
-0.00563686124496211,0.00302948929221206,-0.0149291186859254,0.00219163099235013
-0.00640645159913796,0.0051820070134206,-0.0141421327844379,0.00230271961291534
-0.00370779657886233,0.00583734013141284,-0.0141349118283789,0.00214239951728541
-0.00251910999383206,0.00643905390692878,-0.0141051022345163,0.00157728444704499
-0.00356760426711873,0.00870805932728451,-0.0115294385323571,0.00101471244515981
-0.00515307756858607,0.00823461562625977,-0.00562976332075325,0.000659086796958858
-0.00611612290258782,0.00445709649067664,-0.000995794175663655,0.000261111229031163
-0.00580670930275514,0.0010309045670305,0.00246690506601986,-0.000203043286794133
-0.00536405000500054,-0.000844469043627034,0.00525520606327456,-0.000520246412623997
-0.0060140467107293,-0.00121331621546395,0.00638130114658295,-0.000711299486421268
-0.00734275098422919,-0.00308288763749127,0.00831533031388788,-0.000754391060502998
-0.00699025354289691,-0.0069838435524811,0.00999716011207291,-0.000517556465620654
-0.00389220173582073,-0.0102298667970615,0.0096458278992566,1.90326545643984e-05
-0.000539775907364403,-0.0140425733063029,0.00819198673674767,0.000441984719189115
0.00319988260009081,-0.0215460871620216,0.00704874604865481,0.000340635267397838
0.0076197965463129,-0.0291897612783082,0.00794980773802496,-6.06931897564012e-05
0.00899290521614133,-0.0299787619157847,0.00762518614784292,-0.000480988305995503
0.00788383181137709,-0.0265331685445324,0.0029921628141697,-0.000865625416359142
0.00430871870107632,-0.0207567798876718,-0.00337935486294478,-0.000940387907095818
-0.00193838280880738,-0.00785843185367521,-0.00799228407400649,-0.000528796639314371
-0.00382904336163127,0.00293916632955697,-0.00711726044951902,-1.51006033310207e-05
-0.00015499985375915,-0.0016151229446553,-0.000607062088168174,0.000208290777331215
0.0030168564672685,-0.0149239799906927,0.00667205002986365,0.000235540889331466
0.00281237351906067,-0.0218946881917727,0.0115872857097711,0.000406032442774779
0.000101185324637831,-0.01494347332894,0.0148649340193366,0.000932633275158847
-0.00214205824145916,-0.0014619537956573,0.0169799124626229,0.0017041979710991
-0.00282330672065,0.00234142575306298,0.0180260035845591,0.00231476066915183
-0.00347708740229631,-0.00720866493074408,0.0195995696168379,0.00231471331243326
-0.00376215488961641,-0.0210940016466744,0.0217883399477436,0.00171417918005498
-0.00183349724592034,-0.030858973477684,0.0206480472618625,0.000952694153770436
0.0010240713636146,-0.0349193254005583,0.0144273897356143,0.000412696787504975
0.00175049455413599,-0.0280597861337714,0.00523225230120496,9.39989624537067e-06
0.000661668726628718,0.0037474305772598,-0.00594248325778506,-0.000579110744031051
-0.00204101893205081,0.0428439409415248,-0.0136536760002963,-0.00130858194291892
-0.00758207660083992,0.0461739042262791,-0.0118678936374215,-0.00193760473861654
-0.0118945720967946,0.0128889130179155,-0.00202949159750485,-0.00199355210162503
-0.0105392225339294,-0.0224560927484352,0.00980187357133889,-0.00128418292275485
-0.00512658058361044,-0.0404539604907805,0.0173285763389925,-0.000435285871476581
0.00101379148705033,-0.0404321579399852,0.0198642747979184,-1.57630968068371e-05
0.00439065016366695,-0.0233690746642047,0.0177525123734946,-3.51383171967881e-05
0.00458911579279407,0.00783781298948784,0.0113489163923203,-0.000491006480387215
0.0040343357561412,0.0407049584875003,0.00301934700982766,-0.00154205836386393
0.00286232103314609,0.0556485337070752,-0.00388826400648876,-0.00283123151490594
0.0035889366950727,0.0420937474680722,-0.00408963697539968,-0.00370781513067774
0.00847676108975894,0.0144318209523971,0.000576176608742273,-0.00388106784227898
0.0141689792724069,-0.00672451912906399,0.00509783519616791,-0.00341892574031732
0.016948040499239,-0.0171724497448169,0.0079260056511929,-0.00266482519268753
0.0138122533610985,-0.0179388732363827,0.00968872372598277,-0.00193343140401992
0.00529981581412871,-0.00782109351925652,0.0116184298137378,-0.00135328970243987
-0.00135332134795943,0.00810791274418578,0.0119622216469408,-0.00094092906539804
-0.000735752017286501,0.017634153161312,0.0134847543436638,-0.00064712855630042
0.00514295019749091,0.0158246909086004,0.019215023131292,-0.00036083843355464
0.0124796878953306,0.0119446124415466,0.0232465797207392,8.47258041420085e-05
0.0187284182492979,0.0118595004194139,0.0224172321347689,0.000573311316007522
0.0215695140986249,0.00997039526055546,0.0209522905160389,0.000997710935566247
0.021518525698875,0.00299058206623757,0.0205122248462429,0.00131483460058788
0.0223283014221361,-0.00625081852404458,0.019240990404797,0.00100084617431554
0.0253960589372564,-0.0136714989471433,0.0172039792687179,-0.000141781204335191
0.026144912360642,-0.0193797273503436,0.01556598936693,-0.00137458956646291
0.0177680944448894,-0.0249261442769266,0.0126223084787173,-0.00204369076468111
0.000399131040317614,-0.0251092811903281,0.00567156985364198,-0.0020095959113237
-0.020120449022931,-0.0163249368933438,-0.00530200628953293,-0.00133135989271524
-0.0428433413276409,0.00103737227487345,-0.018075270059085,-0.000401615627814967
-0.0641106922950712,0.0254271945883437,-0.0277785159933035,0.000317542335756948
-0.0693877148358204,0.0481764454105238,-0.027751341066818,0.000582721826658112
-0.0542631257518726,0.0615513880490214,-0.0169355773483563,0.000297610332590165
-0.0348687271488522,0.0658123772774089,-0.00122617983574954,-0.000231905465543646
-0.0218473404988434,0.0593127608105164,0.0121370452713886,-0.000442076115939392
-0.00896552336302216,0.0410634703700534,0.0181706809543985,-0.000341328910041682
0.00669838211849105,0.0154904554993084,0.0188443388177491,-0.000566269427995107
0.022539054411434,-0.00963996684901377,0.0199460626889251,-0.001485879447463
0.035148736212584,-0.0265415743390535,0.0237396147130834,-0.00264605191279117
0.0396155715594726,-0.0358413055750847,0.0285651689144317,-0.00296112370767316
0.0377197500926204,-0.0390482262860436,0.028837159699944,-0.00157845090707174
0.0329276331185561,-0.0348870401058059,0.0220142862769808,0.0007772633657516
0.0256839233870015,-0.027259931197282,0.0136094920653809,0.00236412713939356
0.0184068340027938,-0.0205352439795434,0.00909338441354682,0.00271934675286972
0.0144243604869643,-0.017256324328541,0.00752588787318149,0.00272531710485643
0.0123662453726699,-0.014256851000616,0.00402144004799782,0.00287158442820002
0.00493482222305401,0.00101286326541741,-0.00136549145705891,0.00285960323743114
-0.00622260819690706,0.0236997987827828,-0.00469913483114863,0.00248388909534846
-0.00797209427013554,0.0284952012941162,-0.00342057457838687,0.00218673829642133
-0.00147354833368081,0.0113212366904695,0.0015434919992559,0.00257515515618603
-0.000333124679972187,-0.00310036379873642,0.00371592918752053,0.00347540830275562
-0.00991103656140807,-0.0035564513978825,0.00150190830269487,0.00412784688465023
-0.0245763941553049,-0.00245436907640974,0.00177054346738554,0.0040170851244397
-0.0343860026023955,-0.00323891014415868,0.00500564212735676,0.0031486774002971
-0.039646085211727,-0.00252383653793034,0.00765558804183043,0.00191740351814704
-0.0466632291915307,-0.0019549410917314,0.0108525968654094,0.000657679015780631
-0.0506704401098927,0.00913535517736936,0.0119579597275903,-0.000505043634019295
-0.0405480294304757,0.0333672656918555,0.0091346933941685,-0.00163678901093697
-0.0180334161492595,0.0417824473422335,0.00670929095100993,-0.00269034698359027
-0.00145308524613037,0.0204585420834208,0.00583848280297647,-0.00302887539839295
-0.00546280768066442,-0.0161622225777636,0.0036747725394111,-0.00222555762384246
-0.0239070028113576,-0.0560801264143026,-0.000362641482821998,-0.00076757853844867
-0.0320417472411284,-0.0831915730662097,-0.00218918906084506,0.00046542777921553
-0.0132894168853745,-0.0777156959001793,0.00127182432131227,0.00105276362246792
0.0189393163144444,-0.0363738140356329,0.00506054533075091,0.00138671748382552
0.0387739945724936,0.0280879892711159,0.00246475751758637,0.00191046042760647
0.0344867515252205,0.0876301324492216,-0.0054925699846201,0.00229676345388997
0.0123683121903288,0.104501857767209,-0.0130102431766391,0.00184678071884406
-0.00748706629400963,0.0715946925909834,-0.0164029390496221,0.000674419166940345
-0.00838310860222612,0.0277575623807152,-0.0152744277335818,-0.000476690928778655
0.000429935398069264,0.00501017899508828,-0.0100165450354098,-0.00118876227509797
-0.00215336394207974,-0.00149528061822143,-0.00254760082272225,-0.00114527136986248
-0.0247611151634403,-0.00471665093551338,0.00419890642603322,-0.000213836617359439
-0.0571247961988825,-0.00743098071339101,0.00800171254546089,0.0010650343912702
-0.0750441156794708,-0.00727823458954461,0.00850834805756137,0.00185538403783685
-0.0703524959103331,-0.000993144770210633,0.00665472048296523,0.00173999953458066
-0.0541754995273416,0.00431001372704852,0.00250131592403528,0.000769370455404949
-0.0246669295617286,-0.00359544853286826,-0.001307739283714,-0.000732297002948043
0.0147077976055042,-0.0170666686182714,-0.00096043334524663,-0.00223620807640041
0.0358761594537061,-0.0220215664434632,0.00291887590145122,-0.0033539446719927
0.0242845583843571,-0.0167004424121291,0.0068350381522881,-0.00364782290032777
0.00306173860385346,-0.00722701165925773,0.00788649820570932,-0.00299534907290428
-0.00210280643923925,-0.000942561761726983,0.00820293594570346,-0.0019733741129369
0.00380728386903636,0.000791187598252953,0.0098235551870138,-0.000940002136352444
0.0110631395410456,3.62504273314019e-05,0.00884367767088049,6.82327037063602e-06
0.0249963030654232,-0.00351271907954686,0.00459154779879128,0.00052200792749239
0.0411763254997377,-0.00991115667224333,-0.000809092021660298,0.000369064779668577
0.0437835997860252,-0.014841390759393,-0.0060417811298907,-0.000355227828194576
0.0296195487132083,-0.0135162692437298,-0.00942564807218486,-0.00116818690953876
0.00613913599858328,-0.00565403197158871,-0.0121319113615948,-0.00139121290161811
-0.0196564674211522,0.00262990210899424,-0.0150196991677708,-0.00102207568596323
-0.0389235250053829,0.00664817742721789,-0.0156019376590454,-0.000600798028167848
-0.0453655891341468,0.011734405460029,-0.0138145561080712,-0.00040011079545305
-0.0420769281701311,0.0186977692047564,-0.0119756224723166,-0.00055421143930131
-0.0308897755484808,0.017397346142334,-0.00897868118726553,-0.00104114046500748
-0.0144048673445181,0.00773666399833209,-0.00456319479228698,-0.00136706634315078
-0.00320050950887564,-0.0012760958168501,-0.00108178321146631,-0.00114447338578115
0.00092173895356602,-0.00750528348351872,0.000688922947843609,-0.000461425858627962
0.00565501058042106,-0.00952679620419368,0.00128837712518003,0.000448063333612122
0.0108394578511907,-0.00796421989686124,0.00154267751171766,0.00121440436468537
0.0140564942530836,-0.00772373610070019,0.00120083434142154,0.00164125038907839
0.0189568702150365,-0.00825008523909597,-0.000176866627196718,0.00184357443819954
0.0243363277277769,-0.00882083222300237,-0.0008324999717663,0.00165443128474247
0.0255451776656307,-0.00996137379879146,0.00089765376907323,0.000969868094595272
0.0238967030932619,-0.0099452987779382,0.00316171251750363,0.000321883077354204
0.0238482609570772,-0.00903018985401923,0.00339637099753988,6.43126890428627e-05
0.0265265748691397,-0.00797158863901909,0.00199112540853693,0.000137305081211188
0.0292780706700014,-0.00702874361595225,0.00248294675012433,0.000503827439567934
0.032321169945649,-0.00706309721772101,0.00394588155924544,0.000864627828134273
0.0330348518761386,-0.00713497646203915,0.00210550123572288,0.00080380773765649
0.0249851281755082,-0.00397330921825857,-0.000114752779297908,0.000512979587877013
0.0128928995522839,0.00224106880057221,0.000654133774306143,0.000508692174926837
0.00732283653606211,0.00519529064477206,0.00249963792406174,0.000800961056323534
0.0100007074329342,0.000790214096076818,0.00432335799078149,0.00109041874995437
0.0134112984787396,-0.00807799233204468,0.00733815781321864,0.0011177962770628
0.0126532624673492,-0.0156724925783185,0.00912035940219651,0.000884396202358301
0.0103418358267076,-0.0181512115044983,0.00565690104327225,0.000721517874416088
0.00719617329477577,-0.0170102597600214,-0.00071516130833672,0.000704232166752613
0.00159361813626889,-0.0177875871041933,-0.00368537152460603,0.00059218950116782
-0.00553296629400339,-0.0224213217927979,-0.0050421691668802,0.000383195381978229
-0.0113242766011133,-0.0204007404156923,-0.0119579641386052,0.000291300700042796
-0.0120946756724282,-0.00293173293390173,-0.0200337251581661,0.000378892517413436
-0.00769699730044659,0.0185206692872967,-0.0234911659332981,0.000333011561439378
-0.00374236022995217,0.0318841888196391,-0.0256253223478518,-0.000169070828210484
-0.00424571217762172,0.0345657915686772,-0.0251373553490693,-0.000923571732268842
-0.00795445954672992,0.0241660073931757,-0.0173450899388594,-0.00142229648267392
-0.0106508005021948,0.00539353991222088,-0.00641079328736916,-0.00107784987569113
-0.0102633572215887,-0.00885152791139805,-0.000827284008558013,0.000294513774521651
-0.00963139250948002,-0.00671169931636388,-0.00174420465275353,0.00175567346284351
-0.010056189838322,0.00747821397249549,-0.003314746090432,0.00225032279523361
-0.00699729877791909,0.0180735469076715,-0.00321193574440576,0.00191124934688314
0.000534891964019304,0.0225074662911949,-0.00343911966367345,0.00147459806916117
0.00561107226239541,0.0247511961637552,-0.00260107491221815,0.00130069977357481
0.00763036521941974,0.0226544393963391,-0.000574415952481662,0.00117278720955133
0.0124542377374204,0.0164996166022607,0.000664012042993804,0.000788768120667416
0.0176330380429316,0.0100763065691893,0.00178045824781623,0.000148446547781348
0.0196448010585477,0.00149255084387458,0.00516749347445751,-0.000319054324447327
0.0244584928985936,-0.0115573853811371,0.00988415170235042,-5.53132217738438e-05
0.0302754414205824,-0.021155668617223,0.0103240741659478,0.000591513850958337
0.0238346809608053,-0.0193134007192511,0.00625370525739512,0.000639427356282955
0.00549748216145863,-0.00594255152452238,0.000270649664887029,-1.69774651514632e-05
-0.0105389242962436,0.00975072269080132,-0.00607471169018951,-0.000854897869576939
-0.0153417816816132,0.0145916844227042,-0.0105250544915281,-0.00180821134596714
-0.010718341913509,0.0119358513184963,-0.0130992854677278,-0.00284786599349062
-0.0054396789779013,0.0129475581996673,-0.0150023844151818,-0.00356243368077984
-0.00468504592111957,0.0163839765343774,-0.0167831744078216,-0.00352677824764278
-0.00693963935206517,0.0180622693573443,-0.0160995668846542,-0.00262047768790521
-0.0104040021026588,0.0188603336567408,-0.0124916682916962,-0.00100472570217237
-0.0122082893346257,0.0183449171818116,-0.00992319776072574,0.000817919110841594
-0.0107202839466893,0.0167303822075051,-0.0101352802187353,0.00206820091896661
-0.0089255306473253,0.0183397517513504,-0.0139119450876447,0.00241232777582625
-0.00730301753804206,0.0229143161685696,-0.0192219687678704,0.00213256703733949
-0.00394446641228154,0.0237134754322792,-0.0185876142956642,0.00149688293906787
0.00175044914181427,0.0189883420002184,-0.0100943765328956,0.000716375634326451
0.00916408592937384,0.0149698070168406,-0.00231989370479364,0.000124869651159613
0.0136303846073906,0.014795744404684,-0.000589966148312845,-0.000245152005326175
0.0124640273045762,0.0165556674531937,-0.000759293507404744,-0.000478260977368299
0.00843058845424803,0.0169509014137079,-0.000141140925361074,-0.000605029946795257
0.00495931417610575,0.0133488214781448,0.000416814810378877,-0.000797407649673108
0.0050380385152929,0.00810802708613726,0.000851064415005598,-0.00104289799042891
0.00678072352556494,0.00562675477987206,0.000263092908352521,-0.00138889897801103
0.00604886079876392,0.00606966944467802,-0.00251819588067114,-0.00190279259536517
0.00604851020980936,0.0052860010380757,-0.00576961350192392,-0.00222229838277647
0.00907974267075634,0.0026987942104542,-0.00789208190718768,-0.00212404732421707
0.00969198750768382,0.00117887461639757,-0.00940745494988825,-0.00165895101621368
0.0055408283536992,-0.000989806795462133,-0.0103695946312686,-0.000938326348794624
0.000203672391794467,-0.00279020484613185,-0.0114067844266092,-0.000177155286123044
-0.0026526428198864,0.00224169601382959,-0.013189890665271,0.000459548878153454
-0.00306606156240087,0.00989054297281908,-0.0138007101120348,0.000694450999643795
-0.00366209939769207,0.00814085484828922,-0.011123648475485,0.000379020543910231
-0.00512763136167224,-0.00217984046746239,-0.0060341846204604,-9.24539712612892e-05
-0.0054664174380584,-0.0108755658075055,-0.00270838707944187,-0.000240672945215392
-0.00401559319584771,-0.0156587343462728,-0.00293600091672346,-8.34578012759472e-05
-0.00214387442790786,-0.019474762598633,-0.00440978338792046,9.15387189812226e-05
-0.00106763137036098,-0.0225879798474232,-0.0054105083637265,0.00019762122311651
-0.0003205963100464,-0.0247270794042034,-0.00360545326509249,0.000209431645030706
0.00238897262141547,-0.029244901831785,0.00289282755585433,-2.28611860819358e-06
0.00560759271777084,-0.0353337663156157,0.00967527154047317,-0.000307650520754648
0.00509724177325539,-0.0307198689032251,0.00954983563178474,-0.000416623840045673
0.00192588004310277,-0.0120129106703201,0.00312561921540063,-0.000621348124796163
4.92056488606797e-05,0.00606719498433574,-0.00250437892726356,-0.00128020709270071
0.000250486357665816,0.0159983621079241,-0.00626969993002243,-0.00202823665464909
0.00100853109699453,0.0220598801624518,-0.0109855183745164,-0.00262559828138937
0.00238196590935971,0.021015735732833,-0.0149275114352072,-0.00315319344148086
0.00520136044564102,0.00791868886320687,-0.0153195561103221,-0.00317864355257567
0.00813058653362369,-0.00909723569582672,-0.0122174076164764,-0.00204962648949572
0.0092714796748981,-0.0163164157834947,-0.010757159274689,-4.65713544707275e-05
0.0071517130462238,0.00153656472890598,-0.0144980104646276,0.00164690314432684
0.00215933131637272,0.0421990014536369,-0.0186516981678521,0.00243662590494471
-0.00343586545307944,0.0619793906810019,-0.017879349910847,0.00265309035875879
-0.00663745125860731,0.0330667735540497,-0.0136603478893505,0.00267450175029655
-0.00751361742419048,-0.0117060977806785,-0.00721654563780193,0.00276003704433191
-0.00796918369194918,-0.0365301429770552,0.000726372607187321,0.00286379123406987
-0.00703269668355109,-0.0423452903185104,0.0070481439827376,0.00254758856663777
-0.00628638021101244,-0.0422732606328433,0.0097090073715359,0.00157264775790975
-0.0101115018092333,-0.0416732495097334,0.0100229047430151,0.000298954070492273
-0.0171573315528788,-0.0382044207748583,0.00968111950770349,-0.000506394942853497
-0.0190510673715385,-0.0236886475670317,0.00591371462864325,-0.00055052810127461
-0.0095960401243268,0.00235374051299872,0.000341696202260627,-8.44129342873776e-05
0.00701111361334216,0.0219791703461743,-0.00044930144496004,0.000492685959467642
0.0199640557815034,0.0235008149720584,0.00884954350596862,0.00060358981700841
0.0237095381618101,0.0184292059993338,0.0236543201545716,0.000373605453103129
0.0229642989136736,0.0170807821113075,0.0301939027938627,0.000605343436037163
0.0216886996088043,0.0105677142984092,0.0265239930222957,0.00128989666620096
0.019061641245748,-0.00873769773647283,0.0218720743272393,0.00164390356221531
0.0162826970637973,-0.0297892279895397,0.0191159588042848,0.00137713941327876
0.0139874217978553,-0.0410054270362373,0.0143575106539623,0.000955793575721633
0.0121226053289505,-0.044142505733042,0.00998779433141114,0.000870626126624352
0.0101975818881364,-0.0457209852882337,0.0137280157050451,0.0010806819818792
0.00591727235677249,-0.0494956552056816,0.0226591786330929,0.00128752662377365
-0.00405200363176119,-0.0497823267404697,0.0268683667785055,0.00148349201914682
-0.0178489505269018,-0.0396591131505576,0.0233803044712985,0.00187229594418135
-0.0256015291519265,-0.0245156103341127,0.0153421439747723,0.0022557490752265
-0.0253360549977646,-0.00597553616545722,0.00191296832709134,0.00210615597978218
-0.0208203476089805,0.0224228826248136,-0.0173029490030429,0.00113027852651424
-0.0110370264107779,0.0580572605511504,-0.0304622125012193,-0.00068945566808508
-0.00388421649225386,0.0863799604800831,-0.0287201841032168,-0.00282045949141617
-0.00861134475404923,0.0916199388864166,-0.0176052085634918,-0.00428788033072886
-0.014188217486886,0.0679720987574295,-0.00388997785482276,-0.00454277502570655
-0.0084835943965561,0.0258163980427883,0.00825660930228567,-0.00371610963735109
0.00269666866562116,-0.0131157975965153,0.016749355677583,-0.00220243711346486
0.013196403696043,-0.0344872211860088,0.022188421317095,-0.000310008642762431
0.0227792996484074,-0.0430922057100933,0.0247225577522919,0.00167695426385611
0.0276697363674701,-0.0477613623598897,0.0251001207901939,0.00328064001706603
0.025321673613342,-0.0478487665776249,0.0232993305841139,0.00395330598869559
0.0186919577386148,-0.0423854464389577,0.0191339843965408,0.00353495909746222
0.0107346971965491,-0.0366543539704741,0.0148666977266451,0.00233475388482725
0.00557676212503162,-0.0349920286742317,0.0123345558162426,0.000890575984177699
0.00606257440237818,-0.0344824609209531,0.0107670155700004,-0.00042603511926266
0.00876175259584135,-0.0311501335088257,0.00862640877388466,-0.00143939743303572
0.0127037785117559,-0.0204275392283321,0.00756832730056375,-0.00199525542832834
0.0178268604400904,0.00647832736682033,0.00626185739605302,-0.00219327265199978
0.018842376367557,0.0445780714292992,-0.000509562572498809,-0.00245023759414604
0.0168767899619812,0.0651467509778248,-0.00744598657062208,-0.00307774520321205
0.0184462280770125,0.0530875237273998,-0.00811354540542882,-0.0037890351179869
0.0197502394454027,0.0281618160909224,-0.00643682589113387,-0.0041079444087698
0.0187837627594902,0.0121667669818356,-0.00489225462707715,-0.0038163506246633
0.0216814819738795,0.00554835713101866,-0.0032876134804844,-0.00310362526967016
0.0269560024102627,0.0012906969135964,-0.0027325613852489,-0.00234395695968423
0.0281654770476412,0.000533570021517823,-0.00354014475960165,-0.00137482682861926
0.0209042659788912,0.00331801391985126,-0.00565734465233928,-2.1054939186502e-05
0.00787757050456342,0.00148266949519143,-0.00913610252263321,0.00112971136732722
0.00115372954546941,-0.00540608844440404,-0.0128414945291545,0.00117510331621272
0.00564267027747059,-0.00762283457195209,-0.0143387843705287,-1.51958544234968e-05
0.0133801746039081,-0.00300239534661919,-0.0138570486220015,-0.00132901467848254
0.0176018667182421,0.00212096911606246,-0.0134075967810819,-0.00186485674111915
0.0132642044092852,0.00110923578398071,-0.0133807936898065,-0.00174029632049099
-0.00995446681688816,-0.00286401205010321,-0.0131329426287855,-0.00138095356048902
-0.0533925075104503,0.00473891726036023,-0.0129207238969965,-0.00107677878689822
-0.089949005162879,0.0275926802518904,-0.0159936498617075,-0.0008497578797003
-0.0872240322732843,0.0466632879173666,-0.0214027941362319,-0.000892735367388379
-0.0470144208125114,0.0434071368356253,-0.0194818225636234,-0.00123966731145136
0.000640130416706353,0.0264804273436999,-0.00838513277615364,-0.00115095741935516
0.0329178030283844,0.0141873935252351,-7.32942590003574e-05,-0.00019597498718555
0.0467593690090188,0.00691169039082216,-0.000573300284583081,0.00103260809604025
0.0486884557096937,-0.00221166975659325,-0.00371674164601618,0.00190996906021642
0.0442631140610925,-0.0102428334207168,-0.00469504823290764,0.00240963497954075
0.0350976780876514,-0.0118889593777408,-0.00412927514350079,0.00269968097423504
0.0212502303520041,-0.0107267584768937,-0.00355849662291305,0.00292021705981167
0.00329420779088942,-0.0104892019423691,-0.00545090197003894,0.00323900655332117
-0.0107978021822122,-0.0094762488880843,-0.00915899902442898,0.00346867742232588
-0.0103306843146543,-0.00637963815544424,-0.0111654293437329,0.00328034179663671
-0.00411723996148817,-0.00354626462177511,-0.0102494364439758,0.00253745577570481
-0.0132692301863196,-0.00273511583683192,-0.00731718826233158,0.00115425753545132
-0.033177500525378,0.00421278591418284,-0.00538495472291698,-0.00031201503883501
-0.0438798055737173,0.0188406727305008,-0.0066425960119064,-0.00107907591680326
-0.0459510707328137,0.0272002750428179,-0.00916764263085867,-0.00110114142570156
-0.0513887772884218,0.0244212365592929,-0.00928433504292946,-0.000728641892904922
-0.0544191107087436,0.0127046680982083,-0.0076935393839139,-0.000481441295056802
-0.0410665314860691,-0.00791498244282761,-0.00739206691208091,-0.000481801951186127
-0.0205192384568109,-0.0313760346377218,-0.00925032464399158,-0.000218631847689522
-0.00929882029366666,-0.0468014628123238,-0.0102169731820559,0.0002716024263463
-0.00911798996502557,-0.0458321186537268,-0.00671408554185704,0.000444376093637136
-0.0152414160566736,-0.030283479597263,-0.00263475197568292,0.000500640677786213
-0.0205984702477156,-0.0109367906375511,-0.00303422646055448,0.000862450035805745
-0.0199435170224317,0.00293152637554276,-0.00683288330797695,0.0011157195168354
-0.0179016142167174,0.0099005321723409,-0.00936224411318825,0.00103777265728691
-0.0197125388386301,0.0143081319167231,-0.00943583517882528,0.00123292860347475
-0.0211608759942664,0.0198045938416332,-0.0115475249145879,0.00202272060231132
-0.0177635122232502,0.0215511040249539,-0.0173393150367708,0.00280449585311758
-0.0111176656811124,0.0154454551562542,-0.0240398203364198,0.00294652198136044
-0.00567614110665336,0.00705319868908684,-0.0309324183635453,0.00240356314038816
-0.00398279508167635,-0.000949257195891836,-0.0347803268094045,0.00132741033112637
-0.00449472549145598,-0.00847584256095449,-0.0288526473803436,9.03041426564071e-06
-0.00472310596323053,-0.0117141658805209,-0.014634999003375,-0.00109698090121685
-0.00404101833057071,-0.0108455864497858,-0.000847534479908693,-0.0017250755600707
-0.00254768858752481,-0.0104670465360592,0.00854903002808282,-0.00194010626995602
0.000326450680158578,-0.0106574147006905,0.0156145516795646,-0.00186189601730405
0.00352016824284104,-0.00597292886248472,0.0169681529898039,-0.00162496297069806
0.00521693520400391,0.00920127916932887,0.00866948727682076,-0.00133047843342265
0.00720179734115427,0.02344598711605,-0.00215910898410257,-0.00105603925146541
0.00973288136438095,0.0151968143509479,-0.00742311314129094,-0.000948769781877103
0.012132566402288,-0.00973943604661532,-0.00112380059205337,-0.00113093296641886
0.015196273430849,-0.0281254904686518,0.0125653721553488,-0.00136117712465239
0.0159720332846815,-0.0296236794122292,0.0160948508870467,-0.00127379508748335
0.0141436776311827,-0.0175258762196116,0.00870805291690314,-0.00103268781779469
0.0117888075562763,-0.00315092504290719,0.00211782243791041,-0.000884792652339037
0.00862432332995631,0.00611307435138467,-0.00638966267006462,-0.000873136073670801
0.00465336845796876,0.0167704188205111,-0.0254202335453728,-0.0010960392343572
-0.00118764209148856,0.0340334600524818,-0.0476885230683457,-0.00166323884138381
-0.00984873985840203,0.0460333968639624,-0.0558600761027137,-0.0020822670537898
-0.0185221347362357,0.0401831973256207,-0.0482181068123858,-0.0010373916349598
-0.0225909778634974,0.0208765314451059,-0.0369818048270746,0.00172915792652657
-0.0197569128966712,0.00201645071920905,-0.0280555718046003,0.00431042231580704
-0.0128610377811213,-0.0105033882066375,-0.0144981373236451,0.00485543516419782
-0.00827073483250478,-0.0199849845849614,0.00632176947861911,0.00375008318867885
-0.0051302099812909,-0.0256502606417022,0.0231377125273035,0.00243199024570612
4.34343328722456e-05,-0.0240209060319528,0.0287236689210836,0.00127664819121857
0.00454109929078678,-0.017349899543115,0.0282134178272266,-9.13668644493834e-05
0.0069759712455537,-0.0121171334984451,0.0301679708008123,-0.00152316332576688
0.0059631392873316,-0.0139010528976667,0.0379599909856203,-0.0022924431544929
0.00342846394243503,-0.0188401545546271,0.0452432215898948,-0.00204476104677737
0.00505892377487761,-0.015801210934552,0.0444415399961549,-0.00141445996966073
0.0100841083685998,-0.00671329934924993,0.0393585388574062,-0.00130139657568049
0.0121757701543973,-0.00494894238373555,0.0382437797098483,-0.00155986879298169
0.00522032519917008,-0.0134845103460447,0.040822031206758,-0.000857097678251351
-0.00660600675321053,-0.0203808777194743,0.0404004627227384,0.00168264557886756
-0.0131170037384678,-0.0176526943324535,0.0335940712049612,0.00486181490039044
-0.0138251171946835,-0.0128476439616934,0.0236732981121003,0.00641617746463098
-0.0127833557274872,-0.0120058472888788,0.0141064522054961,0.00569970378693139
-0.0106237298206207,-0.0110712544908644,0.00521753428886008,0.00395767525339734
-0.0093280261914756,-0.00865257553992608,-0.00184135102849198,0.00234735362108356
-0.0123320150935865,-0.00710140848161467,-0.00375780932687945,0.00127964297247171
-0.0185618767106674,-0.00564455844644369,-0.000101589175865502,0.000825571471536988
-0.0242821484194588,-0.0057249415076625,0.00445768552027172,0.000888171088570958
-0.0274832409424628,-0.00957762089139887,0.0063310314900445,0.00142958464420593
-0.0270855042969447,-0.0118981864342211,0.00437675437584281,0.00236184118295738
-0.025793985338315,-0.00997373490998657,0.00145351535958215,0.00303139952124298
-0.0238920506219547,-0.00835515589576591,0.0043072897658958,0.00298767527827824
-0.0181328591976001,-0.00940197181410765,0.0111103761280344,0.00253167769909266
-0.0111449379346499,-0.0101426618254855,0.0171425041236938,0.00173653103129037
-0.00660891896192895,-0.00736506246914743,0.0253494752456672,0.000629297778418428
-0.00387159371072103,-0.00522928896351978,0.0337776272744953,-0.000410493874326365
-0.00153800301686939,-0.00815627919614352,0.0367951523390408,-0.00114529370551967
-0.00128150609948193,-0.0139085887914182,0.0358416721408341,-0.00152362095396465
-0.00201092998232326,-0.0189105591298084,0.034652307485109,-0.00157383660187887
-0.00248976197698281,-0.0199907224923031,0.0326943096496558,-0.00129603025048408
-0.00416578580601311,-0.0171218715537152,0.0279564024504078,-0.00100597118987194
-0.00494822972313406,-0.0139446333486383,0.0227554127109692,-0.00113356086994545
-0.00489027765907295,-0.0124016339570743,0.01789727666603,-0.00148894463745521
-0.00576040636028229,-0.0137313854762308,0.010734963201554,-0.00180101074985019
-0.00529098609627167,-0.0205475385379497,0.00497656084311645,-0.00201834255242147
-0.00163039116235416,-0.0298543583493065,0.00352611031984516,-0.002198452295849
0.00218288477708899,-0.0327509248831882,0.000225569798709398,-0.00227638270866751
0.0016546440410708,-0.0254342920118585,-0.00816156385915761,-0.00201556161384662
-0.00428590484287477,-0.0110988969382841,-0.0185326637527613,-0.00156438334074246
-0.0105383371958703,0.00256183812072928,-0.0249601890713371,-0.00123963632544892
-0.0111072916132209,0.00968772762045067,-0.0233646146988349,-0.00132521291173561
-0.00638766800199212,0.0113923995923318,-0.019308432496726,-0.00177582160999386
-0.00120489887423319,0.0086422242034147,-0.0177055822824498,-0.00213834016313724
0.00117857031002013,0.0019828915718217,-0.0152885534192007,-0.00232855494507091
5.62818739501796e-05,-0.00673295458920459,-0.0107447538918922,-0.0023479155127703
-0.00519527364205388,-0.0151048355623685,-0.00742268246734037,-0.00222976892849762
-0.0127306263387212,-0.0180328397825885,-0.00686699995437138,-0.0023998593602902
-0.0173224534876645,-0.016603195646292,-0.00876014626970432,-0.00296200143297484
-0.014296392958423,-0.0164561448034444,-0.0110656624102438,-0.00352517540610802
-0.00589580943794319,-0.0195013296945279,-0.0105473372037127,-0.00389006466865236
0.00464198524653571,-0.0259440818778517,-0.00865935097792217,-0.00413902104322003
0.0150380022053701,-0.0289775349157705,-0.00990757693616103,-0.00415782434238918
0.0176819996972585,-0.0197289061616381,-0.0146243190333193,-0.00389293603366975
0.0122663127550519,0.00176671308802474,-0.0194830722954906,-0.00374273071556777
0.0069264054994814,0.0265045211868687,-0.0251708095370544,-0.0038692830759815
0.00364946950280716,0.042731435513431,-0.0305969055706809,-0.00384035533068386
0.00198656353890382,0.0477619488746268,-0.0317340491355438,-0.00324337186796214
0.00261774968427379,0.0467242703552124,-0.0299539486311858,-0.00224219788509787
0.00244294760827769,0.039773328846699,-0.0275215344486118,-0.00139200905310414
0.000820247656205139,0.0258668211601335,-0.0260060526349421,-0.000902880531649931
-2.87882992840794e-05,0.00990160703875648,-0.0261060191873685,-0.000547706587157214
1.54315323567513e-05,-0.00487599711058146,-0.0249236013240874,-0.000178346926087966
-0.00172394607325795,-0.0160067473668899,-0.021777897980489,0.000179000871327916
-0.00817374301804705,-0.021792296685395,-0.0200523013402743,0.00059224842419982
-0.014177194584195,-0.0255273996540103,-0.0198837533181504,0.0010621964794958
-0.0116438800037223,-0.0288174552532757,-0.0168448928364848,0.00132849888547591
-0.00228549162397351,-0.0307652750797974,-0.0104014726080529,0.00126582146599664
0.00508605707968881,-0.0255251613155828,-0.00645353887440436,0.000978213402058382
0.00679743620180767,-0.00911911166291307,-0.00674272878267425,0.000781505882195544
0.00599477002808598,0.00630388115220433,-0.00727300557421596,0.000819177834360009
0.00665713440308948,0.00743612379013018,-0.0065631616967389,0.000841017226849546
0.0081748339139775,0.00244652221764087,-0.00669462753023914,0.000738464148062632
0.0078397367472163,0.00767305442284633,-0.00835633541301936,0.000482409582350073
0.0073467354191634,0.019929667541935,-0.00959710182657575,0.00011132666512629
0.00709268155407232,0.0282211985124591,-0.010459919335812,-2.76174816713562e-05
0.00492294388703612,0.0337614970712726,-0.0120064484428742,0.000341900925538794
0.00166898816551654,0.0442905697498686,-0.0140349909107599,0.000902381686228006
0.000492149778257008,0.0556754123081081,-0.0158114146730637,0.00122661625008706
0.00307434261905019,0.0512279657046317,-0.0161933816388947,0.00138099648454788
0.00726941914427404,0.0325816196142686,-0.0151656884765485,0.00161409763215179
0.0105477005570972,0.0172448441022612,-0.0128237469283972,0.00198000765707424
0.0118262224181841,0.0102382751463325,-0.0101626746984463,0.00249198920674107
0.00976667032623602,0.00775702615626041,-0.00971926940145409,0.00310716218328303
0.00669203679782267,0.00789174247626844,-0.0104999313605701,0.00371561073402749
0.0052707436270276,0.00850202786043871,-0.00908606238617067,0.0042378591222257
0.00565523892664443,0.00822373951467961,-0.00520995402602532,0.00462357806217682
0.00824870565157142,0.00780834885237809,-0.00130435344821199,0.00474982857268093
0.0102967642231141,0.00862446518779567,0.00105455867464829,0.00443194857353695
0.0118354132589219,0.00968035381415441,0.00290925783016065,0.00385936139118084
0.014334995798537,0.00977178975232728,0.00424859318491932,0.00304042394808172
0.0155969072712121,0.0103906981379599,0.00377177076185789,0.00183982836755366
0.0151064265986479,0.0109603106021302,0.00252475133560725,0.000659532953671521
0.0123737403417043,0.0115546802530587,0.00169202528718893,-6.27863775398345e-05
0.00815979841729286,0.0123032656641733,0.00181795483982116,-0.000301021779273283
0.00621981237662888,0.0119909991679758,0.00281364069381153,-0.000464896003653765
0.00717835389154965,0.0113169164792111,0.00337316502524765,-0.000840466997977888
0.00731998138341606,0.0108472832520608,0.00324440834745442,-0.0011015321455716
0.005937912476731,0.0109250351542444,0.00382919564938263,-0.000822175833897403
0.00505423745989004,0.0120855428197108,0.00484731169846898,-0.000154103845296702
0.00553346431143395,0.0132420986397424,0.004235755963018,0.000668865575612725
0.00682622008324513,0.0130406135730696,0.00306875984167135,0.00170553609949509
0.00672978325609885,0.0128353591598943,0.00280485222124328,0.00269978166692009
0.00567754028350454,0.0126914457269961,0.00245818279740468,0.00307176400694557
0.00630157740921077,0.0115854823625112,0.00184496477001142,0.0025596623506908
0.00868786557374228,0.0104895041051798,0.00356428772784846,0.00175001815379245
0.0105535955175678,0.00933537873328131,0.00753995351545984,0.00134164107310097
0.0124131394170639,0.00701521370600684,0.0108583232233584,0.00112272745849829
0.016667270220462,0.00382042813083218,0.0134471669054614,0.00063314648762204
0.0220453042291973,0.00181077008722676,0.0151700134411468,-4.79539504086269e-05
0.0244579036605495,0.00248965269317216,0.0148592313473631,-0.00072545921985361
0.0226311968201039,0.00392452033638854,0.0131140913250526,-0.00131830994890874
0.0192340036130425,0.00363823944173959,0.0124148587970109,-0.00170183094766272
0.0162922668757998,0.00257627267410189,0.0131559047708523,-0.00192476614334156
0.0143540959653705,0.00209167746313423,0.0135091064297342,-0.00203993251961493
0.0141413151346851,0.00165180606488353,0.0128807957256677,-0.00182088718822653
0.0134028987822649,0.000881371665088177,0.0127750605784231,-0.00148743847777943
0.00979301974814571,0.000328176824349182,0.0132916219328202,-0.00143327938397543
0.00732585492629309,0.00011092134217312,0.013257027758142,-0.00142391183474897
0.00720214571482865,-6.37721447588942e-05,0.0132739699236427,-0.00122664491984857
0.00749651956276475,-0.000708797788106732,0.0129039489312813,-0.000907213731026398
0.0104021892065541,-0.000379220825271079,0.0120748635317732,-0.000607913342569817
0.0139819474724217,0.00143999343916909,0.0112077273169038,-0.000319566726703152
0.0136734444159931,0.00354764945099497,0.0099392132870238,-1.79417213649114e-05
0.00935758168368825,0.00785283337151334,0.00984333232845968,0.000214844533220961
0.00316613800021632,0.0121377376787053,0.0119391929091695,0.000472917959985445
0.00246813081030362,0.00996629037608877,0.0160138142644133,0.000689722252827593
0.0108808086666752,0.000736078659385868,0.0210425085180624,0.000700936359592733
0.0202870169142973,-0.00772423342080242,0.0238250923785774,0.000559143472225746
0.0236241711908434,-0.009065652346137,0.0238253630701729,0.000327080951312403
0.0205495403827192,-0.00781589269412706,0.0247082882349836,2.39371305105385e-05
0.0161025192348281,-0.00668068681836456,0.0250809011839452,-0.000420801555626984
0.0164154689949972,-0.00074957678807462,0.0221022646246028,-0.00114412112233545
0.0197025237896716,0.00905233457431599,0.0184373632599519,-0.00224790731019987
0.0174178509604069,0.0146676029677319,0.0153697358230266,-0.00339714904779814
0.00665536728321538,0.0133757027569171,0.0127733903229039,-0.00374503069412448
-0.00559885692291343,0.0128720388909818,0.00971378423396512,-0.00299000585476461
-0.0108167017470447,0.0179982242426108,0.00626598478162361,-0.00180115281398224
-0.00959983614027943,0.0218188790022461,0.0057439412077895,-0.000913266496295156
-0.0088458943893592,0.0191500662891514,0.00936585196708661,-0.000368486234177561
-0.00692849579619858,0.0128034673456949,0.0164413688670849,0.000242423402134814
0.000251623283595761,0.00468894262275902,0.0226540857437727,0.00100279635804757
0.00748395395529866,-0.00296096850640732,0.0224250470074915,0.00149945516441724
0.0101418854568954,-0.00545617561829911,0.0189037982567476,0.00127151062790838
0.0108010310129486,-0.00362304147178533,0.0163882732367955,0.000348224030105267
0.0124269616669224,-0.00235466844546149,0.0145043530173923,-0.000568982737689704
0.013705153126391,-0.0041128800089623,0.0163362525469653,-0.00104922134875213
0.0157095794017766,-0.00769101583338742,0.0231616443683413,-0.00126199836339585
0.0247537298879779,-0.00867390381230394,0.0313636296577057,-0.00124304819812932
0.0397603860306628,-0.00410814097188438,0.0359458805494298,-0.00117912158803932
0.0472018509426418,-7.00582818772243e-05,0.0331559290175616,-0.00149080649354272
0.0415117661261567,-0.00214920977705855,0.0266154886251099,-0.00168233575259955
0.0304953308125071,-7.83921973317291e-05,0.0192741154722138,-0.000803125264070394
0.019601227799283,0.0153052994590908,0.0116733797925836,0.000400557739954463
0.00866111371133704,0.035657728232192,0.0085036490839268,0.000641561275469354
-0.00127466280126352,0.0445319942268356,0.0102760310757708,0.000425320083186947
-0.00637282473986605,0.0347113826303285,0.0107511439122116,0.000536375531194254
-0.0081314826899391,0.0185083540575418,0.0067621742203054,0.000375484997639493
-0.0110674814731071,0.0174742362186092,0.00138945271829186,-0.000701401830653292
-0.0181822349557875,0.0303461346583475,-0.00111405990019444,-0.0018693342468278
-0.0262031300033398,0.0309072171255753,0.00318868484619942,-0.00151614091136212
-0.0296130092689212,0.0178909140011334,0.0121916806553101,0.000809579030633587
-0.0301641618710379,0.013997317596502,0.0173474794317222,0.0036844456693027
-0.0281829983776774,0.019932875129476,0.0168153703685426,0.00517616415092379
-0.0203188043606916,0.0226684189519846,0.0118098897019925,0.00464547640431681
-0.00707684063816141,0.0184652966684561,0.00704448713230791,0.00284209987237795
0.00963024941266624,0.0107177417387794,0.0135232085353549,0.000390703337957703
0.023420731614818,0.000936585364286854,0.0265876795459886,-0.00241200549311308
0.0235668055924909,-0.0147027455768784,0.0322965046692711,-0.00491759121131602
0.0122701370164987,-0.0338003900184414,0.0297127448833929,-0.00631254845380556
0.00194342905013238,-0.0473132304318057,0.0281848337012461,-0.00599922363319607
0.000633771973570126,-0.0472552397437551,0.0367334617981562,-0.00427309561382634
0.00781950314973851,-0.0275836486816934,0.0504990348341702,-0.00243645367065256
0.0149327290372298,-0.00426717836416499,0.0575329920069224,-0.00135504461573129
0.0160060245070189,0.00188713769057081,0.0537220861192713,-0.000251671365593151
0.0121652027138864,0.00155465944137233,0.0402251567417976,0.00181942178744309
0.00778263561585164,0.00762531507318912,0.0231622709343126,0.00408539816100404
0.00407416669848815,0.0174007910135303,0.00862467192578805,0.00520319580047627
-0.000509036972896578,0.0273323920167969,-0.00720385384512058,0.00482222176193772
-0.00283921751156571,0.0350151267443877,-0.0248801779811659,0.00318815310825812
-0.00611662625236082,0.0355251854956867,-0.0366136188406697,0.00103351426654961
-0.0170687223044207,0.021925316844676,-0.0354490287281748,-0.00014091558111935
-0.0263150130646087,-0.00177544336802469,-0.0192786585055868,0.000984438806521518
-0.024468090441198,-0.0162621937130352,-0.00227190187244997,0.00395808866391633
-0.0180369389768912,-0.00937004209621915,-0.000919236394066089,0.00601314737536892
-0.0134034877465606,0.00468524885959858,-0.00855891626601842,0.004703138632355
-0.0131886315853762,0.00436850053093157,-0.00705908862747338,0.000863849060808771
-0.0232615080674485,-0.0134278317392392,0.00653236823492979,-0.00224141478647472
-0.0425874925370526,-0.0374856446620199,0.0190915577918982,-0.00231065151591789
-0.056578764137249,-0.0529893655976649,0.0204073928429286,7.35162556673662e-05
-0.0548760392769282,-0.0561676685172443,0.0174853215821318,0.00243881017906266
-0.0416656026466866,-0.0538226310917091,0.0204361725279746,0.00274220213004579
-0.0289306045862517,-0.0469228630275189,0.0257103597624801,0.00110106239868675
-0.0258415071214458,-0.035153885136006,0.0258623309639501,-0.00107460723449157
-0.0250171021289562,-0.0175666813923341,0.0211048446090456,-0.00275927074904323
-0.0158058215857072,0.00492421869625973,0.0161717845699065,-0.00382135423400794
-0.00629726726248173,0.0229801237225738,0.0116129966312078,-0.00446128949962949
-0.00774496167913871,0.029928809986843,0.00717136081996137,-0.00431872924544813
-0.0182984446484429,0.02299438335402,0.0036025989739773,-0.00255192932081059
-0.0288883398387374,0.00719091732036289,-0.00139956751899088,0.000958374112053889
-0.0310087161902783,-0.000318994148497957,-0.010199041144132,0.00450196506580433
-0.0191217095650439,0.00496625946997981,-0.018720135419009,0.00569753837437185
0.00638167563585747,0.0072313515642091,-0.0218050094820167,0.00403156094828631
0.0283316823644402,-0.00112318650701489,-0.0211516613552731,0.00146469914664623
0.0302176395787805,-0.0100562803922642,-0.0201538214370462,0.000203181441122529
0.0177203950312462,-0.0111129991048977,-0.0214528584084018,0.000608051532583552
0.00182700959296864,-0.00517793484701674,-0.0243804681091045,0.00172967746716445
-0.0116435038499344,0.0029417717758213,-0.0251388037029045,0.00270010240151283
-0.017896872589932,0.00951469716143465,-0.021962239269633,0.0030122789408515
-0.0204639361959804,0.0123733026138982,-0.0132826929359349,0.00258826009065915
-0.0255403185701991,0.0104066222801119,-0.00336390138051279,0.00182082397442248
-0.0344265442663609,0.00810116123450805,0.000148463067536981,0.000897060975112483
-0.0447407604732488,0.0102152226410883,-0.00132288828995279,-0.000271392583001473
-0.0410254181948421,0.00993030333853871,-0.00322937620665751,-0.00132789823166896
-0.0207871256452809,-0.000438105618914567,-0.00506170602795309,-0.00193785342274136
-0.016339101843846,-0.0128418333670123,-0.00843863585376949,-0.00222916841305415
-0.0458668641384344,-0.0186172683602077,-0.0141434213485402,-0.00215547003052635
-0.0850867664022252,-0.0242971911401804,-0.0210863990340365,-0.00177528316627214
-0.108073021505251,-0.035545209895361,-0.0281360311889399,-0.00165709144182442
-0.108929733266691,-0.0385249105412571,-0.0329407050502552,-0.00201256205976912
-0.0902139241494462,-0.0202105060516951,-0.0327748565464265,-0.00219085468895337
-0.0518985793326535,0.00501449968041403,-0.0300471400543738,-0.00177626550890628
0.00383596761320765,0.0196064064355393,-0.0296049393155209,-0.00113826527840116
0.05050027996528,0.0273710717723926,-0.0305777628877862,-0.000890430368760895
0.0577275158373966,0.0338467716358909,-0.0312444812565129,-0.00125563473693776
0.0349782787645702,0.034832420174425,-0.029687930816302,-0.00170933075433239
0.0101642880408987,0.0279559337273253,-0.0238126029170311,-0.00161656345115941
-0.0120710544777528,0.0181225628846016,-0.0196446055330163,-0.000815552831055446
-0.028467686339419,0.0136713832604378,-0.0202236181680531,0.000221397138036043
-0.0208065466039975,0.0146308266793526,-0.0206584659084351,0.000673880864004394
0.0135183288184801,0.0110194419015362,-0.0194878504571308,0.000129631117842037
0.0503866315390549,-0.00332054072081944,-0.0189726394877438,-0.00102264308709102
0.0592680413104029,-0.0236986138524978,-0.0202984664305947,-0.00193038458774152
0.0349678599192507,-0.0374217469546249,-0.021559302530468,-0.00200989591629251
0.0114892783191314,-0.0308083679842869,-0.0214523755239687,-0.00144179516050536
0.0122167952960797,-0.00573447351311922,-0.0216914223227487,-0.00101258734839213
0.018011053010003,0.0126492393208785,-0.0219450515970406,-0.00134547098850022
0.0156396685570323,0.00511144235873492,-0.0199093121247309,-0.00211196997857913
0.0129382367879762,-0.0166646889169492,-0.0165176429897069,-0.00222351118382786
0.0108430293951317,-0.0321374400074059,-0.0174151917320481,-0.00124681362142443
0.00757841423844294,-0.0344562336920254,-0.0260899775775775,-0.000191174053340604
0.00600850160418137,-0.0271172422612305,-0.0373333091165326,-0.00022599446333239
0.00603209028330619,-0.0203331215183503,-0.0437620969098107,-0.00126901156830628
0.00331985783185049,-0.0265420911128448,-0.0418891475753706,-0.00229201624738461
-0.00388487925720226,-0.0401795963629415,-0.034621298859934,-0.0018824966233802
-0.00841202913026126,-0.0419113063330165,-0.0287889655817035,0.000231957610161873
-0.00456421175414704,-0.0305015377994609,-0.0257321931951914,0.00229620144090784
0.00375487747342465,-0.0121351702872682,-0.0243239883333956,0.00267655825704007
0.0129905784137762,0.0105983532776317,-0.0265717792244205,0.0012580532422214
0.0238055358471978,0.0215824751169346,-0.0306739287510045,-0.000956552881767515
0.0343782086882782,0.00938686079032273,-0.0308504530172018,-0.00269077268303157
0.0390091828372825,-0.0102719398843277,-0.025260531451014,-0.00299319277657207
0.0389845480892087,-0.0142873634382331,-0.0178600674561993,-0.00189198816160161
0.0428711989430052,-0.000629425769633198,-0.0115884408647786,-0.000708855831147686
0.0505097406421737,0.00989564300029557,-0.00489357522967634,-0.000324593810990961
0.0560959859275647,0.000263605250348213,0.00226287680699966,-0.000183340252604016
0.0622412178508555,-0.0221382569574044,0.00745894278043273,0.000224859607094127
0.071087140848488,-0.0384223131514501,0.00810686804406513,0.000777286410006415
0.0770489560394912,-0.041102019616824,0.00553428118716036,0.00144664856100622
0.075941618775979,-0.0337338147751711,0.00112939571660386,0.00205982954593832
0.069690004202403,-0.0193940724380721,-0.00577464936067068,0.0022156675606019
0.060670579842567,-0.00627412839435126,-0.0125143897628574,0.0019354508939438
0.0478106334421204,-0.00296484847153975,-0.0171516702431119,0.00169230386195792
0.0336720216414491,0.000691361624513111,-0.0202917463899499,0.0019017716411106
0.0250587671712081,0.0222775762165347,-0.0259450082283411,0.00233959675814836
0.0254439726487715,0.0510533388779086,-0.0348052553925255,0.00215880992681492
0.0314640219581067,0.0566244914618651,-0.0381037179885922,0.000915112901743922
0.0363989987300851,0.0402104191716044,-0.0313888007004865,-0.000337512077535997
0.0366143692070506,0.0234521792059093,-0.0199539260600971,-0.000111657056672967
0.0295923080195274,0.0127007834797028,-0.0137077302113804,0.00135507453262532
0.0155169982378429,0.0093273377614469,-0.0179501848768735,0.0023641385838497
0.0014827877196075,0.0115774584333935,-0.0237491833219032,0.00191800963313738
-0.00719508931340376,0.009425787165191,-0.0219358233518492,0.000757335047490366
-0.00807300739870175,-0.00264807347180777,-0.0148644316239366,0.000167450603080487
-0.000293557898590882,-0.0169025253072566,-0.00889445074671476,0.000539230203832818
0.00946350540678487,-0.0210149665942266,-0.00645114870354989,0.00117997911493423
0.015912891809262,-0.0168013798624058,-0.00517092014859992,0.00113627894688786
0.0224189078653528,-0.0160109752817703,-0.00306212745020436,0.000362904781440217
0.0307911399604719,-0.0190080483298587,-0.000595184966386217,-0.000374177152939542
0.0361591052302332,-0.0158952946657765,-0.000860707805203013,-0.000565034161345522
0.0340958284138181,-0.00134378775069886,-0.00598047348992899,-0.000333624767168653
0.0276129322192791,0.0166988746373124,-0.0130782982544004,-9.01128154034122e-05
0.0210255854250675,0.0273949713486464,-0.0191067431753932,1.15883230817227e-07
0.0153874608211651,0.0298054408265824,-0.0225917826457535,9.92936413533316e-05
0.012155541680253,0.0273048789034193,-0.0224450362739324,0.00039625371616699
0.0114896374216539,0.022601492034504,-0.0197326554840186,0.000998821259426272
0.0114441915502593,0.017514931342742,-0.0166466688442354,0.00166197007341906
0.0104099293675878,0.0124424651739339,-0.0150897952377864,0.00194671108221136
0.00945392465030558,0.008280653884217,-0.0149453992494152,0.00179354588411306
0.00832146252571475,0.00645477357562963,-0.0152780052593898,0.00111383390304783
0.00737505498177069,0.00665576800094447,-0.0166630146080004,2.80674150919089e-05
0.00875756328865254,0.00571861361621933,-0.0172660546216179,-0.000701666098639803
0.0111295060481826,0.00208160524728311,-0.0149180968023391,-0.000885798546238647
0.0133941304532644,-0.00185948457865555,-0.0110796334012819,-0.000975090062671742
0.0132192109492094,-0.00519643854411478,-0.00584635438689101,-0.001025601559855
0.00834265462203019,-0.0103576192315451,0.00135592616086688,-0.000817098026485132
0.0033609312584838,-0.0164075002303089,0.00763441738000239,-5.7624633465602e-05
0.00224264099642482,-0.0188385625254518,0.00786477039186977,0.00112258996730669
0.00209158687356249,-0.0183542682524745,0.00468827653216817,0.00177788944748786
0.00324621642950493,-0.0174275528524834,0.00349276706758347,0.00135033233266201
0.00664064710345172,-0.0167885421717174,0.00307495594182666,0.000258635782974519
0.00807460535342627,-0.0172140150145041,0.00302265860866995,-0.000941341149519371
0.00877670840793715,-0.0176098531208935,0.00273055282862567,-0.00177655309703116
0.0112905537155253,-0.0182616204332173,0.00428877508706183,-0.00197464125523268
0.0141434956885078,-0.0197873979726615,0.00792033671312981,-0.00156083107547337
0.0160970679499717,-0.0202835592625413,0.0114751367629538,-0.000702406853461028
0.0155110936911889,-0.0216231873629887,0.0172737077084407,0.000257650361909561
0.0137279802073811,-0.0256212364646195,0.0241321939416341,0.00105984693383231
0.0137724646257296,-0.0278708166167586,0.0295460058876042,0.00144367577643343
0.015643034802774,-0.0253138914226432,0.0318104400642121,0.00135455916293145
0.0166224373859666,-0.0184709024342613,0.0281361385276452,0.001003005092427
0.0147048028263624,-0.0112727495838823,0.0183465441114975,0.000291763344093619
0.012692305449364,-0.0100592384894711,0.00841680434128417,-0.00065885741660034
0.013275225996876,-0.0147359456288292,0.00595901685172925,-0.00121176166173913
0.0140598528059821,-0.0189390749417735,0.00794374673473395,-0.000873077770585809
0.0101867422780562,-0.0193464511446433,0.00676133224442812,0.000182445697869685
0.000107916640217285,-0.0164060153051778,0.00248774497608334,0.00115899881900166
-0.0126494825840354,-0.0135192060971962,0.00219287925048342,0.00157754663497369
-0.022491033144446,-0.0157566870353509,0.0145092587711965,0.00172764005136644
-0.0248856613007069,-0.0201816145018446,0.0324741165416547,0.00206839538680144
-0.0195877838613175,-0.0182218675017561,0.0376134110768976,0.00237483221631104
-0.011232576978754,-0.0111802778330892,0.031751184467536,0.00193162364726117
-0.00610974088602664,-0.00825061341459985,0.0263338978592797,0.000821426426652811
-0.00532694170894377,-0.0103972914434636,0.0207531288070564,-5.87193372328454e-05
-0.0032053609909071,-0.011612291488917,0.0180368127713484,-0.000325582465691978
0.00243043329299605,-0.0131991604477226,0.0234227637105631,-0.000379092069427698
0.00778437949153929,-0.0170958610675254,0.0324655349128884,-0.000247153518709534
0.0093465990079001,-0.0176183293388643,0.0381304884902767,0.000250954187496734
0.00830890861459907,-0.0133397570374499,0.0387959010663756,0.000557412775982494
0.00797470789868723,-0.00589573816927386,0.0337951759598834,9.07570667115846e-05
0.00648420302387372,0.00391524101017007,0.019898208975793,-0.00151128162318829
0.00174466305565099,0.0112510761225469,0.00158995412496108,-0.00428532401500377
-0.00620089375049978,0.00962113551843747,-0.00933221676134344,-0.00689284384078524
-0.0168931977086014,-0.0022880532002734,-0.0105399587244688,-0.0072044176989789
-0.0268243202841178,-0.0164575872471019,-0.00898321910333269,-0.00434328345712979
-0.0328374380983415,-0.0234868546527596,-0.00804764907365183,3.00413340166023e-05
-0.0350801154077133,-0.0186257722154082,-0.00845735252480158,0.00329570246206735
-0.0352171346798841,-0.00293479835913203,-0.00957766092247234,0.00418408432223054
-0.0340925924251456,0.0186228523971756,-0.00892826639154014,0.00251993555788717
-0.0314109287325707,0.0400878673749479,-0.00717871888260598,-0.00141476249701131
-0.0283246821672835,0.0492974126773268,-0.00774609640162837,-0.00614030090842583
-0.0249707398862358,0.0441167715587893,-0.0101198863852311,-0.00886346580485753
-0.0211248573103515,0.0370914336311873,-0.00631245445167332,-0.00789146034975112
-0.0215603869296957,0.0266689791078517,0.00879625260325975,-0.00356829886314304
-0.026611214108757,0.0122700059302627,0.0218089548792218,0.0035964498860357
-0.0237267368996276,0.00739730088982118,0.0186656916595252,0.0111926651434074
-0.00978967901204982,0.0073104264931847,0.0085192047518171,0.0139902227716061
0.00305486306472574,0.000764457612999273,0.00469920835958494,0.00963397060608537
0.0103864966414068,-0.00505441663274841,0.00424530261145458,0.00124117894171157
0.0133000071358357,0.00215306592856082,-0.000488504751448709,-0.00671835178190828
0.00962881676818447,0.0236278255324642,-0.00798728320003123,-0.0117369603904578
0.000938032514521563,0.0403835795078957,-0.0116911078880238,-0.0135513182084048
-0.00603299737510237,0.0277592249207301,-0.00529778476561148,-0.0129101900504999
-0.0122643534129802,-0.00804085511950113,0.00796991635045236,-0.0100626759033847
-0.0234931044339655,-0.033752129809667,0.0157610462891769,-0.00538639672850429
-0.0359674878956484,-0.0342364921412361,0.0176039195569641,-0.00065118149011284
-0.0411031572406728,-0.0206361513255977,0.0228176528727834,0.00246253200125034
-0.0381913699898184,-0.00333105498727619,0.0274949834483981,0.00405020902989978
-0.0348483242962928,0.0195923143136937,0.0194118926080579,0.00473547595782999
-0.0363510506795629,0.0475253696319841,-0.00110589019171442,0.00430208437881792
-0.0398823968562184,0.065622421378879,-0.0235087052716029,0.00272921380848856
-0.0401672214261482,0.060113405866712,-0.037923514179158,0.00119345136373124
-0.0347896778129284,0.0338876916647585,-0.0392901376146656,0.000891807553098475
-0.0231401375369559,0.00432171489276346,-0.0271915815236831,0.00162835831669619
-0.010009205386863,-0.0133846584990981,-0.00972861015923019,0.00237799324100915
-0.00419263121809898,-0.0209241559562934,0.000922442788033381,0.00224278643967587
-0.00304042631904054,-0.0245886307015022,0.00306055017438762,0.000867632745239835
-0.00132871357111835,-0.0229555132564483,0.00428137326717604,-0.00129936860342192
-0.00506053399962497,-0.0125532357569095,0.0101631631627575,-0.00313644837534599
-0.00997417477457173,0.00582570546839242,0.0174423016500954,-0.00343351167354647
-0.00579869857883377,0.0207438860440119,0.0204379302463606,-0.00222019115231772
0.00346703329032284,0.0336788960491979,0.018510035993306,-0.000722107238369884
0.0113027966897685,0.0606523737086626,0.0157646855804807,0.00013385215563024
0.029136239707025,0.0896787601185867,0.0171584331592008,0.000275762305365675
0.0612733580633321,0.0868246092054282,0.021532142403575,0.000205341128365353
0.078717528982559,0.0433075834991944,0.0271770343736719,0.000387670033396016
0.0721234042458418,-0.0114288071339507,0.0367955154335379,0.00095187364547658
0.0647042765191546,-0.0519135847805442,0.047717522248812,0.00142515293639402
0.0574813544835924,-0.0767594105961403,0.0522923470819992,0.00121376282209098
0.0275919212311226,-0.0949332182933731,0.0496186429123569,0.0010724337792815
-0.0241455415649078,-0.0901894668768616,0.0433526425335681,0.00347042219837051
-0.0670249642541692,-0.0435087817425059,0.03733445604397,0.0091070272526197
-0.0856725008998815,-0.00224885179072065,0.0318634861999971,0.0137470256435727
-0.0929626493391703,0.00682475673618285,0.0174309461729714,0.0129574392690266
-0.113793026536233,0.0291090671408794,-0.00753476148771312,0.00683591352464231
-0.153077732569413,0.0630326827745975,-0.0284644007627593,-0.0013406187508291
-0.175197083179164,0.0480563842215105,-0.0335647151245126,-0.00704091085144351
-0.147940670613412,-0.00795798689010915,-0.0254140314652006,-0.00722275299080725
-0.0883177073968232,-0.0162642886868677,-0.0161733087827622,-0.00361981045924831
-0.042072951892038,0.0515816420164138,-0.0173197812700918,-0.00133946296947479
-0.0280229378476609,0.118966188210548,-0.0285788890869811,-0.00341820448341373
-0.0171032992984997,0.111270602227072,-0.0312787724487758,-0.00814705409474501
0.0169856443871836,0.030309488668062,-0.00694885941062801,-0.011193834007914
0.0457060075566525,-0.0549544333462675,0.0304175609050313,-0.00869716495021471
0.0339987877333164,-0.0667011050996649,0.0436978302477039,-0.000322473552952332
-0.00305110166472799,0.00527127293184281,0.0232330221639441,0.00883900725356077
-0.0186114530173951,0.0820912207115627,-0.0054567590135946,0.0121862965109602
0.0139337622168705,0.0924640097979884,-0.0217601038453488,0.00836478756300341
0.0629143873029483,0.0572831878589878,-0.0214256320572691,0.00167732398218225
0.0780987993945778,0.0233630303895004,-0.00872439519116377,-0.00302340592537126
0.0467117520199206,0.00309345107069048,0.0025953165926442,-0.00386245863662952
-0.0136088185905454,-0.00539111251649702,0.00349493673893406,-0.0019697959335975
-0.0692321379120217,-0.0037048993528942,-0.00283127519630923,0.000433524644644325
-0.0899150345980237,0.00421730731437195,-0.010159917696248,0.00187401514099044
-0.0814659617017571,0.0113695311640448,-0.0137347154212177,0.0021680708912723
-0.0694026330722986,0.0145599049216508,-0.0135669463936551,0.00176090833361558
-0.0651290801431181,0.0166171309962555,-0.0123071199798456,0.00134105347609011
-0.064407342039649,0.0188078736760354,-0.0123057285307581,0.00129905839994123
-0.059929228743997,0.0198672406719965,-0.016376927473025,0.00100292786467026
-0.0498721943992178,0.0220562722293314,-0.023888149114328,-0.000127284360935048
-0.036505220162825,0.0248040050972139,-0.0299887305036072,-0.00167609407582226
-0.0228016742988029,0.0256054367894738,-0.0334569610738778,-0.00288278969541945
-0.00984417966142759,0.025435647956266,-0.0355977211510735,-0.00319215552864313
0.000607748340633969,0.0235903159615701,-0.0348228851153525,-0.00262954265193097
0.00589247913417913,0.0209397340053482,-0.0303252449670517,-0.00161812987906836
0.00716155980966438,0.0204498249441238,-0.0268968064932674,-0.000511640417653037
0.00666354450532391,0.020253845194023,-0.0282760977879791,0.000136337821166225
0.00742029388807973,0.0189113227806694,-0.030238113940546,3.01989456779081e-05
0.0089375817152711,0.0165516806334425,-0.0283140248844104,-0.000374381407206289
0.00731865333611177,0.012536587093996,-0.0235639358568397,-0.000315423773069033
0.00334970763854988,0.00972008181801925,-0.0191658979230688,0.000639105411269152
-0.00311566403877426,0.0105320571588812,-0.0162029907322209,0.00196330140718754
-0.0150361195138286,0.0128127136104879,-0.0124659829002593,0.00276259077653683
-0.0245963240003628,0.0118898391554931,-0.00702386014591752,0.00285602239364256
-0.0148177299714677,0.00410618196946565,-0.0043773211841953,0.00250245129019187
0.0131451178319379,-0.00701966361354868,-0.00614453357022914,0.00206881055982578
0.0378548373385901,-0.0134347081168657,-0.00931835418777045,0.00187286848143545
0.0488857508685614,-0.0133428132380974,-0.0140562008686009,0.00182459341983472
0.0528044054691672,-0.0111499383118548,-0.0168268413022011,0.00159951576656093
0.0543968763237909,-0.00928811812051864,-0.0116286349653168,0.000986934233738206
0.0496886252331773,-0.00770279573658131,-0.00427388106975376,0.000590770004179759
0.0382224330125469,-0.0066320335353217,-0.00293378192823886,0.00106700054284694
0.0275504142285129,-0.00588116500672151,-0.00428371150662976,0.00208973754260726
0.018789645025338,-0.00555572147153114,-0.00391101104079624,0.0033612074802678
0.00868608172465718,-0.00260534365898239,-0.00496474296916962,0.00462157062093967
-3.62715817025586e-05,0.00630516656665831,-0.0112669575851204,0.00500723165486775
-0.00402030154482915,0.0127721403309764,-0.0186186239600129,0.0040508406507378
-0.00644186731104807,0.00606278983253966,-0.0191551953964386,0.00262485214714178
-0.0109893503883059,-0.00747190612703929,-0.0146655286189227,0.00198739635184469
-0.0148177763676652,-0.0165683021442215,-0.0102825923714617,0.00231207813637509
-0.0129349184056985,-0.022115352420157,-0.00402214996374845,0.00266506981962203
-0.00614346547474026,-0.0282215732743653,0.00402984797741094,0.00233391227880589
0.00410580458633696,-0.0348703291640604,0.00774683592199106,0.00172910903016115
0.0170609388209598,-0.0361777538661082,0.00570673497681585,0.00142722905928034
0.0254590361867322,-0.0278588310899592,0.00344494449117891,0.00116136561838863
0.0249319940097948,-0.0181875390533316,0.00438475038547623,0.000502826418149282
0.0221200927470103,-0.0125600027522813,0.00875476726970933,-0.000451415551110628
0.0222980122095554,-0.00915401245866853,0.0153146117944147,-0.00134120475565829
0.023186721468767,-0.00831615655585716,0.0170991748879088,-0.00194693093439646
0.0239114858690197,-0.00910060438303788,0.00995951179478405,-0.0025462921092447
0.0232471013604134,-0.0103004425366237,0.00229171284701608,-0.00352350704523502
0.0209765295787252,-0.0113598995247701,0.000894792044782662,-0.00454789188294868
0.0183092563589002,-0.0124592706309207,0.00200886334902846,-0.00474525269779826
0.0152837080389791,-0.0131800854900795,0.000466919960457828,-0.00358167774012716
0.0138065962629137,-0.0118338734311426,-0.00265726851064222,-0.0014520582240259
0.0130726329386576,-0.0120282879332329,-0.00604003639488212,0.000614113687908126
0.0109203189331235,-0.0160976300962181,-0.0119669830823277,0.00191090517325628
0.00676013034778053,-0.019058468562594,-0.0173463227751993,0.00230853520763593
0.00484720485950514,-0.0213817765026693,-0.0141961794374089,0.00176480357355587
0.014568782090887,-0.0244944330219279,-0.000995216709487257,0.000500961674530499
0.0299718738890715,-0.0232262857531999,0.0143180716661746,-0.000896532135642359
0.0351751993212898,-0.0175210420126566,0.0240650801949789,-0.00190104391285865
0.031051864610228,-0.0118663082771755,0.026506455562815,-0.00230930451560664
0.0268760122734378,-0.00794959392911044,0.023376373285907,-0.00237177216509492
0.0224758208168689,-0.00227860352205827,0.0187144621771123,-0.00250555998206055
0.0144256955985658,0.00953429794055614,0.0146128324718216,-0.00282404089632101
0.00776268584009894,0.0201680053166271,0.010063484234327,-0.00314107055122002
0.00599470206012753,0.0294444412179844,0.00434075022742994,-0.00391676909100133
-0.000730862524780929,0.030121771757104,0.00212207661645308,-0.00583102023008074
-0.0147964208692075,-0.005975568725918,0.0101294062371469,-0.00672529561679391
-0.0207679498585293,-0.0534996468154494,0.0186929387705594,-0.00352398934132425
-0.0096714520122373,-0.0651973649714071,0.0160604130801946,0.0011110255812788
0.0129645775284565,-0.0528083739073716,0.00850581218316086,0.00162763460564149
0.0343612221029477,-0.0376189286688808,0.00181403982225696,-0.00200914742846113
0.0471437312576823,-0.0188112080333015,-0.00443014992421646,-0.0057237880175333
0.055265603127226,-0.00133044525936279,-0.00594786905849269,-0.00723684276237431
0.0590919220980129,0.00552015088509221,-0.00117518241813337,-0.00667498930557339
0.0530797632628152,0.00247603532975126,0.00414327053925025,-0.00461907951945336
0.0397089048940745,-0.0068574355812131,0.00776780001504563,-0.00186669663717336
0.0262414973059504,-0.0160738462052827,0.0130676040695229,0.000344619174975965
0.0125713524709977,-0.0115824670407227,0.0193165843021774,0.00128956059136196
-0.000609451377271399,0.00176870448631193,0.0248663671221135,0.00112596152274208
-0.00951173906650778,0.00424704937320339,0.031105001989771,0.000349185424821741
-0.0170725247348596,-0.00288794957224352,0.0355431232019335,-0.000510213693149699
-0.0237243401272255,-0.00832503195809724,0.0385263361499401,-0.00123750508107611
-0.0253005389467544,-0.0141930992967751,0.0405016284894703,-0.00167736948447157
-0.0233790194319182,-0.0183882091907664,0.0341484296367554,-0.00158339902494222
-0.0177778733276957,-0.00481282576949046,0.021130448317091,-0.00140544108556005
-0.00698775569730254,0.0232945271891563,0.0146403583226419,-0.00162304763273755
0.00320639511396585,0.0327521194796518,0.0157094455071398,-0.00154109205614586
0.00835637696596907,0.0113467593483343,0.0151826322710643,9.3135063921983e-05
0.0111728380306187,-0.0160600221014095,0.00981814642562112,0.00356251877793627
0.0160270048339473,-0.0262259161067005,-6.80011995167519e-05,0.00702300507516086
0.0210694218273989,-0.0189652802593725,-0.00719305623718484,0.00768174315681793
0.022127980422174,-0.0119234539403254,-0.00381265804638496,0.0048888843304275
0.0203811375147378,-0.0117989458548587,0.00472621053993741,0.000702245891128942
0.0187573544682568,-0.010378842042955,0.0182602999555077,-0.00279691302037427
0.0169382695592429,-0.0101288882682033,0.0423090718702341,-0.00457690921449036
0.0113694249497916,-0.0164514468190533,0.0629174647482712,-0.00352762652268086
0.00323843266667072,-0.0213485333182803,0.060091574549169,0.000237447813740161
-0.00534553296308711,-0.021435629614382,0.0369019884869085,0.00411699768183298
-0.0177944916625185,-0.0281013871614427,0.0129646439749939,0.00587935129374499
-0.0303017358706882,-0.0385690810346256,0.00253871608480399,0.00664669464095304
-0.0311482832013778,-0.0344865582002504,0.00836962724214616,0.00827896501776088
-0.018311296344856,-0.0149671617680286,0.0245136027358742,0.00936365400621775
0.000528218992070294,0.00412264577909882,0.0402607649958971,0.00742164098709659
0.0171886620959853,0.0101820824308716,0.0549179438323641,0.00253687524831126
0.0267487755622917,0.00833085613895734,0.0691096489436422,-0.00303248812101674
0.0288352159037661,0.0137800106450677,0.0644565469380924,-0.00729270456424201
0.0217187432629555,0.0140262664366594,0.0429308341294396,-0.00971379794334533
0.00810133157287444,-0.00567706645558883,0.026156837683314,-0.00948312754179658
-0.00239138928236452,-0.0164912276758693,0.0125973457216493,-0.00590734054644612
-0.00436177428012393,-0.006926576323464,-0.00212875373239818,-0.00175623895563188
0.000790041157837995,-0.0109854649569349,-0.0134799382098888,-0.000648118646043376
0.00674007075108329,-0.0355483616885702,-0.0137704916260175,-0.00197842127334549
0.00659487713393055,-0.0498668452804979,0.00210262665623212,-0.00221690125581786
0.00115503228900474,-0.0376019659603492,0.0149846233694741,0.000557279754430279
-0.00370808304211549,-0.0122718169071966,0.010035823553337,0.00439874783346467
-0.010295080868892,0.00659052849714759,-0.000732428793773137,0.00655816163377181
-0.0260275429588239,0.015512462811022,-0.0141930625518395,0.0071697963298751
-0.0454756811219992,0.0172688666575979,-0.0336527834019077,0.00770240904438464
-0.0530423267024382,0.00596683382934063,-0.0485839240729533,0.00815593738958285
-0.0483429248027666,-0.0179445134218443,-0.0495613238843503,0.00756638105007157
-0.04324690341742,-0.0366321255794909,-0.0394053146202698,0.00550749332182597
-0.0369678667240163,-0.0402221988929641,-0.023045641335178,0.00211692792189281
-0.0236973521673746,-0.0386414623059508,0.00105095445300293,-0.00190524180124058
-0.00718278468968155,-0.0302724558159878,0.023951537928923,-0.00484199750055712
0.00740102924655209,-0.00870419925965318,0.0270248185607508,-0.00546015019184281
0.0154919508474792,0.0113610962074805,0.0161227012819818,-0.00458206319052267
0.0125762786320554,0.0329087788293072,0.00822777521032826,-0.00319969400249713
0.000906776303482505,0.0576025235745069,0.00748404540879412,-0.001828255667933
-0.0138686758489132,0.0556885707038511,0.00839493782496061,-0.00109131402767053
-0.027416162168079,0.0244619480880117,-0.000259725271085517,-0.00106876182101064
-0.0378643363414677,-0.00253556576245281,-0.0174393432274952,-0.00228405766565312
-0.0459281440200011,0.000636047899427838,-0.0330267524879963,-0.00557758191438839
-0.0477687445714495,0.0278120087589483,-0.0443391619784329,-0.00985427745664688
-0.0381902478685095,0.0497040319879273,-0.0528332923455927,-0.0129109966214322
-0.0256898709059515,0.0426466141181014,-0.0535490003565027,-0.0132321325169283
-0.0236731632345641,0.0088837183373611,-0.0433218515309197,-0.0100341539265607
-0.0296933793301813,-0.029337080707227,-0.0304389445859076,-0.00433595817321713
-0.0375663472283366,-0.0442695967500631,-0.0236943416916707,0.00187122872212125
-0.0453758142791471,-0.0186950996104821,-0.0262278684622076,0.00772373569410708
-0.0457007913903846,0.0265293606874337,-0.033589134869557,0.0123136567241822
-0.0401900676595252,0.0487738532015868,-0.0362259367609058,0.0137919090493682
-0.0396871753434842,0.032630763472164,-0.0318341617367721,0.0114938332299609
-0.0437828052741477,0.00772606028339993,-0.0270672275230592,0.0067908599025217
-0.0485443406020551,0.00863167098701522,-0.0260301731963827,0.00117161499654586
-0.0521612725773555,0.0237382695746472,-0.0236321007400337,-0.00429886871305532
-0.0506450359091891,0.0319588073604085,-0.0157984495400879,-0.00774516181200067
-0.0442085598753442,0.0390525495370209,-0.00887846257891832,-0.00743188477096064
-0.0342034275768022,0.0485411312914655,-0.00715429257415935,-0.00390483392093066
-0.0210598065750716,0.0532485565222306,-0.00800909173424322,0.000373057206983997
-0.0056465413342988,0.0463028260212307,-0.00689196196734996,0.00278934169539125
0.0152508027769966,0.0262806160409382,0.0035937685352439,0.00258548183287204
0.0428982838675405,0.00485638200406296,0.0197725953190835,0.0014488750389692
0.0605294915868185,0.00140144740216387,0.0246844107403373,0.000630167921493949
0.0519429309693256,0.0164396187704212,0.0139304368667678,-0.000702958644832901
0.0302805073634016,0.0297717541456053,0.0012473404293552,-0.00305902938112184
0.00771532272176399,0.0232221811233283,-0.00179305282428963,-0.00507157321432176
-0.0157285348693528,0.00587029661231218,0.00511439995888639,-0.00490377922097634
-0.0320673606781811,0.00627976363881912,0.0171591805378637,-0.00232393221645602
-0.0306506271140671,0.0267203394447222,0.0251124699430654,0.000850919934151368
-0.0121913018837404,0.0443175587137407,0.0223226569724092,0.00259299562576026
-0.00492866814411748,0.0471650925677215,0.0115371811952082,0.00271229920682548
-0.0220948452612979,0.0505503889012609,-0.00619245547871573,0.00229538147665608
-0.0262799630975172,0.0699818335810696,-0.0236507041252791,0.00142271609383011
0.000615193722697855,0.0736043286351518,-0.0212965543285257,-0.000378749524445789
0.020335540588587,0.0316250198839682,0.00290431264690055,-0.00188792333698694
0.0105362615848238,-0.0124341771294789,0.0277239229672647,-0.00109601804782226
-0.000495133186195928,-0.0136640994159353,0.0398285659095367,0.00183278939066469
0.00422583994225001,0.00663296759959226,0.0440876794122023,0.00454116610262876
0.003833391900981,0.0146790772065537,0.0450485148215593,0.00530243676613491
-0.0193419433174001,0.00876365729136798,0.0395574576608131,0.00413306932716044
-0.0547589399257738,-0.000176392392837781,0.0282126209667273,0.00199727956502229
-0.0709823406124264,-0.0181273299106199,0.0172212399664558,-0.000139057883078267
-0.0517762046111965,-0.0449305364164638,0.0134850637079079,-0.00155574521374476
-0.0141891184605552,-0.0465949445579621,0.0164225550791803,-0.00160526934036924
0.0222408259782756,-0.0108873105794528,0.0172773996374551,-0.000559730222335208
0.0591270283926079,0.0264596137478489,0.0142557153843192,0.000686240759678487
0.0961977849329971,0.0422315758931355,0.0123695691127477,0.00160839004020638
0.115998050698267,0.0443423432570778,0.0122333464572822,0.00188770957555151
0.106398480681286,0.0413388772836073,0.0120928152776568,0.0017982323139651
0.0657918757912483,0.0352548435834276,0.0121616006275887,0.00220724576249538
0.00763739174973838,0.0266651419796017,0.0134180828603848,0.00317316740825746
-0.0374640351140438,0.0170900873745936,0.0150814809619612,0.00389849114772971
-0.0544066008103442,0.00920343539730453,0.0154658225533002,0.00391626905840439
-0.0557653299780971,0.00379926890207798,0.0168058322837053,0.0033126512581194
-0.0536829074601497,-0.000290212022316169,0.0200823882505534,0.00237246433255282
-0.0434808866945305,-0.00505018266595106,0.021066117612383,0.00133223980312042
-0.0218264692197721,-0.010451635841414,0.0194197947207993,0.000595011645211879
0.00135963320230858,-0.0131204546805712,0.0167982462448972,0.000656164344805674
0.0195842244959035,-0.0139952642877909,0.0102594693690117,0.00147889198250077
0.0323063474231681,-0.0186323390567741,0.000529319367788758,0.00242825825255202
0.0466320109939106,-0.028902426984812,-0.00688779203321699,0.0025596181333248
0.0665665313305045,-0.0435925694883456,-0.00978509301464458,0.00127211617837111
0.0814173457462784,-0.0523537296722382,-0.00851223548950072,-0.000879712348136728
0.0850251858766669,-0.0399361194550355,-0.00461894191479223,-0.00273010094329894
0.0733949827850403,-0.0182900744876071,-0.000426613883725112,-0.00341205683214393
0.0474074319719527,-0.0115449634523611,0.000299847603720849,-0.0024945546100107
0.0189577639115103,-0.016107169763348,-0.00637297091474478,-0.000506946092372363
0.000837210775178718,-0.0179585615417713,-0.0174979402475528,0.00125743375924577
-0.00407357638559795,-0.0156722802325009,-0.0235154942248806,0.00212346966010693
-0.0030957752081703,-0.0157552295647774,-0.021967227999049,0.00233807430673324
0.000953877785806807,-0.0198100375738709,-0.0184361460804442,0.0025372599329523
0.00832441589511746,-0.0247235935335054,-0.0149956190416775,0.00311782081095805
0.0157674331366025,-0.0287140962768929,-0.013359326203571,0.00401274983088847
0.0241456102407785,-0.0210616181256851,-0.0174220517099482,0.00470087076431912
0.0368391101898894,0.00116272808784349,-0.0247512567275857,0.00359033096660177
0.0489525862800669,0.00841798129339741,-0.0218105206403972,-0.000153169502596645
0.0576302444990302,-0.024251522910079,-0.00442587657890764,-0.00382981786617192
0.0615418295555174,-0.0676168453106107,0.0103164348818722,-0.0037217034837643
0.0543392374528492,-0.072929355380546,0.0089425960744547,-0.000108955313841579
0.0412460488363372,-0.0471654192858076,-0.00520355913030675,0.00323729722576077
0.0357330162553197,-0.0312429591595429,-0.0226995124652596,0.00375563476099927
0.0386138386050977,-0.0325111784787466,-0.0378633117753567,0.00205871031436084
0.0428422880462941,-0.0348764939219725,-0.0473811519142095,0.000205171218562741
0.0481905833796968,-0.0293105383435951,-0.0492363100508357,-0.00113264868248046
0.0496746098673463,-0.0235630873707066,-0.0445007231774666,-0.00289413988881467
0.0400738269009574,-0.0271079039142111,-0.0356871886211519,-0.00437865019689464
0.0302893447818091,-0.0233241842698556,-0.0290901361865137,-0.0032756775907368
0.033149002432231,-0.0202057552156616,-0.0217889995301966,-0.000378187740342336
0.0424241862112771,-0.0544522013297771,-0.00370843470079481,0.00163311281195542
0.048184333434973,-0.107023531905557,0.0153836814786057,0.002879837965736
0.0502457137643697,-0.130549765240185,0.02066739341125,0.00431037089783801
0.0489791181755574,-0.116804506236966,0.0136996816900149,0.00517100661305584
0.0473513886518593,-0.091763377467952,0.00557326743999279,0.00469368499451641
0.0545673214192386,-0.0738984140581624,0.00413418088149072,0.00316274293055308
0.0635902925364928,-0.0476800247045612,-0.00128245873785866,0.000921605943840011
0.061749771801576,-0.00175139474494078,-0.0208506052032815,-0.00207031019578026
0.0570067431965139,0.0358755691338974,-0.0435113724853005,-0.00538179990793025
0.046517688734597,0.0375984436069264,-0.0595686217984761,-0.0071333862702729
0.0187256559756358,0.0186424275638204,-0.0755407611922357,-0.00560483206081156
-0.00877138288394297,0.0133661445045471,-0.0950842353382731,-0.00209249289098083
-0.0183314577950043,0.038060452630557,-0.109410782837769,7.96926593091413e-05
-0.0174097806301767,0.0695381308867467,-0.116257383762962,-0.000648044175391223
-0.0187336971571208,0.0734623318833571,-0.115187248846245,-0.00247695463369198
-0.0249874292414903,0.0489579723499914,-0.0998460254132793,-0.00279779156645344
-0.024693848186017,0.0156078398680406,-0.0769013824113177,-0.00127826632701144
-0.0138395456118989,-0.00466446404535366,-0.0544506191154887,0.000199658585464996
-0.00545527258052814,-0.00760513107530252,-0.0277474024339792,0.000385359448414208
-0.00320419141365971,-0.00619342617917032,-0.00152863561281885,0.000661770387545801
-0.000566124969025153,0.0029154837937114,0.0113799396616611,0.00237937461904942
0.00530977260927638,0.0226435414082739,0.0152890208763403,0.00387544937483706
0.0169184906925788,0.0242576351658126,0.0226636076816637,0.00324306540484814
0.0305178984417025,-0.00157337410092541,0.0244493154900947,0.00126232084039674
0.036959401523565,-0.02615379533876,0.00950559739772498,-0.000831775610174916
0.0312403241268121,-0.0470742764669882,-0.00127411400320014,-0.00282840857552615
0.0138108531295812,-0.0727254759054119,0.00343118542487603,-0.00424876858477889
-0.0120947191044022,-0.0829293267577792,-0.00182301232836057,-0.00447891079199493
-0.0409803346584944,-0.0645139938967168,-0.0244508014034354,-0.00363975521767089
-0.0583998693835989,-0.0295139693967584,-0.0437749101566279,-0.00244699875151805
-0.0540974405045286,0.00447157393893576,-0.0521184770820518,-0.00163501549733695
-0.0402212787001886,0.028374209817,-0.052786941145282,-0.00154389345884579
-0.0334241833215618,0.04354653540564,-0.0480518685865123,-0.00226598470395214
-0.0317147957892349,0.0547472008160777,-0.0419776623853684,-0.00400472346093771
-0.0256194484016578,0.0652167654909084,-0.0406992437262775,-0.00655323957111959
-0.0149973016486299,0.0696971166919781,-0.047835449770487,-0.00906548041046224
-0.00119214930142051,0.0516529094919012,-0.0505447068535952,-0.0107437577349772
0.0166329686900794,0.00677153687787333,-0.0334090174105419,-0.0103913438704278
0.0336698839006955,-0.0397921216467705,-0.00952813933906269,-0.00670510275050454
0.0513011825727283,-0.0616919236232319,0.00853889525814397,-0.00090415017837297
0.0647320479316725,-0.0549553161349993,0.0260426406843419,0.00365511696963717
0.0528732671533005,-0.0267143250752466,0.0297471388093231,0.00548858441880372
0.0233831178348695,0.00646507146725096,0.0103911090106194,0.00525672209576078
0.00467097889159407,0.0258299580248184,-0.0118653355390086,0.00289101472879521
-0.00292449002745264,0.0330258011861772,-0.0191527225353545,-0.00141061170984028
-0.0164675322954843,0.0332772658403767,-0.0103672272234113,-0.00533009225182694
-0.0336709882749346,0.0233149610985847,0.00122156447275136,-0.00641540090258107
-0.0394244260086108,-0.00143399324066953,0.00540963755668015,-0.00423616339183283
-0.0378378434819809,-0.0384801569501696,0.0135943056048415,-9.2041239454937e-05
-0.0424041676360534,-0.0646718450424313,0.0271249301459178,0.00405980926830431
-0.0497690181788828,-0.0724723887690926,0.0335731855460629,0.00614097983814401
-0.0501275935715546,-0.0773816465610379,0.0341769887781923,0.00564551406013032
-0.0409704990960228,-0.0768021588346675,0.0287275038280795,0.00404131350470088
-0.0247178284376257,-0.0625958454556243,0.0170487638779267,0.00209848239738564
-0.00757798879146573,-0.0467392309430294,0.00986454781155266,-0.00110016599626867
0.00518359049827215,-0.0438504193227429,0.0102787415373727,-0.00592457444132642
0.0135682379097816,-0.0522147830533369,0.0121839656381768,-0.0102993444005966
0.0238146131789487,-0.0568791442993208,0.0136084249234648,-0.0111871497434868
0.0344568439096714,-0.0481762499754121,0.0149800488307455,-0.0082059964223361
0.0358065632157269,-0.0361270739775951,0.0163809536661025,-0.00414491283138831
0.0336154388421005,-0.0303367850352634,0.0130333863637333,-0.00104461189563467
0.0390215991060395,-0.0278238956865666,0.00290241688116693,0.00132915695827453
0.0480709275014572,-0.0254523743564972,-0.00675223999546083,0.0036284888161973
0.0490298294282654,-0.01944407102477,-0.0170210391641908,0.00616049997961967
0.0391778660263841,-0.00986509803809633,-0.0279116542798786,0.0085416538862293
0.0279712032699894,-0.00646802938559476,-0.0302762324707609,0.00976706957903628
0.0215939419789716,-0.0115697485156259,-0.0250235781471344,0.00920197100951732
0.0176742677499539,-0.0170613983496032,-0.0165401575958538,0.00709920111885937
0.0126088729779026,-0.0216094295438271,-0.00404830144672768,0.00413004427969178
0.00572324635027156,-0.0302747254463077,0.00638998701455498,0.00120872562962868
-0.000831984242104657,-0.0389169835191485,0.00811658669115586,-0.00025228541861061
-0.00765893153130737,-0.0404358107436433,0.00802591530073996,0.000279095533456978
-0.0143640999975028,-0.0353011141772739,0.00883278579196968,0.00156789493891951
-0.0155686979545348,-0.0211143792588715,-0.00168400045663084,0.00219866141235509
-0.011070216937783,-0.0010909223255724,-0.0221982178521498,0.0014436552187741
-0.0076536197936835,0.013769623923937,-0.0360934301132918,-0.000743745836847309
-0.00770411230322934,0.0213955542199888,-0.0398113900014657,-0.00407029504743104
-0.0105324879768554,0.0213897289549948,-0.036629900433447,-0.00790039078305988
-0.0193966249772981,0.0106946604185525,-0.0275565267192987,-0.00922896195784386
-0.0279653362547339,-0.00393826240884794,-0.0181929038228692,-0.00489043280155001
-0.0226900514306602,-0.0104409390997636,-0.014396128957047,0.00273267206274612
-0.00671287399947181,-0.00670027494854161,-0.0171742611305693,0.00826663188479977
0.00502443320292939,0.000517875295151794,-0.0227987335638343,0.00950591995447974
0.00774047167297301,0.00191227891011522,-0.0250523350586805,0.0071039195418008
0.00584863242681132,-0.00348132048546355,-0.0220918910080532,0.00303701507529788
0.00183876617693698,-0.00616055188655676,-0.0171984030220748,0.000252195134654596
-0.00346840723910154,-0.00355416162488374,-0.0131219984432185,-0.00019264888691908
-0.0117219451866293,-0.00128676690460779,-0.0114953550144967,5.57027694222247e-05
-0.0208941322160709,-0.000680445322641124,-0.0115441414079907,0.000184195912293683
-0.0228463027338862,-0.000274900669224779,-0.00986801004475531,0.000847683237537387
-0.0150884113166027,-0.000166569512674533,-0.00695634636893527,0.00151220099393167
-0.00322467856378456,0.00330554848055634,-0.00697935688107691,0.000192878151061188
0.00422612659429725,0.0112082060714615,-0.00785246364000116,-0.00392366857911621
0.00503436168279201,0.0146141823021109,-0.00433202826755657,-0.009040835519451
0.00475964636101814,0.0104522103073537,0.00288865726896052,-0.0128308835815404
0.00861948538749652,0.0059794103759238,0.00917800967380597,-0.0146134211714833
0.0173232591534345,0.00379647545028965,0.0115452005093247,-0.0147184383438147
0.0225154231347041,0.00363916951412333,0.011479559891561,-0.013544855359385
0.0131918808286902,0.0105400185067894,0.00999668111917142,-0.0119316713773934
-0.00803293176595192,0.0228791188743566,0.00520569486126466,-0.0109644553183349
-0.0267456348339615,0.0262002282376728,0.00039109701217082,-0.0105519993975523
-0.0342393410462697,0.0165227439303684,0.00136357723604141,-0.00865664432465381
-0.0333877957111231,0.0077212773510259,0.00678105472050392,-0.00275616073123916
-0.0255173257281449,0.00743827538500377,0.0121927268878051,0.0069617531139867
-0.00904943126280223,0.00915232502065178,0.0169979235560308,0.0162038928725434
0.0115721534419081,0.00840445277653436,0.0230018680991971,0.0206682626953867
0.0289340295631752,0.00876326563362632,0.030456758779137,0.0197288452072766
0.0365898537072682,0.0161499259236673,0.0373955154487147,0.0149035792325558
0.0317512848359119,0.0183495679905998,0.0465996985321298,0.00819190141941897
0.0231706509563931,0.00484159410654081,0.0602190328261534,0.00172245132447607
0.026650999909855,0.000299867514419995,0.0697301403856203,-0.00263389238687011
0.0439444173347666,0.0164136752885803,0.0703070809741449,-0.00433000936077044
0.0570847443369597,0.0318394463544538,0.0676856467586987,-0.00500721424481116
0.0479808929972449,0.0368698031446705,0.0632435911330391,-0.00572209947252317
0.0241720955638351,0.0438718005872549,0.0534972236952317,-0.00463704361261677
0.00674088847945849,0.0520582555621346,0.0456914953486103,-0.000368670076390024
-0.00403303063325536,0.0510601179725719,0.0456395599929535,0.00530240331739999
-0.0142318534072464,0.0554718823924589,0.0418072483403875,0.00894940710408328
-0.0143971049289473,0.0640610666325176,0.029573316563765,0.00781644345300477
-0.00455125805893485,0.0518913509376555,0.023025870548746,0.00216092420605809
0.00210310161624346,0.0157126708360243,0.0358827724349152,-0.00388490058457289
0.00714642999422598,-0.0414732482050118,0.0629381359426042,-0.00437608287157437
0.0158267418895924,-0.0943728692806761,0.0825382599012253,0.00290150904111181
0.0299021479279737,-0.0999311495390125,0.0896931987519526,0.0123001330091505
0.0552077624286414,-0.0535700330112031,0.095090000329428,0.0152402350352655
0.0726916383935358,0.0160237675695355,0.094962433757791,0.00882629393868554
0.0554679899994999,0.0672225707839045,0.0908636199349406,-0.00309668399481746
0.0157965428314271,0.0738608213613209,0.0992252311935114,-0.0141998070851645
-0.017955545113061,0.0529661563033629,0.113018071097765,-0.0183362913067632
-0.0380678414348506,0.0400618737028801,0.10754709022399,-0.0134106728110393
-0.0528895370976858,0.0473354029665536,0.0806245818848628,-0.00268668038476377
-0.0679021440734424,0.0510275478367177,0.05734401313474,0.00974985554775836
-0.0833276588861179,0.0356195304230143,0.0545137635305173,0.0210549957479365
-0.0917859631351634,0.0326123111167345,0.0554520594108154,0.0289785943927582
-0.0820006685639642,0.0789322534125239,0.0444998619643842,0.0322607590240216
-0.0616155688490946,0.160282237963545,0.0316161356693817,0.0302088989170742
-0.0360457525240834,0.222980701012464,0.0295570245056691,0.0229944060722754
0.00050799380754632,0.219202883133078,0.0362025098663125,0.0137453007656513
0.0308866216555717,0.154161569582135,0.0385048510995307,0.00689979341097342
0.0325378254761791,0.0944775792693324,0.0271238138290943,0.00398049913386509
0.0242926494048733,0.0854102631084816,0.0123796911018028,0.00287749278623488
0.0461851357464641,0.103689542012157,0.0151713359397225,-0.00011736629026347
0.0845471415169816,0.103337792031076,0.0418674648167334,-0.00556808274134989
0.0839392941778729,0.0739837542028523,0.0743767177207818,-0.00911847849738625
0.0307190093854812,0.0326892425774824,0.0927870962792205,-0.00922905316776126
-0.0267458271745225,-0.0176365165863817,0.100221403281012,-0.00956406266763376
-0.0417411761440312,-0.0561378800097217,0.0935333886867063,-0.01185102127594
-0.0254316834855486,-0.0587080130300546,0.0686210750134077,-0.0147217106103953
-0.0119364794801909,-0.0432159273109724,0.0419542958622067,-0.0168599835160199
-0.00874335767620806,-0.0208509736405441,0.0204584789969105,-0.0181504115324261
-0.00302982502415866,0.000961940837459194,0.0170071743264466,-0.0188620033305102
0.00104940951691415,-0.0141360251735999,0.0507312082480945,-0.0171685410894251
-0.0295894093268491,-0.0713645656781644,0.100263804106909,-0.0105803206149886
-0.0907748739485309,-0.117858782413878,0.121223695370795,0.000342593797180591
-0.141834139773181,-0.119680740133835,0.0975554663527116,0.0115490091495526
-0.167282038199715,-0.0997312241085046,0.0603873993921299,0.0191701968883578
-0.161482032434771,-0.0832373041977414,0.055548123347879,0.0223673188927157
-0.124708886809368,-0.0656899825640891,0.0790219890340486,0.0205727518114735
-0.0756120273459393,-0.0394560993248004,0.0872257127638892,0.0136741887214653
-0.0391644922672216,-0.0148661803665254,0.0734004935403053,0.00509271092772313
-0.031559453706189,0.00642911295956133,0.0615165570865996,-0.00116045784661377
-0.0388310745907423,0.0505304431060426,0.0443949342697756,-0.00564884630147514
-0.0411976575903418,0.145245265656048,-0.0046118216779433,-0.0119430194387843
-0.0293232884087344,0.264012555461618,-0.0744087900835414,-0.0201675852554363
0.0198067971675623,0.330494459857377,-0.122122589966202,-0.0260721093168611
0.101461304660269,0.308630392201106,-0.117138044370094,-0.0257333521855053
0.157936822925465,0.213781486533782,-0.0724753970173275,-0.0199373241988138
0.140566299960093,0.0899872425011909,-0.0380754184647639,-0.0131114412729564
0.0713887029612722,-0.00728381450790172,-0.0268814352298373,-0.00742941155652201
0.0182013880845801,-0.0638928063543776,-0.0108681683768485,-0.00198861025294977
0.0195118850152428,-0.0858322864324128,-0.000461364967545244,0.00340008857000251
0.0588427382833078,-0.0849722440342894,-0.0147463456683558,0.00738779250892809
0.0886793291576775,-0.084363426104423,-0.0280674589718184,0.00897003619690944
0.0795166285192542,-0.0917445485859391,-0.0128218466454094,0.00816165077055113
0.046277714321155,-0.112250117657483,0.0328259392810044,0.00570489547727554
0.00613881286677459,-0.139859062538947,0.0815551767462584,0.00330516577701499
-0.0460185465743796,-0.161368183192572,0.106678638474597,0.00233542034945215
-0.0961323565091491,-0.176028816279422,0.111941226244757,0.00251323961353715
-0.110455090619038,-0.171051634761845,0.093560337596765,0.00278027507503068
-0.0889267979186616,-0.132277328336293,0.0338849172351323,0.00240828454766332
-0.0658938588848373,-0.0776824897829529,-0.0448562856161855,0.00108872588095745
-0.0581345716259456,-0.0404367620602239,-0.0794440363595112,-0.000649085105389616
-0.055120113052074,-0.0162038966575155,-0.0573218324485711,-0.00103012650817444
-0.0522008105531754,0.0144304099921618,-0.0232820749724059,0.000788600879813123
-0.055335588820673,0.0324574905216188,0.0025346532952641,0.00305885071092712
-0.0576942350713822,0.0287801887661216,0.0117078669154323,0.0040182994759902
-0.0400621025302681,0.021803196122258,-0.00869188905868068,0.003930939314476
-0.00430697308386858,0.0189016594217655,-0.0443569891750996,0.00372743241206337
0.0249476853655351,0.0176139709834474,-0.0673667136327252,0.00380464570105053
0.0358686206922366,0.0226002411008568,-0.0669659542161413,0.0038781237175976
0.0359182411314714,0.0384254397366451,-0.058295486536933,0.00328208726702655
0.0339155994763342,0.049168245231244,-0.0571753200610681,0.00238546807849887
0.0340211782672213,0.0446801671237619,-0.0637686687015042,0.00312583957143279
0.040151134622271,0.0301812207373446,-0.0693227033736763,0.00630347921254514
0.0505209483130883,0.010321969570453,-0.0608501362111372,0.00952039640182169
