0.00691208141096825,-0.0310832598797044,-0.00215394442519581,-0.00186108715645435
-0.00292727174961664,-0.0342767707811276,-0.00332977997717756,-0.0016065444589613
-0.00790006259135104,-0.0344164865488075,-0.00355886379355676,-0.000896708236510782
-0.0129680664898519,-0.0285054496228787,-0.00419549585686181,-0.000262766698435359
-0.0211117082130274,-0.0164372631570048,-0.00499609934326145,7.19534865799461e-06
-0.0270962618834934,-0.00292473863190098,-0.00617814551204046,0.000211186646479998
-0.0229172636645568,0.00640104474154655,-0.00783533758554519,0.000573482515564315
-0.0074152412832203,0.0105727791090187,-0.00760264842204079,0.00110855828217436
0.00631901106403533,0.0127186482120547,-0.00525187747858327,0.00191635754344743
0.00950620825543575,0.014584773210703,-0.00298578773851494,0.00286609029541828
0.000335325762832395,0.0177799904989338,0.000197897390137997,0.00326257217161456
-0.0157223559656524,0.0232196916885802,0.00489334927471097,0.00256595515018314
-0.0238833345898256,0.0257360383868324,0.00857344633401371,0.00116667947194079
-0.0206572167432022,0.0193692374937275,0.0101644835916141,-0.000288968325574551
-0.0127010315383889,0.00507986837640808,0.0102824851405238,-0.00132800344734467
-0.00225051921095998,-0.0115632214664556,0.00975972834802263,-0.00178069069553282
0.00770898326120883,-0.0293628288820054,0.00910996737928946,-0.00190982647841324
0.0123569595938685,-0.0532957005956543,0.00714062700364438,-0.00157244589993117
0.011518873529102,-0.0707756539754314,0.00361298816091857,-0.000582211049415032
0.00507536082148714,-0.0597958776895339,0.000311226581417152,0.000416100048133588
-0.00788344074444303,-0.027495307363188,-0.00167316740387109,0.000875140417062207
-0.0253466461886893,-0.0014963582720917,-0.00269518942336441,0.000971030258782971
-0.0376691613751332,0.00698186088872004,-0.00349574526810748,0.000937524202507692
-0.0308689229607139,0.00684190494614007,-0.00506570430025072,0.000863021595611234
-0.0068482765423831,0.00595776508283953,-0.00701942989970573,0.000643308249081504
0.0174117895487196,0.00593972350087724,-0.00520989965255439,4.60348492226364e-05
0.0275622290625364,0.00530296642879482,0.000983288042911954,-0.000764482187539843
0.0192592076695381,0.00893323698059406,0.00683096546855467,-0.00138150470913591
0.000275733799565421,0.0264175082941909,0.0101201795995477,-0.00144738916398678
-0.0197857861522095,0.0460440749311688,0.0114882144760431,-0.000876280204386424
-0.0312385263816252,0.0443667050396118,0.0116045996483345,-9.26128728830217e-05
-0.0260512653781714,0.0234846096323302,0.00939168305151255,0.000587073365353027
-0.00846968107154837,0.00344624003100123,0.00516955187602805,0.00106867711114857
0.0105537864631835,-0.00882604441099505,0.00236083848116195,0.00110680976558184
0.0226258152889071,-0.0184679352426655,0.00287180122580952,0.000716685939308312
0.0254247360489248,-0.0264306715989442,0.00405836185058598,0.000269491901568637
0.0225101049480384,-0.0315321085950019,0.00379787713402011,-4.4568439089548e-05
0.0159113781916201,-0.0359496330800337,0.00302240237898361,-0.000375206777917933
0.00801717921042432,-0.0390095436394913,-0.000446562096687584,-0.000828116523623475
0.00702561751695012,-0.0337362416100718,-0.00781807642801487,-0.00111201032583048
0.0132291300679365,-0.0182040367654267,-0.0132816844955751,-0.000660830662367862
0.0180761193577797,-0.0033868587978954,-0.0125978034094444,0.000275357118198891
0.0180950541775084,0.00250362999584964,-0.0082517076870773,0.000612800950453243
0.0144522829467254,0.00261238866060833,-0.00426622928902025,0.000147117371791028
0.00479557754640217,0.00149062835276592,-0.00172277270002665,-0.000566190386481215
-0.00747174053315556,0.000253674290810371,0.000388852143440208,-0.00151164672028123
-0.0128938323883425,-0.00189228874378628,0.00073765822398901,-0.00255699235783083
-0.0107666488716238,-0.00335439318194017,0.000606759316365509,-0.00302654178910316
-0.00568139320837771,-0.0011272653301894,0.0033357034309276,-0.00262709772609565
-0.00302444725563675,0.00181305453980678,0.00597655346187908,-0.00178812786439186
-0.000886967977864542,0.00129494349196512,0.00626059948356595,-0.00106816269207387
0.00352325531357752,0.000188497509256657,0.00951699330323748,-0.000651697574635462
0.00696064369627847,0.00256792921394625,0.0154897072636588,-0.000655231688229939
0.00999085398334261,0.00958657795217832,0.0156790485169826,-0.00097548800011292
0.0136706899230593,0.0215043018390549,0.0115144339084581,-0.00112114283546988
0.0221280764451202,0.0283568524279499,0.00872590481173306,-0.000634361068619133
0.0298080638127643,0.0185333799824833,0.00561521072333785,0.000551306807113611
0.0198395480207834,0.00436673376091372,0.00266697911688968,0.0017463600765818
-0.00304965241436354,0.00350683333664607,0.00194252620874897,0.00210498077087033
-0.0149340673482517,0.0118554307330352,0.000706860910158681,0.00154562253002866
0.000388223827574318,0.0151845754942399,-0.0036318026672697,0.000377775230673505
0.0297549510060531,0.00329021554473171,-0.00790349971160171,-0.000919427264373457
0.0360233258989828,-0.0160532963849176,-0.00861699530482676,-0.0016862106276252
0.00719231197966618,-0.0148599380778859,-0.0087218409188147,-0.00166104955232328
-0.0236772477752329,0.0113864050949623,-0.0126494352158346,-0.00100319769948859
-0.0267176126692818,0.03223621229777,-0.0163822049196023,-4.47355645919829e-05
-0.00687962219452177,0.0289967527467813,-0.0125546016615436,0.000673944626275346
0.0182023456031711,0.00948044098717536,-0.00365449856739638,0.000738053775995776
0.0328710370671299,-0.0131158620576813,0.00476911936630054,0.000259006339637372
0.0279914627337583,-0.0282933562308188,0.00746260750242741,-0.000183430471086564
0.0135419354044824,-0.0231729094398186,0.00576093479811646,-0.000266922748264582
0.00505672916703073,-0.000839868934207198,0.00592086433005134,-0.000299996775671779
0.00243555169591379,0.0132726887376626,0.00392303344898687,-0.00035020587642143
-0.00250453307650104,0.0111063278860199,-0.000846193650261794,3.38873897685202e-05
-0.00898809607093395,0.00960907613748416,-0.00205562577793163,0.00119558091233419
-0.00985611264999916,0.0147268007028247,-0.000627763486905419,0.00276058946720508
-0.00318695103592436,0.0159059265795809,0.000351195565101568,0.0038509413588072
0.00434276008793041,0.0114286686761736,0.00151595085940658,0.00401596928174686
0.00489991543419563,0.00795722024510222,0.00323748004471396,0.00347325707256783
0.00239941688916621,0.00721920851059216,0.00447371092424275,0.00276832346279516
0.00321075696145306,0.00787237339647931,0.00431971955726316,0.00217187957067234
0.00757531799132059,0.00658425164790734,0.00325361325972713,0.00159862842054441
0.0159004014201159,0.00195649213503154,0.00120095762758233,0.00100548835851918
0.0264573793510544,-0.00269867357931022,-0.00366346471598523,0.000488221429681933
0.032878676970102,-0.00396243931908313,-0.00991281845396367,0.000200282802351226
0.0335284867554331,-0.00378473521071209,-0.0123756564245665,7.98327549187132e-05
0.0309627408836054,-0.00465752113828119,-0.00816487706604527,-0.00018587238879142
0.0238415892551182,-0.00358233961138154,-0.000737359597760267,-0.000744880758844839
0.0132541156161575,-0.000704254741414303,0.00250993315381432,-0.000939356865652658
0.00184497821356215,0.00470057960347937,0.00191714886566967,-0.000159292843347821
-0.00833629644413397,0.0136903160554134,0.0033919109037256,0.00106760201728639
-0.0148458504554647,0.0184026972893118,0.00730402171612669,0.00204627579166947
-0.0185216654844422,0.0161523810282484,0.0108614073686274,0.00246104974810814
-0.0185749314820221,0.0121169517197564,0.0118593624407323,0.00242555614391533
-0.0151774144634112,0.0108501591845595,0.01079354738954,0.002239735212201
-0.011675096313882,0.0139571371797828,0.00952603476278857,0.00176407133257762
-0.00635223418531419,0.0142703325315115,0.00804759071392541,0.00109431736665351
0.00337650084283964,0.00551557900155412,0.00370386947279823,0.000623375092560467
0.0129483578058619,-0.00396254076394483,-0.0043280828322257,0.00039586766012335
0.0177520818713983,-0.00603372045261962,-0.0113106940858119,0.00047624104769463
0.0197394880607613,-0.00735570471418782,-0.0111933868638455,0.00055644575098196
0.0233472833741277,-0.0198679868088045,-0.00687045276386141,4.72671501084355e-05
0.0266416561906214,-0.0364119489940561,-0.00819603493063408,-0.000660136417148263
0.0192712907588788,-0.0327394646248564,-0.0135938769827497,-0.000772517620433211
0.00161748235745296,-0.00841333356482721,-0.0149026049138137,-0.000108615573223423
-0.0069671103072279,0.0116413058059938,-0.0113513865733141,0.000828104298547252
0.000446978186275256,0.0106461488096686,-0.00692397090281032,0.00129142222987994
0.00295756598593392,-0.00285727998823324,-0.00463925668463434,0.00110205817823893
-0.0134311801343422,0.000743496237881707,-0.00136480825394852,0.000743231462802264
-0.0368080656936106,0.0305743324710754,0.00589589432663395,0.000379296975451644
-0.0521289197501874,0.0578575563059789,0.0127176695840278,-0.000781508949107156
-0.0576107412668263,0.0634602136504612,0.0150531785159043,-0.00303248112794421
-0.0549419945010102,0.0563832070164025,0.0137096112287552,-0.00515081302911373
-0.0474332663054729,0.044856750537193,0.00954149721992145,-0.0058581292165833
-0.0394565577250236,0.0305049997395658,0.00289620780628051,-0.00500383565728607
-0.0273551552583486,0.0182274167049198,-0.00333437651691656,-0.00333238027617976
-0.0106407062421496,0.0127156638651906,-0.00503836807318429,-0.00171841816252654
0.00144460242443845,0.0129536484011746,-0.000880628126192631,-0.000820207468331778
0.00628581945898348,0.0125299143969718,0.00692453280096442,-0.00113675104026303
0.010146932866493,0.0122390434379511,0.0137045132705392,-0.00194278997963556
0.0179229253943938,0.0164658794715597,0.0149307656336776,-0.00181895689782553
0.0269562485779176,0.014189808935334,0.00996658339070985,-0.000678624291344649
0.0306940453243238,-0.00402154643536946,0.00193576431343745,0.00059112970473146
0.0296172103060063,-0.0281223144281695,-0.00373433341692598,0.00119532163364331
0.0242417966153494,-0.0333447292966503,-0.00513222778733189,0.000885888057327765
0.0134104567937738,-0.0077559325879113,-0.00568569505937818,-3.87612587932706e-05
-0.00232073049873488,0.021377433651583,-0.00635392696257586,-0.001153599426047
-0.0188951060904966,0.0300354622649578,-0.00446902714429207,-0.00202859933472621
-0.028908736697054,0.0274372750940771,-0.000194648392231557,-0.00217526086061123
-0.0331091720570405,0.0245186223020188,0.0033512212299557,-0.00161342900402094
-0.0362419194650219,0.0173823097808567,0.00430347715501501,-0.00104098895012623
-0.0366196303282783,0.00197904748280139,-0.000758657279772586,-0.000721807140166075
-0.0315861237623946,-0.0131764696571162,-0.0144098450872062,-0.000430597229046532
-0.0240922521955095,-0.0201431064087086,-0.029316637909508,-3.33422356104659e-05
-0.0170572689505894,-0.0218460838153108,-0.031830024005437,0.000669665088853246
-0.00774594981475657,-0.0263999765638204,-0.0203669110575724,0.00152673852933767
0.0107429979514748,-0.0373935654639656,-0.00805929744273677,0.00174130945735983
0.0356161235833013,-0.0391445695214607,-0.00377133560539985,0.000786857291868569
0.0470085194344607,-0.0176490122260372,-0.00336925101773498,-0.000922623673192296
0.0333451128701021,0.0104896919288703,0.000859602874130339,-0.00257611998516603
0.00838316115508523,0.0224646318998293,0.00601283065370957,-0.0033215189508188
-0.00453824703913603,0.0156043804808482,0.00633121961679955,-0.00245345974492191
0.00555508853899361,0.000632039690549674,0.00428980568632723,-0.000321520239088553
0.0267807083146262,-0.0133928957292343,0.00205049638855615,0.00179822709985314
0.0370548617925419,-0.0223671974059392,0.00123968414947704,0.00284207173748748
0.031354383201243,-0.0253769284870785,0.00205014994701362,0.00250845735999233
0.0256580847912416,-0.0278203187288774,0.00164023818176222,0.0012897020015582
0.0275655181559936,-0.0350173463170325,0.000712602800739726,7.23090887551456e-05
0.0275584482495749,-0.0423220044245131,-0.000527464655540729,-0.000205623802575098
0.0207908951988595,-0.0397444565737202,-0.00325205795968016,0.000743062354415291
0.00543151247957668,-0.0273297285288483,-0.00525677343580033,0.00205527647043882
-0.0206095077247016,-0.0177255627333478,-0.0048837311426994,0.00268670590503843
-0.0474616243567778,-0.0193633206497373,-0.00425019947186067,0.00236887279620504
-0.0624581145533011,-0.024859254845096,-0.00509058626614665,0.00159314968576164
-0.060331773602726,-0.0220839578754993,-0.00677092507666646,0.00107757499126355
-0.0440980595813745,-0.0104463120792792,-0.00794433354403099,0.000969627344674924
-0.0241716980510582,0.00205776690284602,-0.00661414753549789,0.000763792557579607
-0.00900709787756637,0.0104897389333547,-0.00420692142739647,0.000278527617543471
-0.00365245267185556,0.0155774325855606,-0.00451885014057936,-0.000120622715985902
-0.000546915565534781,0.0174936585302606,-0.00657142180187649,-6.96538488194359e-06
0.0182354692948674,0.0140052261335306,-0.00704590621424143,0.000639724611598627
0.0515891793792938,0.00356324481543389,-0.00675492547400279,0.001323448558622
0.0820844477205713,-0.0235171152223323,-0.00779237418360827,0.00160768477633666
0.0855145692534887,-0.0650167589258278,-0.00801298889658712,0.00146501539203356
0.0539185604679324,-0.0852036367802578,-0.00645228879309733,0.00112494238126715
0.0173230474380019,-0.0674206399629086,-0.00650142953098149,0.000804378357260164
-0.000849854945204558,-0.0361095289381587,-0.00781481404627092,0.000558961247741449
-0.0085254410419167,-0.0106839194275406,-0.00495770615750166,0.000430015483125936
-0.0183792351866445,0.0087136827364013,0.00121886668592962,0.000472686172512266
-0.027828660774637,0.0231987465383998,0.00535159502662039,0.000487322604948323
-0.0272635887616698,0.0299726305307211,0.00824579797205089,0.000221688884599674
-0.0181090498723211,0.0322203045279112,0.0096640967432242,-0.00024649841447036
-0.0122927970766682,0.0346009866885409,0.00875825204225671,-0.000510185333807238
-0.0147039460409511,0.034506702403577,0.00793132546835526,-0.000280359911051862
-0.0156792911544241,0.0298410679356925,0.00593349939568814,0.000214280029926789
-0.0129418146525872,0.0220221494764681,0.00560388532907765,0.000627478555875362
-0.0190887237876747,0.0135199176594662,0.0111660809344548,0.00075207823839964
-0.0315070555540645,0.00713736509340002,0.0156258689613918,0.000197625517334689
-0.0348018979787438,0.00257989652563382,0.0134002835149125,-0.000718703816302967
-0.0275930195858404,-0.00187171758819245,0.00721434346750974,-0.00120362725544889
-0.0133984180497709,-0.00640800141982355,0.000521234996201075,-0.00144580437166316
0.00804996428873341,-0.0107109003023236,-0.00582584468579173,-0.00169595457148862
0.0305229571405394,-0.0112210954303408,-0.0142201428610783,-0.00169119894822417
0.0419542468726913,-0.00326063057442271,-0.0211819974102224,-0.00111535708046723
0.0395426556116847,0.00929206773821183,-0.0195422286443838,5.01400840504048e-05
0.0290925966190234,0.0157161161350336,-0.0129829309460635,0.00106773139068357
0.0162006672645561,0.0130398629553834,-0.0104865138941997,0.00120364190670943
0.0106849702302207,0.00856156387069753,-0.0112368080390639,0.000635095244599481
0.0201556110843326,0.00212779538135838,-0.011550079057885,0.000107039458696577
0.0301976021402647,-0.0145344809314434,-0.0102533817587967,0.000105811550657824
0.0197735827414473,-0.0285705998897178,-0.00293300616585849,0.000523491095845319
-0.00443510807386643,-0.0173110600691247,0.00820897926814961,0.000964301485602696
-0.0252412049415291,0.00816953930205668,0.0147960129780418,0.00110446802008089
-0.0383530738156335,0.0204390653839722,0.015327814327042,0.000727404540394168
-0.038260483025285,0.0163346441619374,0.0138265156127288,-2.00423184497801e-05
-0.0237266692661013,0.00887888951131969,0.0125794655541972,-0.00086128628083146
-0.00770418581867093,0.00469157766996806,0.0124469691686584,-0.00187013609554925
0.000898902137382123,0.00144683046203885,0.0115542289795179,-0.00305623458517799
0.00431192377011643,-0.00265295222960678,0.00762323819173881,-0.00388784524381274
0.00616976255531457,-0.00572524635001522,0.00223609045024557,-0.0033612523323594
0.00706475318307334,-0.00681364996705833,-0.00218551379916767,-0.00122772482427853
0.0076209791439809,-0.00653691853808709,-0.00341373431826686,0.0012296100329633
0.00707340879765933,-0.00630347844913069,-0.00233972637151722,0.00247183283777118
0.00543076325344826,-0.00689136210392283,-0.00189007898263379,0.00197100055175459
0.00629243018167761,-0.00929692264233054,-0.00371578273221083,0.000194538569662093
0.00608097881580214,-0.0127084575293851,-0.00702282316064152,-0.00177439028754497
0.00112169569069626,-0.0139455993409052,-0.0092462197408404,-0.00278051868819286
-0.00108597584848211,-0.0112318619053788,-0.008882667779337,-0.00231288458744825
0.00345591296904414,-0.00501012176460154,-0.00469686112385842,-0.000649743857699773
0.00659420688332057,0.000801497465751147,0.000828676617118835,0.00115102829539632
0.00192403001488739,0.00130011541422858,0.00185051438116846,0.00192110778955054
-0.00423701593226076,-0.0033787238768271,-0.00180005351123707,0.00181745797671572
-0.0056164915133574,-0.00603466614152682,-0.00445053877724422,0.00192736552249406
-0.00464903990770963,-0.000906901221711416,-0.000957987369266044,0.00231059080165599
-0.00354744680626224,0.00680384424262912,0.00719803674752121,0.00178806686947442
-0.00194188412943269,0.00935196984150121,0.0114902635589347,1.3912024934512e-05
-0.00203008693714974,0.00733172503601966,0.00941030671715902,-0.00186100579153907
-0.00479003752207547,0.00568719030585755,0.00775365628646886,-0.00282669685093679
-0.00593142446837474,0.00700325128328872,0.00943258538519655,-0.00295058843823464
-0.00473103583719767,0.00864735834235307,0.0109980734220351,-0.00295990311208135
-0.00556758865024326,0.00679569949106335,0.0112692494358446,-0.00322713324697451
-0.00939417945624139,0.00424291846567146,0.0128092570551299,-0.00337577073094768
-0.0127120216047341,0.00490717104405211,0.0153327788105697,-0.00288690539159377
-0.0149619397973794,0.00503740322816365,0.0136486136088348,-0.00177391349550706
-0.0168396801606064,0.0018826764133935,0.00605865290449846,-0.000409878634827333
-0.0150105283397106,-0.000811949306337422,-0.00144725587300069,0.000892070315703502
-0.00830826769663822,0.00115640080963984,-0.00343811565295821,0.00161038849184411
-0.00274703901258715,0.00648069680555826,-0.000286097907289774,0.00139851822151519
-0.00338315608549672,0.0084775968700227,0.00235984206026105,0.000673093599310083
-0.00567493464208388,0.00724996097886484,0.0021043302653582,0.000342948055460022
-0.00655402136649733,0.00927299818616091,0.00361595025264697,0.000963019705030081
-0.00939210062748445,0.0118550513251663,0.00778184768945976,0.00199715271480799
-0.0138511509424974,0.0105187779992429,0.0110973691843792,0.00254153030332735
-0.0155255536025388,0.00801570645448836,0.010765836486931,0.00234389727140887
-0.0122782372453336,0.00613298443440496,0.00799378159132498,0.00152052552375107
-0.00632433959616871,0.00418564467817278,0.00698147309584112,0.000246721659007853
-0.00211609685945035,0.00267274387657186,0.00866704599488016,-0.00106174398779314
-0.00201127202502631,0.00426794225407956,0.011323304329469,-0.00207629041666925
-0.00447769803570434,0.00855788943253973,0.0140417739734844,-0.00298516871521382
-0.0061627301806701,0.0124378917308299,0.0160188241870979,-0.00386651721261643
-0.00486909738971566,0.013867058762613,0.0142966763596124,-0.00430183170273514
-0.00248520892038063,0.0113878636013785,0.00921787491735923,-0.0039603291250992
-0.000238438631517831,0.00747392933984206,0.00466332244756211,-0.00281640487523218
0.00206500722183618,0.00611547090285364,0.00272443204899737,-0.00117424301974653
0.000190422339002527,0.00671911559684804,0.00262718495488611,0.000429989358403399
-0.00959614028439432,0.00820130964728382,0.00152990721884397,0.00144643992709814
-0.0210484059337325,0.0114713689128103,0.000271267823470809,0.00171782305648111
-0.0241870184253973,0.0136152726235649,0.00164105450920818,0.00171082173834333
-0.0140513589997122,0.00779385427697786,0.00388209170354412,0.00184935141917231
0.00330522762407091,-0.0104112310626337,0.00311487938020035,0.00197682762318342
0.0100539134282383,-0.0291070462267484,0.000901507558525538,0.00179402018382621
0.00130943595765863,-0.0241310502808988,0.0027264290346804,0.00130369246149753
-0.00968424942273003,0.00184851101670945,0.00823332666104682,0.000619125432295157
-0.0134214601249742,0.0218303192751111,0.0124663539647204,-0.000127698386165932
-0.0130028227945584,0.0256850982534781,0.0140273208156509,-0.000766132699939213
-0.0140566053348448,0.0224838124788534,0.0145262191081667,-0.00108145233441195
-0.0130048443621724,0.0213255591559073,0.0136945947205042,-0.000908219934208242
-0.00847717578193088,0.0227118073268059,0.0113230616572371,-0.000369384994455583
-0.00656939378360625,0.0224505520456167,0.00947390918131565,0.000187737570353166
-0.0063410791390865,0.01760085567773,0.00927836988225218,0.000354697431138452
-0.00239162259408252,0.00936397624880219,0.00873992129462461,0.000244036164395852
0.00416873272073745,0.00395989295377923,0.00644565515871918,0.000544963764851503
0.00843656706895996,0.00297106621262161,0.00367895350707249,0.00134501053331655
0.00886220086719995,0.00203656191609271,0.00186570412128311,0.00195954210618395
0.00657707764808429,0.00328032386314778,0.00249760840869638,0.00182054721018372
0.00136206092111839,0.00771593538334962,0.00494337343640212,0.000832043886358802
-0.00353116039499474,0.0111803817560712,0.0068166643066973,-0.000512193124818713
-0.00479579012220681,0.0148477890445396,0.00653524848781404,-0.0014573414438041
-0.00676113278447944,0.0204077829703515,0.00450155489008651,-0.00155861706034477
-0.0107826327824471,0.0238987424651054,0.0034487137578589,-0.000754534870874657
-0.00998599327175577,0.0200291265173544,0.00388941424326108,0.000543211096182135
-0.00149933913111718,0.0108998382371635,0.00617074540240676,0.00179874889481246
0.00339317234593193,0.00303534093281614,0.0107286475035777,0.00272983632905201
-0.00651748877444813,0.00197365739075921,0.0149214454189901,0.00313889028729892
-0.0226438970309042,0.00689937364485004,0.0182639262012941,0.00300141965092972
-0.0314570269349915,0.0072628044535459,0.0199098986176234,0.00262162707405908
-0.0290524362384041,-0.000127543530032561,0.0151129570565699,0.00231232337989062
-0.0163424950625127,-0.00909857518850209,0.00755045000676818,0.00211415927960414
0.000931285140874989,-0.0144836199856963,0.00525035592028954,0.00180349736089717
0.0178984379672216,-0.0181799926583835,0.00522534917325574,0.00131193847703426
0.0345228647922923,-0.0247436503742581,0.00395486733747572,0.000952768729522007
0.0488938313213361,-0.0270027874455692,0.00360146850031191,0.000555005661199667
0.0559323879522527,-0.0306060660920738,0.00319228648430828,-0.000417759667527813
0.0484308631783544,-0.0423161621462093,-0.00174792249538879,-0.00160336377651414
0.0282333301018128,-0.03815093885921,-0.0107888410339798,-0.00197945627950844
0.0112434300825131,-0.0130054293586425,-0.0163128395946455,-0.00108206754378589
0.00121353570349169,0.0108301764038844,-0.0128668282745804,0.000529622245835107
-0.0217642811805265,0.0273052602744663,-0.00291055782043326,0.00171873432727821
-0.0611842063408838,0.0389026916423672,0.0046841332502014,0.00194960812512151
-0.0885546950107963,0.0413814912265555,0.00275427976822018,0.00163405530701888
-0.0854370546671175,0.0363050208878028,-0.0060155337039838,0.00121306549499357
-0.0575439522955765,0.0319280441908369,-0.0161324464466382,0.000745048499286219
-0.0219038695297828,0.0264002369971222,-0.0216426167800369,0.000426078679928646
0.00708490457409151,0.0155747720462204,-0.0158716344296402,0.000800086420146719
0.0289791734895236,0.0034435896939796,-0.00408965456737857,0.00188508616181054
0.050555557042351,-0.00741474762798824,0.00278049261623477,0.00305779564840779
0.0719285706719651,-0.0181621935422894,0.00333350348313711,0.00354816584445434
0.0779055422561712,-0.0328282154916559,0.000584888981979385,0.00282777698909153
0.071707260992244,-0.0543643238692431,-0.00548031133281828,0.00124008175545159
0.0760949610400197,-0.072330569278147,-0.0124747066365069,-0.000455798550131365
0.0769368321207252,-0.068183749871543,-0.0155258296302626,-0.00176485193019547
0.0489152495113645,-0.0436019432651327,-0.0135446745972237,-0.00268933455489864
0.00666496967634228,-0.0200026853978588,-0.00884204557599395,-0.00354182572453852
-0.0208462397093015,-0.00990729989712561,-0.00603810636729541,-0.00410740275618526
-0.027619074022699,-0.00975906248222483,-0.00752473211100518,-0.00382979611386889
-0.0281610780758924,-0.0115349947814476,-0.0108058195886854,-0.00290331804875275
-0.0358355791397898,-0.0090183631661805,-0.0121594926982571,-0.00188315112124157
-0.0480147727099305,-0.000987469787613101,-0.0114698396515781,-0.000953043136000668
-0.0515988550982561,0.00490363118751231,-0.0105682065280774,-0.000358299649814008
-0.0440577695401942,0.00445554468972176,-0.0106360854792473,-1.84186879048751e-05
-0.038223399406088,0.00716732836396339,-0.0122448191327018,0.00056419724497605
-0.0437705722024106,0.0193053040365083,-0.0110921274182578,0.00126769088079417
-0.0517545221607351,0.0332334782343598,-0.00538251327241749,0.00142816509918284
-0.0440502423058838,0.0401185937762791,-0.000585167891596345,0.000669427330072808
-0.0178754973517593,0.0406735645932195,-0.000205471547488612,-0.000731543042331895
0.0129490100186218,0.038667905150961,-0.00210172467882259,-0.0019185393563403
0.0319700723210134,0.0346532482937825,-0.0029360523463692,-0.00211792753311441
0.0375506975867876,0.0310046717967172,-0.00300633102023517,-0.00145198518982042
0.0450476924617846,0.0284919503461902,-0.00381605308486565,-0.000609965920912555
0.0559546894013643,0.0259259289312377,-0.00412841435162923,-0.000117467158903627
0.0576548781429519,0.017081281390039,-0.00270204998709911,-0.000310447507031317
0.05089170324489,-0.00262726544984988,-0.00139391520109541,-0.000901896941443409
0.0510030425632416,-0.0191234303672655,-0.00130014025664059,-0.0011777582042618
0.0613168738784127,-0.0257624549990012,-0.00160987610263812,-0.00113316308732396
0.0682231220935941,-0.0368850363939092,-0.00148067528607528,-0.00117567365719936
0.0611758368887321,-0.0409454537669831,-0.00108423866461492,-0.00146364215057714
0.0405866661550292,-0.0134816174098113,-0.00133541704818507,-0.00189591469460852
0.0144186224028864,0.0208538715253685,-0.000392839807259724,-0.00217497540602973
-0.0125123417703638,0.0320952168120731,0.00447290800191773,-0.00201280984050309
-0.0352472486645811,0.02832204188996,0.0128757374167924,-0.00145373208347457
-0.0472739695865121,0.0197817631163522,0.0192941513402787,-0.000952478192610427
-0.0485542238045872,0.00676471556623033,0.0187770426003672,-0.000839080911300202
-0.041143774286707,-0.00494190950452507,0.0116323435574229,-0.000905895973677002
-0.0268116537615395,-0.000431886134876823,-0.00173431387825201,-0.000823104224408882
-0.0107228520158735,0.0177254169074261,-0.0133188500656931,-0.000398038945496147
-0.00028018420824007,0.0200734407939345,-0.0120015632872944,0.000339493502424425
-0.000985810972821897,0.00145772427206193,-0.00585714598928806,0.000887942550517802
-0.00824552305382837,-0.0104757745611026,-0.00774213796743632,0.00135557938671598
-0.00323088724950147,-0.0049346781469974,-0.0129447433535746,0.0024909211082866
0.0194234594850767,0.00886820570716734,-0.0096763228781125,0.00368278513300213
0.038764887369181,0.0183010240603573,0.00235750738856261,0.00349177140745778
0.0452992989399699,0.0162354253670806,0.0109088560776053,0.00191662485653341
0.0467928825047453,0.00770926719031608,0.00931172367515705,0.000101022241588097
0.0456464337097197,-0.000757087449658178,0.00279758024468283,-0.00120986237252838
0.0440927514230155,-0.0071642315765545,-0.00313151921533501,-0.00192525485195967
0.0446437167712829,-0.0105864296291135,-0.00868678877660617,-0.00218664099387058
0.04535749988544,-0.0101733813268373,-0.0133490814354186,-0.00194461887394368
0.0434534231422253,-0.0105132924950924,-0.0148917909338198,-0.000878185159174047
0.0339589663830744,-0.0135653173157826,-0.0132279930474704,0.000922835556521368
0.0180972319287161,-0.0116908346346336,-0.00818659344248716,0.00243572033342947
0.00429917098480115,-0.00662620415008925,-0.0027554011227967,0.00254576027853929
-0.00349395362087598,-0.00501502651216505,-0.00179956175256896,0.0015575503796149
-0.00389137650803975,-0.00648650070717932,-0.00528618885557844,0.00075770087856554
-0.000574370563949511,-0.0116306103496421,-0.01029732531994,0.000515743992329887
5.05263412362705e-07,-0.0173606869060419,-0.0135337736607855,0.000550548047987954
-0.000902589728609089,-0.0166951089513097,-0.0127425043195437,0.00082830292846926
-0.000985733241624146,-0.0105098192522631,-0.0102160574149103,0.000929299784090861
-0.00463378237910521,-0.00464977136426206,-0.00917517264334521,0.000633296576131342
-0.0121913076607445,-0.0024275020115818,-0.00846753170774319,0.000562279960540828
-0.0139331073438989,-0.00366535013984064,-0.008373208494024,0.000803056475681521
-0.00683781482033226,-0.00593157495765971,-0.010679492129347,0.000715782549536089
0.000376633910711664,-0.00876901727194415,-0.0142022207172573,8.71467940451551e-05
0.00181330671491863,-0.0108061278745141,-0.0172814615252059,-0.00056442084663619
-0.00155742745178272,-0.00826918762283538,-0.0183478523189942,-0.000616320412921354
-0.00684421239674563,-0.00196894673390944,-0.0173709612954715,-0.000326167052419664
-0.0115729613810324,0.00236673760718322,-0.0154364732546054,-0.000434386457489407
-0.0145360725541153,0.00301989603092887,-0.012500621675001,-0.000933124210741248
-0.0149961334221317,0.00320379450025064,-0.00907609427134292,-0.00131516823709555
-0.00679191957493973,0.0031909332850389,-0.00632513158268319,-0.00126496878678053
0.0146042630536543,-0.0048073988380924,-0.00593790975189254,-0.000769801477606035
0.0325258175332075,-0.0221308687497278,-0.008948165319953,-4.64241342095491e-05
0.0291284899381167,-0.0265768201726595,-0.0106854673754583,0.000768917541765274
0.0140068049688113,-0.00760725926180399,-0.0065913553081492,0.00144060767615933
0.00308804771937921,0.0117351339756535,-0.000221798814974153,0.00135830795965023
-0.00300695021355659,0.018691709956113,0.00492723310666489,0.000365309620493162
-0.00770977629531452,0.0210887968152168,0.00852046472902515,-0.000940372784261487
-0.00831391791232576,0.0202170569527378,0.0100526171178279,-0.00220339644031896
-0.00552897284128591,0.0163907529958198,0.0113733532467667,-0.00333803754425271
-0.00478121371471828,0.0114364084749968,0.011361601380588,-0.00376115475548346
-0.00649314931634085,0.00331292900151975,0.00598379768843691,-0.00295493603151109
-0.0101126903290022,-0.00218032548268256,-0.00169230371724192,-0.00123421487315525
-0.0159764994661363,-0.00142303741319283,-0.00556322610691955,0.000477475304286815
-0.0160943708948393,-0.000332921396201042,-0.00446086891719034,0.00113222901188731
-0.00573604056116548,0.00257906017702817,-0.00223123452471638,0.000467495584055947
0.00580568493568362,0.00992457652138873,-0.00191936333970522,-0.000781273395693122
0.0112041911995121,0.0161486358704055,-0.000652494431228326,-0.00177635422185052
0.0100960205241167,0.017059281051836,0.00172448868908182,-0.00198522322410255
0.00713847177295891,0.0145307931461345,0.00170948162107589,-0.0014160295284188
0.00614825531574566,0.0124474720413481,-0.000440298313216235,-0.000459857772259406
0.00519569832958528,0.00936232418705697,-2.73786438501926e-05,0.000716250939209018
0.00128481861673992,0.00383039346993504,0.00484887377623981,0.0016309759114376
-0.00680031361995689,-0.00193457530138715,0.00918956150372448,0.00185887460704769
-0.0143521069220301,-0.00745346050606718,0.0100886665586302,0.00184497624441135
-0.0136650250302276,-0.0139165754580572,0.0092269956026628,0.00188457948053492
-0.00521812147795134,-0.0221849618868763,0.00690912668683369,0.00175892955437533
0.00181572270889722,-0.0310044192101306,0.000976592418314871,0.00129761103661
0.00500339289075545,-0.0355229429688909,-0.00739017360522821,0.000600494057421005
0.00819783188526681,-0.0281219494054078,-0.0104029669866532,-9.00209813207804e-05
0.0093215478830599,-0.0118040164891546,-0.00479588300021086,-0.000781114099485527
0.00828007432421205,0.00221152321721561,0.0025341332764647,-0.00142862613352958
0.00608470690081945,0.00950162746390497,0.00721809589258917,-0.00180045871278451
-0.000382173891725501,0.0102368783705057,0.0102424495342122,-0.00171595166640073
-0.00816985081471145,0.00820056352495427,0.0112412962653489,-0.00122531526766242
-0.0142305355940516,0.00723688720087828,0.00963335534533879,-0.000697940565142662
-0.0187182916941296,0.00609252109065558,0.00712269145225921,-0.000243416146706421
-0.0195095075729332,0.00147884064773573,0.004856510157564,0.000268552887967618
-0.0179971125407483,-0.00587606067521798,0.00472450038636672,0.000914810970590097
-0.0187732354064923,-0.00949595457731451,0.00776813142517599,0.00172408177336508
-0.0216001300499698,-0.00861125601541541,0.0111639765729114,0.00256506885568376
-0.0224902947765003,-0.00861029848076652,0.0134673184647311,0.00317425283297898
-0.0264397069399736,-0.0106658686135993,0.0149299913926851,0.00336276202297734
-0.0412191135632565,-0.0138286010673522,0.0142965497318456,0.00316742992526773
-0.0553297223800634,-0.0175605923828519,0.0114148792757813,0.00294442619387062
-0.0550616734928553,-0.023728970854644,0.00508776535176381,0.00304076466810168
-0.0421857602467938,-0.0316571296481751,-0.00536569294511934,0.00336235640353842
-0.0205422725169896,-0.0335259956682466,-0.0128207338805176,0.00374032214302928
0.00207386615037378,-0.0263453108896582,-0.0118442949704012,0.00385436110192751
0.0154566987912738,-0.0154492912613271,-0.00681417480879671,0.00320784042245618
0.0200098690491653,-0.00550202356743703,-0.00468662578875276,0.0018275620592754
0.0211374338200289,0.00417058491347327,-0.00859639996498937,0.000429559338953792
0.0199058917139943,0.0156797764577896,-0.0168203654697758,-0.000304809386756903
0.019230390081704,0.0261900224018918,-0.0219924725488032,-0.000505914706945291
0.0267280952555545,0.0222084020400008,-0.0179954915850488,-0.000630187361431361
0.032330815951006,-0.00169422803583,-0.00855326413661486,-0.00094195014757112
0.0184670004650625,-0.0245199557062662,-0.00144161047319976,-0.00160400411177423
-0.00547464289902168,-0.0291440922346387,0.00126257012899479,-0.0025277001214652
-0.0219294548875387,-0.0207472227507456,0.00227404977066679,-0.00340496075531626
-0.0270180953654257,-0.0107804698572026,0.00256250203421402,-0.00377394447566673
-0.0250172647370123,-0.00539073131653967,0.0025287413956406,-0.00321018275720126
-0.020762280203,-0.00288955161193817,0.00348840529274629,-0.00172390918428736
-0.0181132682069597,-0.00029473331542337,0.00482373370904018,0.000179412958152304
-0.0184578727045098,0.000452990421870881,0.00611525928365681,0.00190013257089821
-0.0164390996843,-0.00112751198934009,0.00609732871892525,0.00303174467381849
-0.00922765248656559,-0.00188113902899164,0.00330694623815347,0.00343918245479734
-0.000837356086798609,-0.00223754547381945,-0.000188665578286866,0.00333010849149058
0.00599770920474673,-0.00250983839302897,-0.00168628550765903,0.00284875922419242
0.00789705068309036,-0.00128552737287347,-0.00146330076934684,0.00189967706048219
0.00523980537192801,-0.000999067922017512,-0.00246275566831172,0.000572731737947566
0.00322336892585696,-0.00437350056673381,-0.00572131278231811,-0.000775964648056047
0.00121490138939293,-0.0081362786738963,-0.00794993773276369,-0.00180042304415618
-0.000593105366657425,-0.00665199554242472,-0.00837607131686617,-0.00251147508100812
0.00274830912511737,-0.00109551698683244,-0.00978338819605081,-0.00325979873890508
0.0112314359111339,0.00443161321372049,-0.0124432306682935,-0.00412717534882367
0.0185519246661973,0.00900611142336531,-0.0153469753001465,-0.00471732688652933
0.0204407243433247,0.0114329496314333,-0.0128531208516245,-0.00457575561823507
0.0189698769128181,0.0101464605553548,-0.00236740316313853,-0.00365220757251544
0.017210669102046,0.00655464851378808,0.00678716449935318,-0.00217329336880785
0.0143221187585837,0.00349335788565521,0.0105700594791682,-0.000434008181657143
0.0115160626915899,0.00351187072936387,0.0114601033735969,0.000960165028584362
0.0112948968109833,0.00606156775031257,0.0098366122111988,0.00152862981075039
0.0102551743779562,0.00506857542961417,0.00837741773011563,0.00134849600144282
0.0034196034310883,0.000922114505252196,0.00787533066480203,0.000730369391231187
-0.00709016560240916,-0.000339381242149999,0.00717551910817246,-6.51492169608174e-05
-0.0149648698751663,0.00168270633322888,0.00644479959404231,-0.000782183056341935
-0.0197311013608173,0.00780073339813148,0.0053773958711217,-0.00137457974102574
-0.0221306487105646,0.0162839996296653,0.00432509058446379,-0.00189629012298283
-0.0211643916860136,0.0203652950882624,0.00380249600695168,-0.00212154100309035
-0.0214738588465044,0.021715650227438,0.00264022862269916,-0.00201359821381211
-0.0233579242822198,0.0250358424955102,-0.002487893446338,-0.00175498777943509
-0.0221876907865346,0.0276694769422817,-0.010983997478304,-0.00130954560782204
-0.0208603109442699,0.0287202293552134,-0.0136065051119379,-0.000692901534700992
-0.0208207720140248,0.0282410976728465,-0.00538612502408551,-0.000277775135488668
-0.0192357927531615,0.0168633753713426,0.00441245112706028,-0.000201900362040349
-0.0126691972226696,-0.0100182735575044,0.00623963735940397,-0.000271000719042389
0.0036056325053173,-0.0331898033223864,0.00200077633505423,-0.000269899065746245
0.0236973771377758,-0.0313495147641398,-0.00120978774094267,9.91528957323699e-06
0.0370077837557029,-0.0170127441887582,2.397408840373e-05,0.000241248660703184
0.0423525034748012,-0.0218292095864347,0.00293695282435281,0.000228413236995182
0.0361751437661226,-0.0458506616926557,0.00598806663531245,0.000468649135613341
0.0175922436932655,-0.0546463131810382,0.00862838755756261,0.00103604637786874
-0.00254944140211842,-0.0352740735682113,0.00832692199120172,0.00146974956977338
-0.0179918961415959,-0.00944459616970991,0.00861163103051063,0.0015270609507631
-0.0269857649024505,0.00517414490803485,0.012066446514464,0.00126076617364742
-0.0255566006191947,0.00631926705526305,0.0140777038080459,0.000855432464363598
-0.0161025741439828,0.0041838164532514,0.0117816418806494,0.000502893059121503
-0.00872689682072527,0.00922503646117681,0.00716974931770768,0.00041969877228754
-0.01154424041217,0.0174840789064574,0.00461561527266035,0.000532342562891388
-0.0179580972969836,0.0209386851628361,0.00414648801357048,0.000440551399919844
-0.0184236084541345,0.0184021217943703,0.00301879045004543,9.93288520675789e-05
-0.0187687887324104,0.0149865034406487,0.00300473013497777,-0.000225237117778049
-0.0231745569451031,0.0128906580001623,0.00351365860966776,-0.000279727746866912
-0.0262142168231957,0.00889305890867122,0.0013042495618012,1.19326082738261e-05
-0.0271758055333612,0.000494798842613735,-0.00285942451072272,0.000379101008499695
-0.0276582878353198,-0.00902394834662572,-0.00582622198771893,0.000619487596358305
-0.0244050175112669,-0.0119852172772752,-0.00566022060727946,0.000868789281723178
-0.0171817170106251,-0.00802685848915538,-0.00455794092700872,0.000991698184650994
-0.0113937821457262,-0.00314212000520496,-0.00539530092850479,0.000742521061351044
-0.0110845507139687,-0.00270755444884166,-0.00648334575270692,0.000615886013814631
-0.0110760105136479,-0.00710300612356041,-0.00542314952726798,0.00121153204438884
-0.00102012854735156,-0.0138052026018888,-0.00305727159182375,0.00233591069261495
0.0247266078811686,-0.029638514663373,-0.000758683648513387,0.00314083574039631
0.0490660553837087,-0.0538594759551701,-0.00107336808618166,0.0028768819164618
0.0376763411580812,-0.0540511366493837,-0.00273137653863406,0.0017779561577984
-0.00537263165170268,-0.0135466844391442,0.000154878754026238,0.000621574606651025
-0.0391781537066026,0.0279202984047013,0.0058407847933626,-0.000338939589099428
-0.0418518403715332,0.0373833790568261,0.00687496210386098,-0.00124229582670105
-0.0227571806832674,0.0231385445739062,0.00409309126155527,-0.00189515141251044
-0.00801547803953407,-0.00504768721353399,0.0049661892254359,-0.0018346426085169
-0.015578899573873,-0.0333590020793768,0.00951289454248391,-0.000977157184135513
-0.0310888387564793,-0.0381215221378199,0.0128111034586402,0.000201870082605258
-0.0296014534107026,-0.017962948485056,0.0123993386537542,0.000949130270561119
-0.00881416130858839,0.00601696649703204,0.00667078937609396,0.00089733875508239
0.0183195697788848,0.0195372132607124,-0.00222293673958581,0.000461172083730486
0.0415693640956558,0.0221079860867537,-0.00995138955925359,0.000190120887375428
0.0537104524202483,0.0079881186011158,-0.014756984732425,0.000173334341490947
0.0484523122152147,-0.0173117772249132,-0.0185091392792358,0.000613773663026471
0.029970419334372,-0.0235262099202052,-0.0210811259969596,0.00198998709286743
0.0115503999488459,-0.00403122802997925,-0.0168927300244088,0.00361465349479336
-0.00256624834936815,0.0149513110483661,-0.00551982640962265,0.00388116605926337
-0.0141457043790095,0.0175484473977432,0.00574117279292052,0.00213288710330763
-0.0177706249486256,0.0105424712705929,0.0118123282505823,-0.00076747579385211
-0.0115487097348621,0.00648776455528099,0.0142500290237735,-0.0030718673704278
-0.00220524291531096,0.00842542582745181,0.0158689738189812,-0.00381783777828769
0.00588349344845068,0.0108241711419154,0.0146167940755125,-0.00353656921121295
0.0104032263029005,0.0104323033613818,0.0106770389505396,-0.00300326344727228
0.0127443589201383,0.00659059524140573,0.00964363097915978,-0.00239249032578679
0.0190925003272857,-0.00229361321736419,0.008890799080487,-0.00154628477257562
0.0240414160274141,-0.00880206000063836,0.00234009193785883,-0.000411354018012846
0.00755354984390831,-0.00428804960361354,-0.00587976306427396,0.000926445047091778
-0.0300973518324029,0.00324822965187551,-0.00986759555821953,0.00224993963043792
-0.0563658821457628,0.00449223980246931,-0.0106499731563059,0.00299636684704089
-0.0426734017966749,0.000283637229228572,-0.0119080692880878,0.00272747948842438
0.0040945156132184,-0.00435679531143212,-0.0132495799588752,0.00155812026453921
0.0461251514631015,-0.00180118719331723,-0.00993852370939308,7.26829193251743e-05
0.0585668518787267,0.011427394688062,-0.00141368280872781,-0.00116150840333555
0.048994843082776,0.0276315231274904,0.0072005640423261,-0.0021695074565038
0.0353538141346077,0.0386093158926077,0.0127190581073336,-0.00307349819757542
0.0285641814277413,0.0474954342491897,0.0154380761704245,-0.00373122834591444
0.029602843192055,0.0568440610192197,0.0161795003270665,-0.00392926787959185
0.0344809544428297,0.0531697835128031,0.0175954279350244,-0.00353507942622849
0.0286490937228403,0.0285320300914514,0.0218847871452504,-0.00262032905028325
0.00507920730453321,0.00504411201406424,0.0262791507374884,-0.00148272509534824
-0.021792991663422,0.00453389113858184,0.0263392971688353,-0.000582695927317463
-0.0420668310093672,0.0189416383044485,0.0225961126864015,-1.32240025243653e-05
-0.0556328976121939,0.0284234977421328,0.0201146017999168,0.000435253666670097
-0.0516218453708209,0.0201720030289104,0.0190946875454958,0.000727763657210663
-0.0158592481594735,-0.00743772510560615,0.0149478864852306,0.000707053671429771
0.0287439779108539,-0.0402748568106477,0.00549372232632098,0.000444150103436256
0.045466242623698,-0.0588363523139847,-0.00300556096172423,0.00051324101997992
0.0375677982245792,-0.048807949406864,-0.00294493912370402,0.00111261185216304
0.0313299024543095,-0.0151708420725945,0.000913475715879809,0.00125327654763039
0.0360252201485133,0.00740132889335368,0.000714064333539339,0.00015882085364252
0.0359128891530966,-0.00630888873944435,-0.00114991721115717,-0.00155446281348013
0.0152649077054327,-0.0187086101998596,0.00019683603811303,-0.00289141473211685
-0.0215034748102681,0.0114802296558975,0.00294003766141295,-0.00324442525724972
-0.0550774452650029,0.0478215166278158,0.00384654212334987,-0.00244178061963077
-0.066000809174997,0.0518094176403108,0.00189743667423867,-0.0011266414862445
-0.052355372363069,0.0358349905131457,-0.0036092124369735,0.000138908075395406
-0.0279078947578961,0.0213310864515157,-0.0101723494427286,0.00126926050846217
-0.00680915589536175,0.0191526976920095,-0.00892113879877227,0.00179164123299205
0.00262707672166129,0.0237375812596499,0.00144151432933984,0.00125019782766137
0.00276165289658772,0.0198396605488059,0.0115014127925434,-7.66172245917534e-06
0.00428511430041378,0.00488663300103054,0.016542738146232,-0.00110769087854682
0.00921844377058595,-0.0108600496948387,0.0166234961751206,-0.00144863766525247
0.0087419911179531,-0.0210077444093238,0.0145894278392835,-0.00112574070693889
0.00333016662780976,-0.0240337442218014,0.0138100568199371,-0.000528010418791902
0.00133373926955381,-0.0233398540359224,0.0140178726960969,0.00020320827137562
0.00393956291949599,-0.0237610370375058,0.0127041603445105,0.000840125219637198
0.00772786133633532,-0.025587013540464,0.00684289732524334,0.00108159289761146
0.0135415692252435,-0.0276522947373445,-0.0017544199602608,0.00102585541324861
0.0260482869423733,-0.0289739348250578,-0.00789584890302142,0.000939970655187451
0.0438562289367697,-0.0303729727520436,-0.0114571506624687,0.000905742219554716
0.0528654487564776,-0.0329531630158697,-0.0128284945702595,0.000795897988216866
0.0429320258541721,-0.0327703181615131,-0.0127840507424724,0.000528408823495588
0.0251601636017274,-0.0283565532664959,-0.0157545346762094,0.000232135613717154
0.0129676312858277,-0.0222791497265041,-0.0201240826486483,9.86159455659737e-06
0.00840911001467421,-0.0146407738298936,-0.0207938278694787,-5.42309393866986e-06
0.00734401125915126,-0.00723834335448038,-0.0169009459671558,0.000297202211524192
0.00767574732191578,-0.0025540742236666,-0.0105181315260861,0.000755901198330042
0.0100266654849213,0.000446925467230231,-0.00484761987580267,0.00131826358264261
0.00958819649598071,0.00142221410851174,-0.00264851753649106,0.00206775799199312
0.00808800522765443,-0.000601227852145426,-0.00399026400197473,0.00298009572347101
0.0106685637235341,-0.0036878851068119,-0.00677779309415806,0.00385205296283463
0.0127625230546047,-0.006200261025325,-0.0103076574587061,0.00412364416918634
0.0109926180589817,-0.00595523415490486,-0.00921399623138209,0.00319844512526263
0.00710235955098972,-0.00476954201588026,-0.000420189267226653,0.000893704868457093
0.00239384261041979,-0.00596243364064783,0.00706605544749374,-0.00218461671519909
0.000200024045729031,-0.00554908961441982,0.009007374967752,-0.00460769564764458
0.00381077707560339,-0.00286577462125032,0.006084261482493,-0.00507832883115428
0.00844780110176604,-0.00132309092759756,-0.00119673785558162,-0.00358577188492349
0.0116858190571103,-0.000124836862622213,-0.00797880456320514,-0.00129385514583255
0.0161757781665188,-6.67467624546059e-05,-0.0126015780881509,0.000764492424502786
0.0192150925280862,-0.00220000457493359,-0.0149661368192286,0.00218090941983169
0.0157255695957621,-0.00437328607219079,-0.0146921539478721,0.00288014692154164
0.00447088779539078,-0.00408279104645627,-0.0134764823138965,0.003057934359824
-0.00557571606896097,-0.000675818869691713,-0.00984399267700923,0.00283818961795202
-0.00573496384791682,0.00175265924599523,-0.0041842630055054,0.00187360795835522
0.00391599736918873,0.000608612445211262,-0.00148698837220476,0.00037424990200829
0.0177665446214448,-0.000712379654694562,-0.00036769679976692,-0.000588967081747986
0.024211970525394,-0.000823881337962583,0.00287510871966403,-0.000704188109686949
0.0199771027683217,-0.000503752961480289,0.00703727570219707,-0.000607140250736848
0.0106105674729634,0.00255782876263771,0.00979727661734197,-0.000567065829487862
-1.51801135120019e-05,0.00907204011363607,0.00916044413088187,-0.00032769000028027
-0.00690978259000774,0.0149616557695111,0.00543475306412609,0.00011617981432804
-0.00884895829462908,0.0159159517437051,0.00193682067308651,0.000687131492898367
-0.00859389028495157,0.0126188839090949,0.000116093097924365,0.00127589527628488
-0.00690384247326877,0.00984242026231138,-0.00106771641351077,0.00164348646237672
-0.00418547427119172,0.00723970282539476,-0.00217774517322129,0.00176453420448831
-0.0036691007377119,0.00216463473668031,-0.00428279821429053,0.00156326253242633
-0.00587183274502237,-0.00119126798186135,-0.00586792550125941,0.000947653410362454
-0.00703749909289468,-0.000571570469712056,-0.00515864266337389,9.60090882740684e-05
-0.0112145209212949,0.0052114982444633,-0.00281223615095644,-0.000757820738922338
-0.0216053455828891,0.0237575355130917,0.0025030478109124,-0.00138376025308091
-0.0275303398033729,0.0495750465946673,0.012107383245547,-0.00152639934548084
-0.0233338800473591,0.0615036132331027,0.0211376941487161,-0.00131021147867681
-0.0192409889947755,0.0577714204093041,0.023805442872722,-0.00126219105956612
-0.0251974021911282,0.054570165630528,0.0216640339976849,-0.00151889333543342
-0.0398751438014799,0.0559829040706891,0.0184566014797061,-0.00154778604341161
-0.0523304494049532,0.0553203482139382,0.0153888903784322,-0.000956814984387477
-0.0569940503246047,0.0490055919346809,0.0128648825982669,-0.000103693578086175
-0.0591404342411304,0.0421515152132707,0.0114424180304998,0.000723502533199706
-0.0564325861116836,0.040520606667677,0.0103498558947788,0.00140496223987185
-0.0381696290495196,0.0307496931131933,0.00609069053965661,0.00151486715908505
0.000982539966618318,-0.00485492602014696,-0.00373830496085362,0.00117287522684332
0.0417394990458179,-0.0582501538171239,-0.0142076124301338,0.000947067178529643
0.0402292815728491,-0.104020049787271,-0.0223208358842977,0.00106652831824132
-0.00172786846463558,-0.10875214339896,-0.0319042785043199,0.00139572619254503
-0.0251973451947718,-0.0661050963233523,-0.0369925238075512,0.00161755723902902
-0.00821123953737064,-0.0175193362665747,-0.0282904834444952,0.00127813950338756
0.0167119042566233,0.00149164059540054,-0.0118619817868532,0.00019842187286334
0.0201975588421141,-0.00855628975396643,0.00223464778519351,-0.00108321769269542
0.00306662702387439,-0.0202711042178325,0.0113048553523612,-0.00207274638988974
-0.0144726812512472,-0.00760787443860805,0.0163212692906454,-0.00272666451740051
-0.0183724304156248,0.0223844931089308,0.017592965930596,-0.00302137150001569
-0.00598804278778511,0.0447234126251991,0.0150414713926692,-0.00295994172470913
0.0155498132807633,0.0457521141795974,0.00995364055441194,-0.00262725904781717
0.0342036475134491,0.0279063698481108,0.00315300658342849,-0.00200903020646566
0.0431958895501966,0.00635165525545575,-0.00260418909433514,-0.000914376501745562
0.0364817936389241,-0.000566891205407677,-0.00473425155243269,0.000639808166237017
0.0157765085509002,0.0147715360792698,-0.00546178950004938,0.00203905922719011
-0.004165842033617,0.0401041687141217,-0.00751389751528925,0.00264300187120604
-0.0139980609120413,0.049416550949594,-0.00822853471702006,0.00235493896406684
-0.0159437667079705,0.0330525404435138,-0.00465506133332071,0.0014491265818451
-0.0157968543506524,0.00713376843633563,-0.000171831371466567,0.000327225083159847
-0.0175630838334604,-0.0129351763415689,0.00270286328801227,-0.000737822566400144
-0.0217403954223912,-0.0258133325971674,0.00354838989601956,-0.00163347812551684
-0.0234260175873766,-0.0357315588649881,0.00132775790869579,-0.00225969484914614
-0.0162586365111763,-0.0456466716620102,-0.00321329852413019,-0.00251770430111333
-0.0021746996859892,-0.0545612677194164,-0.00925137978098197,-0.00241185456791961
0.0123195398791387,-0.0577112051468199,-0.0163877278901241,-0.00195083469569449
0.0190643253138277,-0.0544021343818501,-0.0215597397001951,-0.000881944272111362
0.0188785973650141,-0.0511719522163791,-0.0230132599657576,0.000515450141996474
0.0255204364755949,-0.0538392791057215,-0.0271625011880778,0.00106473538161981
0.0393691640545427,-0.0531761664755324,-0.0337528265693933,0.000610702289362094
0.0463305015201456,-0.0342174372061488,-0.0326344014523142,0.000173341699673346
0.0439937055902216,-0.00829615119085419,-0.0246890840300736,-0.000192978803123206
0.0412483805311851,0.00481763559816331,-0.0183577870544697,-0.00105108001929654
0.0405899975788611,0.0100875874191225,-0.0153001693836623,-0.00207983168694806
0.0384017602762958,0.0140722676409356,-0.0125259374441625,-0.00241793985523811
0.0315447175563801,0.012050737559256,-0.00942985732456428,-0.0017322037590623
0.0189637978900651,0.00444966326425108,-0.00616233701809011,-0.000423185801892934
0.00463458266963563,-0.00350741565025149,-0.00226715849143209,0.000995057469342519
-0.00497405961439331,-0.00905141340462981,0.000956561518766094,0.00188523161882098
-0.00804331517955717,-0.0112333823461431,0.00340301903204835,0.00166941685387446
-0.00707939210452775,-0.00910630198146738,0.00429974152060566,0.000479579132369519
-0.00538691112431815,-0.00544427317203388,0.00374421409277827,-0.000990662862639724
-0.00290663083371586,-0.00325656505042224,0.0041511747517976,-0.00186021140398367
0.00619987448876502,-0.0010811495174227,0.00445277199315553,-0.00174486419611704
0.0218243484980811,-0.00110021941828755,0.00269501820970589,-0.00111868851562468
0.0297929272091417,-0.00704201233920447,-0.000837713840069618,-0.000565457799490988
0.0220491262743624,-0.0108585779540125,-0.0047544921381159,-0.000353639786212924
0.0089213335621211,-0.00543909998278323,-0.00652088105394317,-0.00050928586014112
-5.90260653531641e-05,0.000100409170154518,-0.00473543954698563,-0.000844171788968813
-0.00547569781543267,0.000462917912300078,-0.00209229720908247,-0.00131669913296501
-0.0102355137931202,0.00153162176668952,-0.000645578673461968,-0.00184674265353207
-0.0134584619653281,0.00414226691827013,-0.000381993469219155,-0.00210295733161238
-0.0132949712797233,0.00510162560303281,-0.000338669905226801,-0.00181828166814043
-0.0106849093526054,0.00532381375785117,0.000237264737530559,-0.000980355139667928
-0.00604956091915264,0.00780596383003633,-0.00130586990938781,0.00025920174984608
-0.00219093907924119,0.0123921104480467,-0.00381129617214043,0.00189451158435167
-0.00109557552780791,0.0180862043741583,-0.00403207230739542,0.00362510725524271
-0.00136828556693853,0.0223152118670354,-0.00271202189719831,0.00453002931938255
-0.00444084674527031,0.0212163022035928,0.000773985711750937,0.0040626311246985
-0.00973610107445209,0.0168039928758337,0.00688897412935245,0.00262520917129687
-0.0146948427121916,0.0127005200035512,0.0120481776627817,0.000844744942509638
-0.0160254633568793,0.00815133883677221,0.0125567682542695,-0.000988205639889765
-0.0122573828601985,0.00488093615743376,0.00940219787232888,-0.0025239726019924
-0.00811008837156072,0.00610158655390619,0.00682775286687942,-0.00327533130616005
-0.00622955820909976,0.00775578008890927,0.00604141531336981,-0.00327237071010329
-0.00688170221742096,0.00540416990799631,0.00508474441229554,-0.00266207773808619
-0.0079473438167996,0.00215152995006112,0.00452557780176257,-0.00157748362684778
-0.00215488952392357,0.00125375550297885,0.00444439299810203,-0.000600748412052823
0.0124842841943723,-0.00100051252179702,0.000923862062923612,-0.000131353258409684
0.0250675014009454,-0.00373473114473047,-0.00513692785534077,-8.09822529778521e-06
0.0264263471660224,-4.25708787938166e-05,-0.00763623270343698,0.000137941593972141
0.0202254396996093,0.00752215449657802,-0.00606544101850531,0.000531836881981924
0.0132629494267046,0.011180220234973,-0.00289933961044874,0.000994687482636583
0.00902979676959514,0.00949404295424104,0.00156465370012637,0.00131113099244715
0.00625533078866956,0.00537043923011444,0.005124552142265,0.00177640761231059
0.00521498757123991,0.00332924532002765,0.00655718313373939,0.00248632102561798
0.00650820205094059,0.00741808973280036,0.00839152424806025,0.00286761254100168
0.00538953474066577,0.0160585960576217,0.0122347013150897,0.00263432668637354
0.00200734085911126,0.0237945284010139,0.0162859334936885,0.00207197848405789
-0.000985910887611262,0.0260470969149911,0.0170897480202828,0.00146818700725694
-0.00562531475958544,0.0227726255581302,0.0160845278131254,0.000971522710930287
-0.0120161625110654,0.0167507165460247,0.0161222957658851,0.00061283087246698
-0.0152818227082227,0.010067161165848,0.0138361537524196,0.000430539233112857
-0.0105934688386924,0.00355570619156453,0.00735408674538026,0.000551917138524
3.30248766077096e-05,-0.00256421270548565,0.00272517478218294,0.000750893248243557
0.00666097196044015,-0.00675286018968989,0.00448075717625233,0.000493361039337191
0.00287349582326101,-0.00939390184189297,0.00719464452250458,-0.00019991018843691
-0.00581517544954611,-0.0101623479191163,0.00558864880869032,-0.000843370169451816
-0.00848011486566204,-0.00671384334095524,0.000847728214364716,-0.00111412136578662
-0.00288980196235369,-0.00352324120581152,-0.00518253418511382,-0.000907868853691944
0.00236770926225813,-0.00623222177722809,-0.0101366393808118,-0.000371542062661915
0.00188317286921742,-0.00933136499651197,-0.0138538207328488,0.000236162573194236
-0.000570794326062421,-0.00477456131804419,-0.0184997055779008,0.00098680333131359
0.000652235924050624,0.00469227208186326,-0.019935060305692,0.0021299536101594
0.00384474243428158,0.010458733243884,-0.0135909542378597,0.00317213047924957
0.00519112711811432,0.00822356594169029,-0.00324113830971359,0.00350958396971298
0.00770456424402412,0.00215677578170782,0.00467457374479563,0.00325579730957746
0.0172752832736098,-0.00219802905760244,0.00604179570147983,0.00270596064660475
0.0315409382320079,-0.00491101704734089,0.0019749081211149,0.00216568905587811
0.0393740235242278,-0.00591497511229742,-0.00300418939076731,0.00169082764319765
0.0388532432462553,-0.00599852857085601,-0.00522938115645278,0.00115192405280934
0.0352380513137876,-0.00683076154256204,-0.00274581176147097,0.000554860490785295
0.0265093427000834,-0.00695484932682644,0.000361290198407783,9.62484969218654e-05
0.0143095681084265,-0.00596526186437732,0.000231586365578403,-1.00958366746045e-07
0.00616354446639572,-0.00556922665662832,-0.000268991243038145,0.000253209968287695
0.00322241667620353,-0.00606517565098661,-0.00029061891024397,0.000505910533379276
0.00197918482461091,-0.00554404273034037,-0.000563594618678834,0.000253754967358473
-0.00194620572131064,-0.00260485518387163,0.000792439029351426,-0.000537227745811669
-0.0117136664572306,-0.000382640881240256,0.00101170947737749,-0.00153113850038689
-0.0262092355134883,-0.00252020509740698,-0.00271339200204828,-0.00243370788641081
-0.0353599779010202,-0.00475297000000492,-0.00689234270361169,-0.00273689518313159
-0.0274382574310678,-0.00211783230455157,-0.0113183164902769,-0.0019404008506864
-0.0099318701205543,0.00195252480173456,-0.0174073045360376,-0.000329458207762409
0.00295746407383584,0.00303852178632669,-0.0208136149543106,0.00119047544997761
0.0103392429632239,0.00302019643877876,-0.0171726178675977,0.00190769696865397
0.0135542050542073,0.00414663713667016,-0.00996360910162863,0.00184183594321829
0.00960224791228989,0.00536980719080627,-0.00632419436539264,0.00158168140615318
0.00123840703841786,0.00708858945900613,-0.00524106679644498,0.0015166636302846
-0.00490700043070281,0.012019526230099,-0.00127830386832266,0.00146482385439051
-0.0104390061740554,0.0195028437472184,0.00415292296024538,0.00104628741763674
-0.0199117442151054,0.0261234263824945,0.007123053607224,0.000277136383994198
-0.0303381032892114,0.03298962556787,0.00677391922757852,-0.000462929698164942
-0.0383640876614463,0.0388281643791073,0.00581668776082576,-0.000998376483766978
-0.0431173846157212,0.0355185073231559,0.00617428983088399,-0.00157651982664817
-0.0448590594970832,0.021920067250747,0.00679968632889155,-0.0022185296929056
-0.056030256925557,0.00180755903476124,0.00825545600942571,-0.00271345722115992
-0.0706087516953403,-0.0130897248803115,0.00989378113320236,-0.00316595551613176
-0.0670508867745469,-0.00247819982436093,0.0100137069345358,-0.00370525106570519
-0.0488254986026204,0.020164652622786,0.00713160766454034,-0.00414735814534001
-0.0237865079971752,0.020610670683944,0.00118052118377995,-0.00384179848643643
0.00139866838255234,0.000473536245602525,-0.00519788762865167,-0.00229756779467162
0.0140051784862872,-0.0108272584129115,-0.0128160244257441,-9.18322890284332e-05
0.0131494615255628,0.0117894412759148,-0.0194873372190302,0.00189672174289522
0.0168041278234644,0.0547126333524023,-0.0183150848761141,0.00335773612587045
0.0291668825778884,0.0719180320222362,-0.0078399929463599,0.00386336512361517
0.0325216356775777,0.0504667305357494,0.00825555629170071,0.00315597855978051
0.0311024681688893,0.0107061580976228,0.0216729043137522,0.0018743264152045
0.0382474124577497,-0.041051215148405,0.0267101048102272,0.000534746493090666
0.0356614636958812,-0.0800473959578504,0.0262945609694678,-0.000664000687944874
0.00507001785909326,-0.056246181915565,0.0242694739106658,-0.00123115765271254
-0.0353161137294802,0.0103889981402092,0.0228808397778887,-0.00113382041883504
-0.0634166594993541,0.0552547968127716,0.0250872405358698,-0.000979535840679497
-0.0726265848494938,0.0664218444855518,0.028855797474121,-0.00113184078571974
-0.0662604135931039,0.0631189018199244,0.0272322223105048,-0.00154086988625334
-0.0561797059543963,0.053770533196995,0.0190562188068107,-0.00194527294103306
-0.0464936821032745,0.0385864779161704,0.0111571667774473,-0.00194383513067358
-0.0338440797980944,0.0212741735680338,0.00752385447717664,-0.00124196560380238
-0.0142028039722155,0.00508398597663567,0.00257995351781492,-0.000200754083429588
0.0172748342210437,-0.0148181336792845,-0.00731866771774961,0.000312078711425424
0.0519294858226945,-0.0473930975748502,-0.0189507840169607,0.000253139814207766
0.0676984664404302,-0.0815182414210092,-0.0302412934882451,0.000506027321698371
0.059869024925826,-0.0889718122155873,-0.0373753839132584,0.00152877935042671
0.0437957993844655,-0.0667355628953401,-0.0339919697750403,0.00305507650010771
0.0293975082915112,-0.0329975728493875,-0.0205842329582187,0.00442150173076792
0.0216104864613283,-0.00299749902376557,-0.00327714374400477,0.00469876097292068
0.0208941833604607,0.0128137298170803,0.0116369882821696,0.00335670990628702
0.0202839603143746,0.0136548181041326,0.0198735039498623,0.000676738169025527
0.0167820879991622,0.0104923914972334,0.0205140727462387,-0.00224821252764611
0.0121701617064406,0.0125777363856587,0.0150676910772684,-0.00389985830136954
0.00678754831427471,0.0164821956658116,0.00757106352407322,-0.00333336977037445
0.00254927364620727,0.0159812312689241,0.00125416118968525,-0.00102171279514703
0.00197578347639134,0.00961203125596177,-0.0018440764600245,0.00138052114444219
0.0027823783106248,0.000179124927286632,-0.00133463626826403,0.00246727518142116
0.00749772248595369,-0.00743688198266752,-0.00172053181463515,0.00194589199402478
0.0193272063824083,-0.0141552793348504,-0.0065459999016988,0.000568023552695798
0.0355412816774188,-0.0238503539956537,-0.0122099912078515,-0.000449244797008868
0.0490542557768082,-0.0367350972413773,-0.0148594964494915,-0.000426715932735052
0.0466755514089776,-0.0479196752632948,-0.0166114433663521,0.00036005819125025
0.0289595988542803,-0.0502194972596677,-0.0191562150399172,0.0012454528546262
0.0115996554987028,-0.044233625277964,-0.0198938671608313,0.00165610079725626
0.00233496003424252,-0.0364535049337644,-0.0193090128570646,0.00127371990376589
0.00225989558386952,-0.0290486857277103,-0.021294730173377,0.000330878844225117
0.00676952423098106,-0.0171360548578021,-0.0219290692319936,-0.000512897138061393
0.00587346749404403,-0.000538085027622183,-0.0166107388573816,-0.000958244775093358
-0.000760364911889957,0.0088770576622868,-0.0113442556328643,-0.00132990342455191
-0.00570491754379864,0.00750239498632311,-0.00898257796964714,-0.0017762367498217
-0.00324094891698514,0.00271902752040254,-0.00683786012456103,-0.00207830612542296
0.00621450555483929,-0.00266808094523217,-0.00646323296813503,-0.00207598402162299
0.0164902045852065,-0.00769534629179767,-0.00722247750865401,-0.0017775790738769
0.0185103248401449,-0.012312726506568,-0.00513638283117891,-0.00126838432175268
0.00614510870369315,-0.0151987233276076,-0.000900601962543811,-0.000840220323053381
-0.0111697048435333,-0.0134211169185545,0.00177874090226745,-0.000803080573829296
-0.0208251178211253,-0.00985165793625586,0.00362776584577557,-0.000965433984773984
-0.0250157107265885,-0.0040884768370651,0.00654178461507278,-0.00115431075133326
-0.0282456434268473,0.00602777826948385,0.0077704356733604,-0.00146584889937267
-0.0302465758071126,0.0171667686224201,0.00694047205737139,-0.00165452761504971
-0.0305261726360813,0.0317640033625007,0.00678671337620371,-0.0013926882046816
-0.0277406952133532,0.0469565703191456,0.00549043709863931,-0.00103716971931175
-0.0245922868810447,0.0495956438671906,0.00207297780043687,-0.00115233860320698
-0.0256217448480245,0.0419867943879031,-0.00153756096628609,-0.00152594967100818
-0.0259959456306043,0.0323604324809838,-0.00334834741292397,-0.0017706049063629
-0.0189832779868466,0.0197235495252559,-0.00153184012755823,-0.00200872202718741
-0.00478167779080659,0.00302913498490982,0.00346676065759408,-0.00237953458612292
0.0105940040502107,-0.0171424397755713,0.00992632112859953,-0.00275991378430299
0.0176787549527455,-0.0307542784397094,0.0133903573730156,-0.00271422870005761
0.0131684397120351,-0.0313291536573897,0.0121058530869792,-0.00183961552678693
0.000615650511380716,-0.0281377551139702,0.00981216157415764,-0.000349674324349126
-0.00999640253325941,-0.0294582500743235,0.00888116715913113,0.00116216093167735
-0.0107847879882785,-0.0380549938701979,0.00661679768916222,0.00229908752453221
-0.00567882926376777,-0.0373723311416017,-0.00050975406258932,0.00297060800748648
-0.00159602150899748,-0.00587597052931165,-0.00768859638107885,0.003171300066895
-0.00447637900307201,0.0380465518005043,-0.0062857218882614,0.00277671820306951
-0.0164311796005397,0.0585349172781673,0.00339268008434182,0.00159013697511023
-0.0296875526286921,0.051808193464216,0.0125762046097863,-0.000205616620309605
-0.0335246561164768,0.0381274212089903,0.0154125205550418,-0.00187286270903387
-0.027816237037527,0.0299768406635507,0.015560277507599,-0.00286327127802484
-0.0232258662838744,0.0252266176348828,0.016174431552134,-0.00348447751662315
-0.025836873708885,0.0190602274352844,0.0140906645694708,-0.00415346516353117
-0.0296061378533011,0.0116349442978425,0.010183484465673,-0.00435501263531255
-0.028906808084525,0.00464386852409566,0.0074072252112076,-0.00355434216290838
-0.0241565404444206,-0.000508149959766259,0.00523943252219646,-0.00219398799054024
-0.0215457611845034,-0.00573588935610854,0.003181756949985,-0.000988700115472703
-0.0226467720085612,-0.0138130041998438,0.00140623050589388,-0.000214646577313153
-0.0171777956694947,-0.0222067290865046,0.000308399966756196,0.00029037315809199
-0.00741251472403093,-0.0258458545226729,-0.000704786628160297,0.000857995964865371
-0.00418708326278301,-0.0227582802752637,-0.00233500507750436,0.00186600434357544
-0.0051377705157956,-0.0150278723503524,-0.00262936123544317,0.00335411297721773
-0.0013176413963514,-0.00655017814129653,-0.00155943081680482,0.00460516006467855
0.00730497588172899,0.00164249150184526,-0.000761105644252864,0.00491031901983588
0.0147378218157021,0.00975039984431566,-2.5653664337752e-06,0.00422326331311391
0.0271190096753103,0.0168638177448139,-0.000842145814403962,0.00285649502331818
0.0444841647201254,0.0244615329187547,-0.00451278015929894,0.00146961923232329
0.0587591513244611,0.0258863290467951,-0.00804346372472067,0.000713462202095051
0.0656053762971724,0.00736651148752487,-0.00962051878705822,0.000729318675707572
0.0564472364626819,-0.0271129269972019,-0.0112073458918715,0.00112089085343317
0.0320236525859409,-0.0513666168443806,-0.0130180866611409,0.00113153933712364
0.00394387380397443,-0.0459645331828191,-0.0108636242632196,0.000545082190805213
-0.0152830303590564,-0.0233167087760055,-0.00509922705375326,-0.000336558338510528
-0.0223175407419719,-0.00701762447830758,-0.0027473471833455,-0.00141670525344636
-0.0236775051323865,-0.00147961885384925,-0.0034949146257772,-0.00220916408155065
-0.0228614821162872,-0.000748208644008107,-0.00385797835348517,-0.00220430625877778
-0.0214169332499706,0.000284911721242032,-0.0053401489653833,-0.00162478784374953
-0.0251009104798968,0.0049973733409163,-0.00704093192551012,-0.00100452715499854
-0.0315100712843986,0.0116909711172504,-0.0068812780847224,-0.000595539627553981
-0.0233792502374799,0.015592606333072,-0.00563487094512713,-5.43961024898907e-05
-0.00116724354018828,0.0154852284263798,-0.0039353666831124,0.000792867004803953
0.0154922109381808,0.0152942855193992,-0.00262217066866927,0.00158943261476451
0.0273387097749025,0.0164346060905102,-0.00215315324619065,0.00206064413881506
0.0399351653612397,0.016121087748102,-0.000809441309489836,0.00239557044133641
0.0469522520071559,0.0117689110369179,0.00156714082328563,0.00266972117768184
0.0525862600134096,-0.00343807200558894,0.00302085357559558,0.00263128010713698
0.057532318648247,-0.0306572441724678,0.00123282181054129,0.00241433544787198
0.0484184093961387,-0.0455140410937709,-0.00209975193207996,0.00210393619326154
0.0262523805622776,-0.0312458911127387,-0.0025863822051396,0.00146605381526521
0.007887255297833,-0.00904734856497748,-0.00122481514365898,0.000719015925526901
0.00140537000070037,0.000543089395405733,-0.00191918011116163,0.000341225192787699
0.000494267636301725,0.00163167236351649,-0.00361573099578525,0.00033000769507051
-0.00126386776858704,0.00244774528997822,-0.00172361027644178,0.000383629175624703
-0.00134599364827307,0.0022247270393264,0.00134097518402301,0.000153626981527878
0.000906357354456919,-0.0044240562612475,0.00168683472975769,-0.000518269124908827
0.000595006004959629,-0.0147780018543357,0.000909453597951911,-0.0011747203603557
-0.00381291297677513,-0.0142870029052566,0.00115321439644166,-0.00137698515918778
-0.0116683823832065,0.00144894034698159,0.00263531027195494,-0.00127274581432848
-0.0184420509168747,0.0147165509714408,0.00408329010336053,-0.00116099152163899
-0.0178304502134961,0.0120940065499246,0.0059367792142053,-0.00103972941058107
-0.0100325534599358,0.00135280841162945,0.00857194327818163,-0.000958818078215837
-0.00139222936153681,-0.00556828196433418,0.00926689814141412,-0.00116616046738154
0.000554978655901449,-0.00532972918166662,0.00567960807514998,-0.0012029424709765
-0.00618706737793901,-0.00282302828827084,0.00270044982861645,-0.000240430503879284
-0.0159855627393887,-0.0034614573009702,0.00368636181756163,0.00156155106867633
-0.0213496890550454,-0.00519144798135947,0.00288288585717878,0.0030941921836374
-0.0224668947552118,-0.0068820951705834,-0.00110500710721389,0.0034203307475985
-0.0190126506295024,-0.0142870274977357,-0.00288486248022564,0.00242430879606967
-0.00732919138448814,-0.0291545646610685,-0.00141058374685608,0.000672280481253624
0.00399791806458151,-0.0422959121789115,0.000852767519741421,-0.000985622716992098
0.00512103365348138,-0.0427478851682413,0.00425276412240359,-0.00187598744215176
0.000683426100887956,-0.029626375266285,0.0080281940228655,-0.00199993569883171
-0.00290450250713134,-0.014992876140501,0.00861110719043061,-0.00193161932172832
-0.00602567949054191,-0.00877872349543404,0.00691770401974931,-0.00189260996780702
-0.00805585115543881,-0.00709742790737038,0.00611936041917799,-0.00172453433983645
-0.00783837436726512,-0.00528081936432514,0.00746468722569756,-0.00142149873294323
-0.00950816653032401,-0.00296180693305103,0.0084706835981055,-0.00103696982790322
-0.0150814050965982,0.000273038349064642,0.00681829744071862,-0.000674773831902356
-0.0191499012399554,0.00342469104491645,0.00388787183596616,-0.000409925581223938
-0.0177987803604012,0.0077892279028312,0.000626746908749086,-4.7098848415879e-05
-0.0167108301941628,0.0131359104304253,-0.000948898458529409,0.000494411844144224
-0.0234107781267535,0.0184286850354943,-0.000693865330576197,0.000829510736426893
-0.029861156446998,0.0237794270961851,-0.000433435718165957,0.000816978244763736
-0.0241412452374318,0.0231247919590434,0.000366393904341341,0.00074632143385464
-0.0126405289300993,0.0178847922955665,0.00247769711404614,0.000747014774926316
-0.00372055877204599,0.016685691021952,0.00364469610712512,0.000857108946213191
0.00355294786186626,0.00820306794020786,0.00258228192768604,0.000963173372305666
0.00846765433751968,-0.0292302659589686,0.000598478234112309,0.000654217074328886
0.00960094303443756,-0.0729412800930175,-0.00222741390427283,-6.03234414336537e-05
0.00547820387067625,-0.0706358184729245,-0.0045294505445346,-0.000627753783579055
-0.00505348328652054,-0.0272422991853496,-0.00361801812773424,-0.000814100260874344
-0.0190548024899753,0.00843758707062107,-0.000277075051119213,-0.000930868433715423
-0.0300938545914483,0.019628767569408,0.00259513332575721,-0.00120170944942808
-0.0317136954212308,0.021182552117691,0.00441142197779359,-0.00148230014406404
-0.0244209375775123,0.0222113044719163,0.00482660420100318,-0.00149622848800542
-0.0154916194862807,0.0209038861996496,0.00250668705127829,-0.00115328217227012
-0.00989586259007657,0.0181305759595485,-0.00163381286729764,-0.000815849716827492
-0.00540860751221321,0.0172989333008651,-0.00362310597346171,-0.000679979388817655
0.00336294348588842,0.0171471439729423,-0.00247365734401406,-0.000423118922093712
0.0178905210678747,0.0108271989377863,-0.00284090130069432,0.000124889444654314
0.0276840319977572,-0.00880496856119099,-0.00501432620412658,0.00102405778151682
0.021118685937615,-0.0308245300645162,-0.0060791141369786,0.0024256482108159
0.0052295080689801,-0.030748009122216,-0.00487488475506357,0.00398151608364707
-0.00721368305822849,-0.00742408723152053,-0.000645257485873317,0.00489701875520924
-0.0123957584974479,0.017517877449972,0.00369609649426941,0.00451471145725063
-0.0137813065058782,0.0292179914958797,0.00593663597451494,0.00286962162301161
-0.0163298088912577,0.0299878663076579,0.00592927500930674,0.000975359172721671
-0.0191321760535725,0.0264654887206239,0.00411114764144201,-0.000343866764020526
-0.0214230624580366,0.0195907362128169,0.0013917253345754,-0.0011499469842724
-0.0211527675599929,0.00944537612103557,-0.00049260755488082,-0.00158007379059386
-0.0130214347941785,-0.0007364536329374,-2.15812402781339e-05,-0.00154397427764661
-0.000728248157898853,-0.00692483368832755,-0.000686391038813284,-0.0011195770811403
0.00629664932304743,-0.00764045543488777,-0.00368840349969912,-0.000654867879249209
0.00300439399683923,-0.00468936100730515,-0.00511154608035542,-0.000413800887855826
-0.00836722763980535,-0.00156084734856085,-0.00477187105721283,-0.000484733227425148
-0.0169974521030158,0.00223079436935432,-0.00213441286711231,-0.000698444835962927
-0.0152326446647525,0.00629833796018463,0.00607078117624283,-0.000853444203096279
-0.00784972829172242,0.00598325464396382,0.0154622311524318,-0.00106892580910685
-0.00156738909546533,-0.000397188435688271,0.0182300134748014,-0.00112661830017244
0.00444159765068748,-0.00873926061873267,0.0150914072141682,-0.00063095651971158
0.0129985005431871,-0.0129744376489485,0.0112305551574957,3.83662702000292e-05
0.0169360696806909,-0.0116347087786704,0.00825452419746576,0.000447918405138364
0.00805346487363583,-0.0103709902685161,0.00555196610445952,0.000607048665667993
-0.00530813121220194,-0.0121483268761451,0.00420288351680734,0.000383013049710298
-0.0104042193296951,-0.012937572148734,0.00574582361725425,-6.80092520601041e-05
-0.008178584555681,-0.0138651632067789,0.00928304331722041,-0.000426253436490325
-0.00585787972602579,-0.0183072779095432,0.0104971190600777,-0.00104450946706529
-0.00413935522612373,-0.0238932689279663,0.00369308710448574,-0.00192229063724423
-0.00249968441337705,-0.0270130391203989,-0.00716021072217344,-0.00213434129107086
-0.000345666417117646,-0.0248285193425856,-0.0138251552778783,-0.00128930505398224
0.00501263629698961,-0.0191238564283314,-0.016869836411683,-4.05490723746358e-05
0.00752150135919686,-0.013494480002377,-0.0160176254945305,0.0006414952316709
0.00111221609319165,-0.00619889849254984,-0.0085625963501228,0.000364967869895092
-0.00644599648058965,0.000336886357781719,0.000806691919588565,-0.000382481109628687
-0.0073532772443557,-5.68663062802399e-05,0.00612536026502253,-0.000936325069666214
-0.00544026915631028,-0.00207628293572905,0.00741040820935553,-0.00121111770290398
-0.0107850352818647,0.00222020528863915,0.00719337873265437,-0.00159221023054925
-0.0279762065233433,0.007176116136101,0.00790221232642875,-0.00248702061704529
-0.0532762999520641,0.00485313508813263,0.00991717618581285,-0.0038315744037327
-0.0799154280537067,-0.000724513781002327,0.0096621198248697,-0.0046593343622687
-0.0950890410319408,-0.00211810251008993,0.00387804769061305,-0.00399205187028267
-0.0892389160524382,-0.00110889413820168,-0.00233971912387064,-0.00158467875531436
-0.0688860004221052,-0.00334121550341357,-0.000837490074517852,0.00158898226838205
-0.0471564869334916,-0.00765378380021654,0.00711773273158596,0.00367150208734604
-0.0273698068455159,-0.00737368854836357,0.0133262887351384,0.00389882422978704
-0.00455786994492252,-0.000662415287646945,0.0132581103353667,0.00272439975650368
0.0228427012785629,0.00966211329318659,0.00685284293236252,0.00105285622505771
0.0497727627977609,0.020991913480316,-0.00303351443257469,2.47152332276011e-05
0.0716083498477685,0.0315931854671304,-0.0107198510003437,-7.80723172502497e-05
0.0863776624866047,0.0369826744558502,-0.0143618446557843,0.000169272033795453
0.0836905244718928,0.0261658458280832,-0.0153908426512428,0.000397167174706477
0.0547237185863413,0.00518763626131109,-0.0128847951203836,0.00035201923219271
0.0107754515796019,-0.00426880781871081,-0.007049238693288,-0.000361843523107818
-0.0280302844691028,0.000670544932904808,-0.00292343483211586,-0.00183933632538759
-0.0458855224317912,0.00480671734012235,-0.00182208720596304,-0.00339308735235105
-0.0400768362493686,-0.00401304032091722,-0.00177259468273355,-0.00400324008233172
-0.029899980244551,-0.0238178942774782,-0.00546373139064696,-0.00312083086254158
-0.0309000595395736,-0.0298756851032005,-0.0105772335959759,-0.000943124694803601
-0.0370568457786144,-0.00351837679146457,-0.0106702093264274,0.00151503470431678
-0.0406057627023735,0.0323916968793276,-0.00665873667877593,0.00319675045246266
-0.0384561091958859,0.0506202135381575,-0.00197895032679505,0.00378510773618573
-0.0283856458145259,0.0505537400046031,0.000679938830580909,0.00355291895911122
-0.0111086380691607,0.0454007108033674,-0.000458717876899322,0.00312927989227545
0.00742529855502629,0.0451504267140924,-0.00107927391787854,0.00303177055939553
0.0233795181088437,0.0400548732818353,0.00135367766730048,0.00288589515587992
0.0386257175656716,0.0140371628922615,0.00196817220387151,0.00197024586563831
0.044921408517135,-0.0168340193953649,0.000319587182943736,0.000804505665734551
0.0363843413051931,-0.0157166581652418,0.000755299597283429,0.000382270803028867
0.0272942927021554,0.0126369078171783,0.00274518189012769,0.000434639237096641
0.0292349902331751,0.0300128170558613,0.00396018269556048,0.000310018928903916
0.0405223201796573,0.021224075330791,0.00332708696327929,6.14400937171728e-05
0.0546311682757602,-0.00487859405885495,0.00125212849736403,-0.000194365534656791
0.0590660731433901,-0.0343206355882812,-0.000198399051544659,-0.000463228813191023
0.0483404002248578,-0.0484385307009654,-0.00060327351056233,-0.000517471342875584
0.0342066877965384,-0.0347642178000015,-0.00041438764262489,-0.000232362858274669
0.0257844888444088,-0.00425569151661948,-0.000289340439316287,0.000209842565984499
0.0221055015925704,0.0198837396410554,-0.00220470161629618,0.000422913063907153
0.0223560212028477,0.0275348121834584,-0.00530738305837302,5.33110209585365e-05
0.0235294899382253,0.0231949595165567,-0.00586000099000711,-0.000496288150914712
0.0204026880702157,0.0142878174660323,-0.00265871310932387,-0.00047419229081624
0.0134461809589759,0.00622450697784087,0.00272697445500359,5.24823496869315e-05
0.0079460020710147,-0.0021880609456479,0.00702725361285769,0.000628222307083578
0.00813072768727149,-0.0111691400871094,0.00854868777747301,0.000993418668793106
0.0133158867719183,-0.0177299640055872,0.00943644550418196,0.00100244430599786
0.0178791150468276,-0.0186333928885257,0.0114878225535502,0.000761505759559887
0.020905089638018,-0.0133029811055117,0.012492986276906,0.000348548563955675
0.0271188229812205,-0.0106586851636273,0.00906493802011761,-0.00029217204539847
0.0343550449696965,-0.0116202597403551,0.00255318449428701,-0.000878235842026826
0.0358854934729105,-0.00647165108163012,-0.00130251979205176,-0.000827162847681484
0.0313667023953181,0.00383274246253336,0.00164369765288587,-0.000121488969797687
0.0237658618170351,0.00753021818440896,0.00839185151034101,0.000372946292365133
0.0133536562695893,0.000569176583619429,0.0139285508445018,1.50746209330461e-05
0.000689876271591184,-0.0083620302420095,0.0176584580692504,-0.000921274269730557
-0.0118488123589828,-0.0092383154933705,0.0183127499713089,-0.00172935929971999
-0.0207365253416524,-0.00366646529968611,0.014568641807719,-0.00187826774680555
-0.0225025018581417,-0.00431272281442052,0.0078454525799231,-0.0011741256204153
-0.0161945408251251,-0.0150440234803673,0.00125511335595246,0.000224924842982448
-0.00383384063808573,-0.0284638828090171,-0.00133653355383351,0.00173834963627307
0.0080716961258531,-0.0380267760667949,-0.00116152775549344,0.00269425980559576
0.00600592021057527,-0.0358045419180242,0.000428437304013495,0.00302423892891851
-0.0138714613762635,-0.0201400049182699,0.00707349584656624,0.0029541776881643
-0.0323621467922503,-0.00887690531605843,0.016615145941816,0.00218103549576586
-0.0349120578593786,-0.0115283687230391,0.0211966728979424,0.000731829455572435
-0.0256560252624305,-0.0125294482520473,0.019767368646535,-0.000550951391211682
-0.0130754091291209,-0.00406125018842847,0.0187395500945228,-0.00109942656514461
-0.00341366651391048,0.00472845272512067,0.0186687097454004,-0.00116064663240598
-0.00122203023758681,0.00645239872143736,0.0154796176766903,-0.00125071627690326
-0.00653816051341187,0.00520536264527818,0.0113372096784149,-0.00135184196675595
-0.00947041185453368,0.0101210979457246,0.00643084839062688,-0.00131587928506158
0.000384220714686832,0.0206736042203236,-0.00309429603634381,-0.00117938199360887
0.0203245802859276,0.0301250024085376,-0.0147137030500083,-0.000668428881556509
0.042168154354856,0.030014469583787,-0.0250974653167812,0.000309150801144779
0.0596961686324918,0.00611642823486153,-0.0306148869421191,0.00153341489376195
0.0599544919936138,-0.0308850778943001,-0.026773036015903,0.0028473413633421
0.038409682679637,-0.0403953126904049,-0.0185295320802969,0.0037656052897603
0.00935930281432445,-0.0205579044193157,-0.0113424013858,0.00372029701878193
-0.0145912292917558,-0.00756707407967721,-0.0054592012788273,0.00312318766142976
-0.0270413565312489,-0.00875471334029746,-0.00049126459371792,0.00267631629759757
-0.0259326452361542,-0.00675155066323701,0.00483087445234675,0.00199342694415099
-0.0190368396713009,0.00133515866135494,0.00888487585472718,0.00052506778027371
-0.01906429324052,0.00792436640351928,0.00864080272325755,-0.00136727142015347
-0.0363288969983194,0.0191200964481748,0.00502278940364917,-0.00260982831148705
-0.0647756419484396,0.0418464718897299,0.00166120607200503,-0.00237201289184239
-0.077806921097312,0.0597902883608906,2.49198975192898e-05,-0.000837368279728962
-0.0641129374733256,0.057539693242947,-0.000373692025704316,0.00102976252075472
-0.0428696372096194,0.0450402574185137,-0.000241634305307652,0.00208585217866598
-0.0285415046145316,0.0378209336066193,0.000625165454920501,0.00193210209814838
-0.0174833412047892,0.0372832752945639,0.000326738184894881,0.00103806536818492
-0.00502327689413326,0.0365930424179128,-0.00276627980232437,3.14942269629339e-05
0.0115247963188088,0.0308479820377937,-0.00530657458355103,-0.0008657123393652
0.0352791129441143,0.0132036315359836,-0.00949675116390886,-0.00151136761006264
0.0644765674834723,-0.0237006716891151,-0.0178274446959084,-0.00141022288279077
0.0826124903007812,-0.0746986535963649,-0.0221080983009257,-0.000390202023057392
0.0727032672434374,-0.10892359972748,-0.0186998632896258,0.0010531642309422
0.0459869836672697,-0.0941342680115541,-0.0130794459436903,0.00214035713901657
0.0227687037597952,-0.0447208889645782,-0.0081325767149154,0.0022537240969034
0.00370415867319161,-0.0027982989342428,-0.00578601192313668,0.00127420907216896
-0.0130299437682418,0.0140054437755721,-0.00759822685641701,-0.00024389199597348
-0.0198612005008745,0.018538048127243,-0.00928951751995568,-0.00133264917175026
-0.0172877027109813,0.0243231307228418,-0.00738558757204549,-0.00171032633767169
-0.0114533018454287,0.0279315254606716,-0.0047961267634491,-0.00197115934580449
-0.010613731580631,0.0223173006648251,-0.00328757856085193,-0.0021962439964645
-0.0215057382692853,0.00966955544308322,-0.00301492456162297,-0.00182107452536062
-0.0351226929675781,-0.000309234452513957,-0.00340613499578043,-0.000856842990858406
-0.039091482507964,-0.00255207190697707,-0.00429995298691314,8.7126747828817e-05
-0.0264751231714815,-0.0029724926859411,-0.0101201420773585,0.000751579524255962
-0.00531925519458807,-0.00746928869072806,-0.0207465431997577,0.00143668079139004
0.00422257159247374,-0.013154591025443,-0.0269587458891891,0.00210769583886725
-0.00126275743267024,-0.0138456216321839,-0.021181939021996,0.00199428221413439
-0.0074309778334071,-0.0081900801272869,-0.00779737428579556,0.000669221582888336
-0.00484641076483623,0.00289577476122843,0.00184502920980022,-0.00127617658271444
0.001071034332717,0.0189846321122544,0.00481146106702583,-0.00289657394031693
0.0049140780117506,0.027067542862025,0.00485247460678464,-0.00381822657085653
0.0112648121835324,0.00931266390075473,0.00228636319609581,-0.00381446704943579
0.0183757365207761,-0.0199776108453216,-0.00194621891827004,-0.00263122130417117
0.0184954658003928,-0.0290852389842996,-0.00444256570436896,-0.00135667288864581
0.0131066701063045,-0.0191841967926093,-0.00682953283766888,-0.00140063367526305
0.00683657823292708,-0.0135893813468642,-0.0104280441947554,-0.00231874891622735
0.00143871213547673,-0.0156509190672589,-0.00967569592931376,-0.00258572453773584
-0.000503217335966243,-0.0165494088864244,-0.00338510533703275,-0.00169915876159221
0.00481662618923113,-0.0165370984158757,0.00427735914385042,-0.000586528428935579
0.0161843268207681,-0.0184912677751265,0.00905454943355109,-5.18627290968438e-05
0.0251753782621613,-0.0191807619347888,0.00929606913551718,-3.90757359664574e-05
0.019229234987813,-0.0113736794793177,0.00780869848229349,-0.000246192183660521
-0.00443236084916633,0.00260180640286996,0.00630108931654542,-0.000461440039824906
-0.0293810647684468,0.0113363073032725,0.00401337889014327,-0.000550887154196921
-0.0386052530541636,0.012510451953299,9.25209516612251e-05,-0.000231786588880493
-0.0344087078647246,0.0126502193763552,-0.0036720810282748,0.000903097875627261
-0.029429695876538,0.0149165797971483,-0.00723703729377923,0.00259118914976356
-0.0245150232385101,0.0186946097665753,-0.0132245236396951,0.00368508347500493
-0.014746271562698,0.0209944533252296,-0.0189185502830481,0.00349973484731077
-0.00650618940236336,0.0208676034709542,-0.0198159148297471,0.00203755271578319
-0.00538362769159214,0.022789230361383,-0.0187645389608821,-0.000744671881426588
-0.00304118236754982,0.0256370834092232,-0.0192793009754489,-0.00416522512077991
0.0101867234388367,0.0227339259367691,-0.0193944832734774,-0.00667288817002195
0.0336907862532467,0.0053269457773403,-0.0196541168743668,-0.00719177074491908
0.0594976283292331,-0.0305320740376573,-0.0220092021622902,-0.00566182736866785
0.0676042686525273,-0.0627945997487913,-0.0234498586061061,-0.0029055446162634
0.0432763412166129,-0.0609491318134439,-0.018505377687876,-0.000203792971924129
0.00896274121556634,-0.0276173683661355,-0.00734448667988939,0.00161305957834284
-0.0058119394043026,0.0072167525539458,0.00316465035460413,0.00229245875333786
-0.00313456093779701,0.0262778877579308,0.0089556766850461,0.00175665252748568
0.000588306182725359,0.0316097124527315,0.0120146840871071,0.000281787899673123
-0.000119774077982939,0.0286374343421127,0.0140789349822149,-0.00134862858056961
-0.00201006181244542,0.023907398255687,0.0138142817227934,-0.0022958998173373
-0.00306377220207579,0.0205652482927962,0.0105991710658019,-0.00204224656309847
-0.00517639568359529,0.0177880876187539,0.00660828719549094,-0.000848019478311233
-0.00967396233765758,0.016191955195297,0.00347916046108517,0.000361235079780807
-0.0151097309392992,0.0157352793261503,0.00160364339778061,0.00101625769012943
-0.0190413978145249,0.0139470985528167,0.00106897374077018,0.00125995586840341
-0.016707665637687,0.010420264182801,0.000124600240367829,0.00134489947374461
-0.00823251508040711,0.00580516992953345,-0.00102888283125207,0.00113257552920637
-0.000513658004390878,-0.000796551472686922,-0.00119125249494548,0.000403840456153381
0.00288298963376344,-0.00810865669671372,-0.00318895739816008,-0.000636415769679482
0.00829002093085626,-0.0142719478205279,-0.00785201456423431,-0.0013094940337943
0.0190837687193964,-0.0198381684255318,-0.0110526789010379,-0.00136513296433977
0.0261002676551118,-0.02519328109303,-0.0101240500629327,-0.00117725821479601
0.0210762114726773,-0.0277906140713524,-0.00647834457980458,-0.000842020782567037
0.00634579947284239,-0.0248931173251449,-0.00215692913418798,-0.000258450063652604
-0.00790511529951721,-0.0180936458331779,0.00225426012039418,0.000375097417112637
-0.0137152855313857,-0.0119482494175255,0.00372088756933995,0.000699440626949028
-0.00983001823813112,-0.00261310213499875,0.00175019731025414,0.00079326385944244
-0.000959757361161516,0.0141868217328022,0.00236701566601257,0.00083905357318076
0.00743197150272055,0.0249988455697144,0.00640166782392466,0.000924915276123059
0.00975663033623086,0.0213347870909428,0.00943148253452106,0.00118640799756211
0.00526741370173956,0.0138390696443467,0.0112881390627254,0.00133761965679713
0.000688801120858555,0.00938363568980537,0.0126462086619914,0.00112942227818064
-0.000744465329962293,0.0050712256913182,0.0145483233377543,0.00066839972005556
0.000605140629207534,-0.00341044830740326,0.0199539882342006,0.000126519639817246
0.00902611796848419,-0.0182070528109407,0.0248711625955594,-0.000244560069634219
0.026500392532148,-0.0326223026585459,0.0225161619948595,-0.00025166892363717
0.0376896249294097,-0.0366983684195706,0.0165588585957081,-8.26049581397854e-05
0.0277458300550198,-0.031350324223899,0.0133685928078158,2.52825303239061e-05
0.0034001453071181,-0.0259224649600649,0.00828785946688951,9.73149608417847e-05
-0.0165832542499191,-0.0249968996965603,-0.000693330237158315,0.00025050993643657
-0.0221801481881022,-0.0204972259444096,-0.00495352895651472,0.000626417940719229
-0.0212217572352138,-0.00506905001416821,-0.00207787904831271,0.00108129280749438
-0.021965052912905,0.012127159730449,0.00430109293300452,0.00132487562596056
-0.0209300898424038,0.0231473586404701,0.0104876415439528,0.00124366520213466
-0.0200174508067041,0.0315201109086179,0.0128195883640234,0.000937831157730537
-0.0242404253927886,0.0371956123497629,0.0111624152653374,0.000879656126867532
-0.0264690552270623,0.0459060916179621,0.0060105701443813,0.00159366221381265
-0.0215714417621775,0.0593827431677189,-0.00100061166589482,0.00295883996127586
-0.0169752816031508,0.0610638733975168,-0.0034586623655708,0.00436150455904956
-0.0181619638354165,0.0494998213835565,0.00194962379339207,0.00522543022990554
-0.0199761047692996,0.0374938366516043,0.010626061029715,0.00508106983368272
-0.0188860131486667,0.0261211042075929,0.0185918344553506,0.003716111745512
-0.0159894110356452,0.011685601881232,0.0224993533134201,0.00152689571803196
-0.0112452886900809,-0.00223682047221306,0.0193632037792392,-0.000451753813761179
-0.00645421966891663,-0.0128583292438205,0.012377062227483,-0.00146195627141641
-0.000474484596950802,-0.0230168088998658,0.00522609447163924,-0.00149298312102495
0.0111026884982035,-0.0355363518349303,-7.44689339996635e-06,-0.00101707560120718
0.0206291373048149,-0.0541723241974737,-0.0003139355969253,-0.000735487048844922
0.0172365565098313,-0.0763923703740605,0.00138543249721411,-0.000823575240487188
0.00491073429040094,-0.0792611275140209,-0.00127051118487971,-0.000800334609601872
-0.00534986575954004,-0.046909959170557,-0.00757829461747879,-0.000416065668604583
-0.0070398326905459,-0.00398167954232885,-0.0109535525121298,0.000102682303606928
-0.00272867808713746,0.020809121971711,-0.00916100483136137,0.000512483301170812
0.00127617715757991,0.0263830451864803,-0.00670690085679565,0.000851391724098092
0.00337022159267438,0.0256115535947657,-0.0036776108721007,0.00149141932769951
0.00604736628951179,0.0277977697044382,0.00186087852545425,0.00237670719881108
0.00830486770607227,0.0291416879747741,0.00787721412133401,0.00274995606022445
0.0061908147240998,0.0249595390528344,0.0105554189821756,0.00237432341912897
0.000461361545495708,0.019183492506021,0.00761500397365249,0.00183363630704869
-0.00395755528315905,0.0140632954909225,0.0026274321322549,0.00154876586544023
-0.00244596208929969,0.00874282646693281,-0.00230777926332689,0.00149050557201552
-0.00331038693808548,0.0020257609956119,-0.00670854749608396,0.00164497878621951
-0.0142442894293677,-0.00703600076136895,-0.00814619296223897,0.00190137137314125
-0.024428790369957,-0.014658147993352,-0.00840527811491301,0.00167361908500292
-0.0235894792699145,-0.0191112894001434,-0.0130181936307973,0.000736169982386102
-0.0114817634234728,-0.0216534782723032,-0.0199632024132234,-0.000277024164378706
0.00243445826112491,-0.0192626266771886,-0.0226840203578685,-0.000966663189059923
0.00728457290972811,-0.0117599969891357,-0.0213725302102801,-0.00147259841495336
0.00504381308494962,-0.00478388687663006,-0.0181840144342594,-0.00181138157697058
0.00635716928437836,-0.000740232585645703,-0.0149288752408239,-0.00191906604985673
0.0122465431233185,0.0053601785967957,-0.0119438604789635,-0.0018439830786643
0.0162949442626667,0.0183668761771891,-0.00817837124045203,-0.00172326328621648
0.0294375876766954,0.0244978322043735,-0.00433170646752738,-0.00165432558289175
0.0555130359338393,0.00691340580022257,0.000525563281751809,-0.00178352278338407
0.0702139187758089,-0.0201111501519197,0.00499987364526599,-0.00198931597107373
0.0623577420057538,-0.0330449660190737,0.00514790145997003,-0.00166678363448843
0.0450338738509573,-0.0288472908809171,0.00233325741106542,-0.000680636307761701
0.0300809135939743,-0.0165777653904561,-0.000181555183967719,0.00058696543675123
0.0157830980603625,-0.00485061081153209,-0.00113533444288066,0.00171992094086311
-0.000994139064645967,0.00244754343539785,-0.00190525615705747,0.00221521116791059
-0.0143152470377058,0.00744485374850487,-0.00250501449198041,0.00183946586732093
-0.0191832204929841,0.0126072656253089,-0.000660413994207801,0.000920955348648292
-0.0201887667895046,0.0176965356841063,0.00105183187786582,-0.00013292688389354
-0.0293422471483416,0.0242960580750862,0.00106071922932721,-0.00115546082383217
-0.048553635550459,0.0308558534387772,4.28767608839295e-05,-0.00211585535286729
-0.0598453514828091,0.0328423980077154,-0.00277867590345389,-0.00296295920325167
-0.0463812319008205,0.0300175560198166,-0.004475137466107,-0.00355790918546472
-0.0210459446334308,0.0256183563953524,-0.00395240889247323,-0.00379327318333683
-0.00776405513072995,0.0247653465648413,-0.00388553907118608,-0.00351719608549332
-0.00589373330867018,0.0295659883499488,-0.00309497720234957,-0.00260345066942631
-0.0047561773849177,0.0351982132215692,0.00287571735632858,-0.00120334290617216
-0.00325000841296837,0.0401386594211547,0.0127245881926999,0.000149485372618552
-0.00632662244150932,0.0475336744997713,0.0188721223272324,0.000894608656746921
-0.0128825726603759,0.051149158408896,0.0189105496941072,0.00113204198613324
-0.00398978373383083,0.0422562594698456,0.0163967505751974,0.0011339012067087
0.0295259557463817,0.0179742722311456,0.0137207619661496,0.000704891661334221
0.0598043769518666,-0.0213798434004444,0.0110180332380008,-0.000103250504172154
0.0558990767982786,-0.0583274043505357,0.0082453493665505,-0.000929704879618703
0.0244458860499063,-0.0602637387140159,0.00608398862135025,-0.00143087760600681
-0.00672320701663078,-0.023903516297048,0.00593796660427951,-0.00129629314530172
-0.0261408642111905,0.0159764593583221,0.0058140825243635,-0.000523631258986178
-0.0358756924233569,0.0377126975343775,0.00382168351066132,0.000391132456140331
-0.0338624724830189,0.0447290549702113,0.00122442483262835,0.000504682675508918
-0.0186795363209465,0.0349134583895796,-0.00432509625434704,-0.000636847596884275
0.00950967316811702,0.00381852058288522,-0.0142071119484534,-0.00250058833020301
0.0388219265837025,-0.0383415659943429,-0.0217811740594524,-0.00404571888196162
0.0378243404220508,-0.0600799513809896,-0.0169496911857124,-0.00440225788826396
0.00165343260203912,-0.0329447247222132,-0.000183779589972018,-0.00393746687933229
-0.0350190197053791,0.0139936314541751,0.0156277480691069,-0.00361865968378425
-0.0496298416630684,0.0307942114578159,0.0236042538107247,-0.0036565875153404
-0.0458860067835309,0.0164665510411907,0.0243229862079129,-0.00370282185145817
-0.0355936834585318,6.38377604516901e-05,0.018816024318223,-0.00315782503211193
-0.0281680397300647,-0.00273480881544084,0.0137063214805826,-0.0015280779175012
-0.023916925771017,0.00388456541229769,0.0138635777332476,0.000727972832762854
-0.0202093243938737,0.0143587358275205,0.01637232551059,0.00241481829397257
-0.0162126276503592,0.0240681746484289,0.0177610498562158,0.00293900806541684
-0.00868057055124506,0.026759775777144,0.0169080134009765,0.00260996449639243
0.00960862483919986,0.0133166772850461,0.0124038171181216,0.00195096938773839
0.0402535817622156,-0.0304850194119057,0.00456827774253773,0.00118120933397521
0.0631302795586732,-0.0895566306290844,-0.000857000577375519,0.000519529904357992
0.0545180417514291,-0.110039052193776,-0.000846484712765355,0.000429359988047092
0.0228430849544047,-0.0760845935976226,0.000244547982710397,0.000878180885961924
-0.00428511161192563,-0.0330374247379896,-0.0016812182626559,0.00113245792355739
-0.0160181764462589,-0.0112191446460292,-0.00527376559930726,0.000733202613097269
-0.0169332650436873,-0.00528664218317438,-0.00762518822141991,0.000156062520266284
-0.0094940924297982,-0.00785809189396109,-0.00887398648890825,-0.000148107159184656
0.00908586978975291,-0.0127153733390862,-0.0129102177900762,-0.00044553812285509
0.033691523918412,-0.00703533184549181,-0.0201844457911424,-0.000889183754377001
0.042961634085908,0.0122374385385383,-0.0243820985426025,-0.00117193768510144
0.0267472197837757,0.0269927321530328,-0.0223014167678502,-0.00105294982966006
0.00147308432468488,0.0249397208725767,-0.0134291211059855,-0.000737007673491449
-0.0160409374841617,0.0127771718926624,-0.000515649107698506,-0.000640422011370741
-0.0226482233190829,5.24668069054948e-05,0.00772889530100594,-0.000959868964500949
-0.0203494510009467,-0.0096841918022839,0.0076589625978232,-0.00140797953536029
-0.0131790918482691,-0.0168328326978672,0.00451358283933536,-0.00119813121125189
-0.0038891717682727,-0.0229203811906518,0.00371297684005766,8.28922818286271e-05
0.00736800191720504,-0.0277185246392689,0.00468185750518579,0.00194769298584374
0.014904239925171,-0.0307172029617091,0.00389777692406901,0.00329612533632237
0.0169333809073297,-0.0340020467393348,-0.000201676604531647,0.00344085447187321
0.0207537053093319,-0.037676299509379,-0.00535508530876953,0.00291765221412838
0.030092633921385,-0.0396956031166145,-0.00671225115121576,0.00246598233653709
0.0339505077386471,-0.0338967153756231,-0.00322033170953774,0.00218541524832533
0.0144016061103042,-0.0178054772943636,0.000816255596680637,0.00178002591591724
-0.0190985881680531,-0.000681976799305907,0.00200315974613825,0.00117242479227468
-0.0368597644570165,0.0102572287148772,-2.42106851156988e-05,0.000771559517869292
-0.0297870545266176,0.01806146813349,-0.00304400754966594,0.000969673513338986
-0.0139705951869543,0.0246906414766809,-0.00504352733466507,0.00143718435897832
-0.00576121466231842,0.0252879420325285,-0.00658148759302332,0.00148000577156883
-0.00299684397876253,0.0212011067903369,-0.00807398974429131,0.00112461303430129
0.00297763839905079,0.0166707597764398,-0.00899728921860736,0.000875933805033256
0.0104688739981305,0.0107958922429783,-0.0102397879748835,0.0008873758542203
0.0154361795102936,0.00236924378881396,-0.0129429672533845,0.00095759449316714
0.0199988780162996,-0.00558914758391732,-0.0144763551674682,0.00112830667137456
0.0215630778928502,-0.00575111655837513,-0.0109461352392039,0.00140914736518344
0.0145820074269322,0.0026856326925287,-0.0016952768517102,0.0012810531078925
0.00625270799111481,0.0138084916992794,0.00779479034227164,0.000644313775732469
-0.000787382606921044,0.0199955842534732,0.0106259389971052,-1.36891496826854e-06
-0.0125466103658291,0.0142400404918107,0.00661430291907077,-0.000461117398743976
-0.0238245751651454,-0.000866513719230994,-0.00127072845069253,-0.000592242130236896
-0.0311335835421821,-0.0144473369895747,-0.00888898632252072,0.000170462337465986
-0.03541635507888,-0.0193286906911198,-0.0124473884873065,0.00197315898460119
-0.0341585285090675,-0.0166582663834446,-0.0114004139824366,0.00379697429309569
-0.0233989912922512,-0.00777589888346288,-0.00940243615334299,0.00411473402036484
-0.00425785038979045,0.00166032043278378,-0.0115327906849072,0.00242865344972161
0.0117904194662909,0.00298152708130943,-0.0137092632414247,1.67934866047558e-06
0.0216509180176947,-0.00270372689098193,-0.011695721203147,-0.00167328169217355
0.0306944400042357,-0.00861604828092544,-0.0093008843939911,-0.00230122907110258
0.0428514519396642,-0.0110319301188557,-0.00919515098706199,-0.00253919759982094
0.0550933324647116,-0.0159066037235688,-0.0102133137771076,-0.00294201082564725
0.0493842407932047,-0.0222425634120714,-0.00982833157256447,-0.0033288244041667
0.0219746749056336,-0.0197211210208835,-0.00798959632482944,-0.00338541995971102
-0.00455330627070779,-0.0132385062687362,-0.00746139830562977,-0.00304324866298783
-0.0161410643150977,-0.00785670476444247,-0.00551744590324526,-0.0021913372481495
-0.018523421657871,0.00150392731390452,0.00134537087651857,-0.000948389967154119
-0.0167376289888854,0.0107527950717488,0.00716496168005891,-0.000157027013160145
-0.00892863205260646,0.0144294382345143,0.00940316710098786,1.32125638448418e-05
0.00286524369572125,0.0165866177298354,0.0111858940091197,0.000373826984998407
0.0125480031536379,0.0172252951861681,0.010874988274824,0.00102259258230454
0.0187093721584844,0.0107158669276453,0.00704159965365168,0.00155289966926939
0.025880369450441,-7.32772388787137e-05,0.00119941353956332,0.00172826973222053
0.0341249334756524,-0.00645626270633431,-0.00529839792235045,0.00143839174694097
0.031721184141333,-0.00554043153917203,-0.00909583771123818,0.000903694185253314
0.015289281638517,-0.000363485043860036,-0.00775752789241676,0.000457502719580925
-6.25620380593078e-05,0.000307780135439731,-0.00457178101542956,-4.99919374887642e-06
-0.0066354521806725,-0.00719301416165147,-0.0053419032112098,-0.000681230481234022
-0.0101617074838523,-0.00902422282449799,-0.00931939200123381,-0.00134513198186726
-0.0147996800624765,0.00417144914549291,-0.00936662786581766,-0.00171076314953662
-0.0191811166724599,0.0181893493717584,-0.00278849289340518,-0.00193848105544132
-0.0190170176564965,0.0185387029485783,0.00326179279253951,-0.00210041836640534
-0.0113310387591138,0.0117033208922471,0.00404161496137453,-0.00194532328935995
0.00163458997157124,0.00807960960398896,0.00337582784173946,-0.0013584791702901
0.0127219554574457,0.0079012675242962,0.00302946517626242,-0.000380974644292572
0.0155867211166877,0.00696139181733823,0.00322527116248018,0.000559425839616596
0.0113932645998166,0.00194952930070263,0.00594925181630369,0.000803168869262969
0.00614123310812557,-0.00284563712952892,0.00954441564722132,0.000198035273132774
-0.000185811843163037,-0.00136223428880235,0.0095328508180266,-0.00067359075180621
-0.00878951180998153,0.00341484610783202,0.00726095430510859,-0.00131298949216383
-0.0132594867672452,0.00576278339818106,0.00659689686360632,-0.00167465542733881
-0.0101075057518462,0.00629980063456109,0.0073455508858547,-0.00164425033280391
-0.00328054746409718,0.00716300167094078,0.00738533909172739,-0.00106544920963502
-0.00246687061662453,0.0075686044815246,0.00511356869568068,-0.000313974449016002
-0.0134805877991297,0.00813825025116874,0.00132337669066517,-0.000122784365323008
-0.0271797538367197,0.0108102321000688,-0.00230005429153964,-0.000440252607230419
-0.0275570283505303,0.014683630105712,-0.00457180638318406,-0.000411242095730733
-0.00991523139069139,0.0171248030888171,-0.0037991288609155,0.000482898568365914
0.0105054689899555,0.0168678093681205,-0.00142009705395883,0.00196244529676652
0.0146388571250252,0.0144176393983915,-0.000569027233344035,0.00333810812649293
-0.000392579642523406,0.0117607205369572,-0.000584790798092506,0.00408001570931331
-0.0185497184473472,0.0127415287515859,0.000813261145665599,0.00399430111060935
-0.0286903828554115,0.0191429031807391,0.0020177951359997,0.00316233500994475
-0.0343234928372656,0.0261719726162053,0.00393804315750956,0.00177554454785292
-0.0395244566087751,0.0304970291552514,0.00917308502960085,0.000114664721069808
-0.0392274782482025,0.0320800134138341,0.0136966618942903,-0.0012016889282552
-0.0255156867663489,0.0300611334845488,0.0145913690042908,-0.00168457432578185
-0.00431860728782979,0.0254819920739597,0.0137075109194408,-0.00140861097820122
0.0104410049188199,0.0177992764441049,0.0123677845102671,-0.00076416797320939
0.0114846866096474,0.00829714384417721,0.0105406775142391,-7.80544674145577e-05
0.0045886728241782,0.00482485257585509,0.00832350705120657,0.000515948307922761
-0.00195958927162548,0.00876440064433396,0.00484417472456223,0.000826459556092821
-0.0109927930493813,0.00876769924220069,0.00197386061655366,0.000672382153082622
-0.025665158111659,-0.00498047958393826,0.00134843107373424,0.000164161711878216
-0.0413249638148189,-0.0182725236403915,0.00158312805492839,-0.000355792762724601
-0.047049120220654,-0.0122465104603896,0.00158737341877163,-0.00072946510400704
-0.0373408550563646,-0.00201539842511771,-0.00506096195395775,-0.000869571366065618
-0.0239617235618396,0.00122502414306132,-0.0188929160337654,-0.000355009566926302
-0.0231657687629686,0.0173119819171189,-0.0251517274492782,0.000762532216372776
-0.0345343363288473,0.0475074599652577,-0.0173038685406153,0.00156138170597506
-0.0386377125534807,0.0667655462895556,-0.00630923783583725,0.00142696105182418
-0.0264277331737097,0.0647807015494745,-0.00236797692217202,0.00049309711388214
-0.00536834601065742,0.0502401299374154,-0.00253460090257338,-0.000742972747303705
0.0241510248691522,0.0238704966752365,-0.0012669465216167,-0.00173219990128168
0.0540338030348778,-0.0208829416145045,0.000343500999858,-0.00224977437774582
0.0597382705829981,-0.0632782894823051,0.00259208762261262,-0.00238086824348076
0.0432285984263406,-0.0713948017463723,0.00491438147159358,-0.00224128367861591
0.0287031298856148,-0.0554023595460111,0.00393932787001995,-0.0016360506171936
0.0196297968658567,-0.0461634080283388,0.0011860838879385,-6.64429473893808e-05
0.00866923108978243,-0.048536487731053,-0.000755891653126436,0.00226205037796532
4.99830162352596e-05,-0.0474541396782461,-0.0040817128127197,0.004305626620252
-0.00412036527878967,-0.0310306443390215,-0.00651513990631945,0.00539016390881893
-0.0102301266690294,-0.00498207682956485,-0.00403050481019933,0.00494801223362839
-0.016526710843355,0.0146197021294995,-0.000875715482531523,0.00264269673420936
-0.0175689121743076,0.0273111494299371,0.000180712677808142,-0.000491956106770337
-0.0146633391632114,0.0399199616430805,0.00190600998240626,-0.0031299068687236
-0.0117427279492912,0.0466706979494011,0.00442691970353986,-0.00464692617329181
-0.0108498521453221,0.0433058663399728,0.00492781163268796,-0.00469619757315902
-0.00852701277552704,0.0323133391949266,0.00217150272352638,-0.00348989953718388
-0.00357229964123524,0.0173300366406609,-0.000359678037337715,-0.00183667429732698
-0.00290968220511535,0.00106929910887037,-0.000209349810988829,-0.000325181720038874
-0.00159858947444798,-0.017561487816061,0.000764362071384066,0.000747889915729463
0.00791012495295185,-0.0380196658661911,0.00148342353799828,0.00104405810723876
0.0134513591149527,-0.0523990634594393,0.00129976405096118,0.000416921695297622
0.00718823872783852,-0.0558465855775835,-0.000332700175523748,-0.000826808807407445
0.00201870982679508,-0.0547018189352571,-0.00424712444983233,-0.00188051517173174
0.0133230448027719,-0.05680444591564,-0.0104914275833689,-0.00198362189639127
0.0401879678555726,-0.0596475719718119,-0.0152849804104137,-0.000927869464999539
0.0623113296135432,-0.0539970235486973,-0.0123270941804413,0.000869393638745677
0.0637931770340616,-0.0390415995483846,-0.0042516120012879,0.00239676539286607
0.0516193565724791,-0.0216348699084613,0.000133761182124839,0.00299896649386269
0.0373164288558233,-0.00922218690138334,0.00157603602606803,0.00274150158320046
0.0237423374960875,-0.000917015205169715,0.00530317067783918,0.00181557245969958
0.00979695521145658,0.006520204086332,0.0107858628756861,0.000523308564606695
-0.00344237231793224,0.00988114556118804,0.0135361676002982,-0.000744334924910795
-0.0113548728235345,0.0111113066793226,0.013873319254375,-0.00168986382101267
-0.0155836393684761,0.0159183902664581,0.01442291607298,-0.00217628052390806
-0.0279560012890151,0.0217365818012892,0.0131709380678647,-0.00208947586207097
-0.0477697649774358,0.017055344191494,0.00992956937988612,-0.00131888215313962
-0.0517082203254985,-0.000302375470084642,0.00707263761980441,-0.000183679026591457
-0.03039447463754,-0.0175926897845237,0.00501030005028653,0.000802332357753599
0.000785567287731367,-0.0270556204853978,0.00110182246467865,0.00128440302585818
0.0247657003174448,-0.0297014899612822,-0.00651310549620024,0.00142309441073029
0.0252348743078642,-0.0288132910376524,-0.013722412305382,0.00167100013231059
0.000819004181743972,-0.029659138756034,-0.0161100842764107,0.0016735568077526
-0.0247717122957131,-0.0327114339084374,-0.0142698974187324,0.00108145609515311
-0.0342738093001068,-0.0325314047483019,-0.0109354576948347,0.000221185398673989
-0.0306456008283497,-0.0249388588633332,-0.0062643517049515,-0.000462904252566798
-0.0192540232169497,-0.0105693241591695,-0.0002416712343621,-0.000790847285843978
-0.00529400093709453,0.00487387052690137,0.00507624275578154,-0.000973160202395304
0.00612332262786745,0.0167224252629743,0.00887376478860611,-0.000991391426894751
0.0155130431757051,0.0288292547570319,0.0111781449028133,-0.00076991401570476
0.0248219829356971,0.0442039915591207,0.0104031455851474,-0.000443654196259843
0.0317231951454201,0.0557184640269558,0.00561002462760667,0.000110632996170052
0.0392378477334072,0.0502172184416314,0.00072196670855048,0.00103081483390901
0.0552031362591465,0.0108799336836318,-0.000736937727866354,0.001819540130708
0.0636217390107723,-0.0495125660877166,0.00146005259812653,0.0018949450721848
0.0432296936699439,-0.0732328645481399,0.00473571382359328,0.00153590506912601
0.007239174691711,-0.0442054301722255,0.00403632696422439,0.00100584217699501
-0.0200327243872548,-0.0122725116526515,0.00094905125391821,0.00014755281305299
-0.0314282731605805,-0.00281113122121387,0.000244781221155829,-0.000848939336601639
-0.0327446902564521,-0.00205310628195432,0.000387767003921203,-0.0016812187984045
-0.0296337822500186,0.000666534043199436,-0.000261815813651371,-0.00207384545506019
-0.0229783574370257,0.00476599366225052,-0.00205346506242239,-0.00198942440143502
-0.0152140642975832,0.00721757432178562,-0.00612788031458984,-0.00164936110942791
-0.00904038601217886,0.0103380528268767,-0.00780171779578846,-0.0009603368327554
-0.00534621481088946,0.0140559878080961,-0.00443055963325933,-4.62680020508134e-05
-0.00228782642880031,0.01274528271966,-0.00077273034044794,0.000452268758767568
0.00333431409196287,0.00642102199471108,0.00204106422407858,0.000367002821245061
0.00891721204033931,0.00204716475927922,0.00476430456585664,6.31178877109067e-05
0.0114429099393736,0.00437571514711761,0.00566646583069158,-5.15667013370021e-05
0.0137431131987034,0.00813406441107108,0.00466633887907027,0.000358954354403109
0.0148989371314153,0.00697327600370752,0.00366969797207579,0.0010655463117231
0.01356735014776,0.00424333710239231,0.0014967641828019,0.00155083115899773
0.0145305948270501,0.00242707478102232,-0.00489538668631035,0.00180068001638893
0.0177026608551611,-0.00567523283605739,-0.012243737847917,0.00218959232933123
0.0166772397356501,-0.0180692346144422,-0.0146145419200539,0.00279614441933421
0.00870739202564533,-0.0200395639591096,-0.0110224130580387,0.00304706421183778
0.00120581692100362,-0.0125185640728552,-0.00391361220817305,0.00217762674821865
0.00170875392202608,-0.00764531118324901,0.0028981576936693,0.000233877061733382
0.00391957445158353,-0.00573173512970755,0.00665290077515922,-0.00179705125717246
0.00283978234614677,-0.00227867943746008,0.00743591932990245,-0.00296920035431469
0.00294441042786452,0.000869791734434588,0.00658895499101447,-0.00315667504466869
0.00564020504738134,0.00137855817209962,0.00385889380818765,-0.00285724265007375
0.00882669703665597,0.00114801835397608,-0.00043552948619195,-0.00237728628428892
0.00911936112961289,0.00183131601163214,-0.00325132185374877,-0.00170674248555984
0.00575412187303561,0.00185838471620891,-0.00255884830949702,-0.000937358892221317
0.00355677070474659,-0.00041645940811778,0.000388697150865512,-2.528023349884e-05
0.00538819604699948,-0.00315373716583736,0.00307087139401486,0.00116833590816634
0.00892881238563198,-0.00279878225713581,0.00569776541900875,0.00208679267469951
0.0108106165799416,0.000592854980994847,0.00813168395412692,0.00208900700525125
0.00838937607705199,0.00219300272861412,0.00634354442145779,0.00125226883868253
0.00496511641183112,-0.000688937902556546,0.0017856873168542,0.000330118529027966
0.00318403919217824,-0.00463957767088516,0.00150192186150742,0.000173997322867587
-0.000617199043640935,-0.00401565232246435,0.0073293068928976,0.000718100504926487
-0.0062089419556296,0.00104978921640414,0.0130612678390396,0.00129388617779876
-0.00814510575353823,0.00577121740025331,0.0116687035248007,0.00139532767296354
-0.00697683326196389,0.0103467354505607,0.00493382759567159,0.00119936052401253
-0.0069548419249203,0.0150132547430127,-0.000505392375470027,0.00125623786501697
-0.00723731827378645,0.0158158620171999,-0.00101940806435291,0.00126688210368427
-0.0095114409344666,0.0126490543961539,0.00148704979740421,0.000420844318401579
-0.0143872014294384,0.00663071113006067,0.00359559620855046,-0.00109032731854469
-0.0166456981438511,-0.0014570911123417,0.0034525671378233,-0.00202868282087943
-0.0151205611666603,-0.00512844614351873,0.00203463434492311,-0.00159651552125515
-0.0146753458592835,-0.00340905254801632,0.00194836923267824,-0.000711490873942604
-0.0175164582237838,-0.00422532122937467,-0.000482877690622279,-0.000510508588629316
-0.0172705197099131,-0.00754323294671201,-0.00913335013734759,-0.00019344115710609
-0.00582655927673455,-0.00872829270752617,-0.0201743469021264,0.00154678383651008
0.0132371496807714,-0.00867167279764347,-0.0260313699850693,0.00402694402147303
0.0257407557761627,-0.00612761845804949,-0.0224484918909386,0.00501407299589258
0.0236515773849563,0.00125078737774626,-0.0126369513014586,0.00361279339534594
0.00905289065151662,0.0101711867516855,-0.0017087476062018,0.00108921309637684
-0.0104644645378847,0.0189176850224483,0.00693550222187796,-0.00117445174263006
-0.0248486490744258,0.0280647795518147,0.0124043722080733,-0.00262290071089808
-0.0316127364768219,0.0332058971825425,0.0158308689514852,-0.00302225701465011
-0.0330757100356597,0.0325811292377325,0.0178774127418825,-0.00265738888813911
-0.0310292012053308,0.0306007170802829,0.0180776757380812,-0.00230595611724768
-0.029189414401868,0.0288331880393168,0.0155485232288275,-0.00229023594247182
-0.0299455369077087,0.0297973466025358,0.0114709332198663,-0.00221212035789988
-0.0296527931456684,0.035052564069879,0.00717054942663772,-0.00163061160069212
-0.0213637739069292,0.0346232795549072,0.00301272873894537,-0.000864978147225345
-0.00302315722033899,0.0224169545369843,-0.000847451697619421,-0.000443995946546227
0.0180006695595842,0.00725414887412789,-0.0046590933661539,-0.000113591172042926
0.0291317767217976,-0.00711497585003884,-0.00747257771806848,0.000468849314680603
0.019061679203165,-0.0226271171155541,-0.00910382520660214,0.00114524113849533
-0.0100565334173873,-0.0267383369621733,-0.0116642241273381,0.0015187861131634
-0.0344607585947854,-0.00867563554053191,-0.0164157754628685,0.00150230939879658
-0.0393193096061972,0.0227425949047127,-0.0171516325556923,0.00156367955529955
-0.0311182526957705,0.0529876821696051,-0.00568307671233379,0.00180748503446175
-0.0143930492631794,0.067334489905534,0.0126586976408741,0.00165550840533543
0.00865856978856335,0.0553313627192975,0.0246416855199559,0.000593290838918719
0.0256785722463488,0.0255182382819887,0.0250456772041767,-0.00120233730333698
0.0244338127751872,0.00759444934883675,0.0194322344101031,-0.00267907187769587
0.0124192828983688,0.0173281503286741,0.0150715556157287,-0.00298649942745641
0.00764656567358304,0.0329258226364478,0.0122177906877962,-0.00247878379658904
0.0162669488779727,0.0284498700120894,0.00666866452857568,-0.00169727155350392
0.0248813526340193,-0.00631690761723313,-0.00108305385007275,-0.000994361402454025
0.0152107655356989,-0.0626605328945295,-0.00605164536562599,-0.000702577297830397
-0.0100580941239969,-0.103370842608386,-0.00701942088634102,-0.000622175909778844
-0.0293739760514158,-0.0960110948670765,-0.00641946460921269,-0.000578004274605045
-0.033405410890713,-0.0511291916293282,-0.00793770426942391,-0.000750804905131571
-0.0341765869753837,-0.00496976282726838,-0.0139928379389032,-0.00129254868912702
-0.0386710130002432,0.019829678497297,-0.0205115176415338,-0.00211037962237253
-0.0337828151051548,0.0250919779238227,-0.0219316976661193,-0.00288214475975917
-0.0103582170656352,0.0207209455345396,-0.0189441188187276,-0.00305140175681801
0.0171320130781831,0.0137600466006354,-0.0128373642510505,-0.00244477207801078
0.0357371977526659,0.00920026376346392,-0.00401150170077782,-0.00162459010283888
0.0487829978734057,0.00217505217209089,0.00218301226031625,-0.000927473622694864
0.0501896167030893,-0.0159687275205839,0.00358583781894861,-0.000182300072482944
