0.045765,-0.095192,-2.8997,-0.0021357
0.044269,-0.097608,-2.8996,-0.0016429
0.040223,-0.10092,-2.8996,-0.00041135
0.038644,-0.10283,-2.8982,0.0005334
0.043599,-0.10755,-2.8976,0.0005308
0.051966,-0.11166,-2.8965,-0.00034549
0.060265,-0.10953,-2.8923,-0.0016559
0.069356,-0.10184,-2.8832,-0.0020765
0.077761,-0.09088,-2.8714,-0.00089973
0.076914,-0.081219,-2.865,0.0012308
0.065735,-0.077977,-2.8652,0.0030266
0.05361,-0.084352,-2.8649,0.0034644
0.048043,-0.09423,-2.8609,0.0026456
0.049796,-0.097283,-2.8571,0.0010591
0.053366,-0.09626,-2.8544,-0.00088817
0.053851,-0.09741,-2.8492,-0.0027675
0.051159,-0.098843,-2.8429,-0.0043114
0.046901,-0.10011,-2.8381,-0.0054035
0.043282,-0.10389,-2.8335,-0.00594
0.039703,-0.10637,-2.8261,-0.0055769
0.036887,-0.10315,-2.8152,-0.0044428
0.037889,-0.098013,-2.8033,-0.0032636
0.038637,-0.096837,-2.7916,-0.0020788
0.036129,-0.10179,-2.7821,-0.00056352
0.035723,-0.10672,-2.7766,0.0011351
0.039612,-0.10772,-2.7729,0.0027592
0.043365,-0.10759,-2.7669,0.0038464
0.045577,-0.10846,-2.7574,0.0037977
0.048146,-0.11007,-2.7453,0.0026555
0.051798,-0.10736,-2.7308,0.0011525
0.055574,-0.097399,-2.711,5.2788e-05
0.056965,-0.087284,-2.688,-0.00053891
0.055407,-0.085215,-2.6722,-0.0010579
0.054436,-0.091525,-2.6642,-0.0018619
0.053725,-0.099921,-2.6518,-0.0030807
0.050514,-0.10389,-2.6328,-0.0044171
0.048973,-0.10398,-2.6196,-0.0054108
0.053168,-0.10237,-2.6151,-0.0059166
0.059146,-0.09763,-2.6077,-0.0059371
0.063841,-0.088787,-2.591,-0.0054372
0.064328,-0.081297,-2.5717,-0.0043676
0.055355,-0.084905,-2.5568,-0.0030208
0.038672,-0.095652,-2.5441,-0.0022147
0.022179,-0.1013,-2.5274,-0.002077
0.016607,-0.10153,-2.5071,-0.0018729
0.025709,-0.10002,-2.4871,-0.0014904
0.03652,-0.094632,-2.4677,-0.0010605
0.037701,-0.083411,-2.4493,-0.0005217
0.036262,-0.072253,-2.4314,-2.8353e-05
0.038481,-0.068625,-2.41,0.00026413
0.041032,-0.072925,-2.3843,9.9479e-05
0.041886,-0.082484,-2.3594,-0.00048417
0.039922,-0.095752,-2.3384,-0.0012695
0.035393,-0.10625,-2.3208,-0.0022844
0.032262,-0.10849,-2.3064,-0.003178
0.031083,-0.10666,-2.2935,-0.0037906
0.029531,-0.10329,-2.2788,-0.0044684
0.028595,-0.10067,-2.2622,-0.0049086
0.030559,-0.10053,-2.2425,-0.0046988
0.035112,-0.096906,-2.2203,-0.004092
0.039049,-0.090241,-2.1981,-0.0034104
0.038545,-0.085781,-2.1749,-0.0026561
0.034792,-0.079647,-2.1484,-0.0014818
0.034665,-0.065442,-2.1224,0.00011331
0.0384,-0.045771,-2.0998,0.0015822
0.042901,-0.032481,-2.0789,0.0025239
0.050726,-0.032794,-2.0596,0.0028678
0.059027,-0.042317,-2.0403,0.0027149
0.05753,-0.051743,-2.0193,0.002189
0.044457,-0.056252,-1.9967,0.0014486
0.0297,-0.058895,-1.9746,0.0010274
0.022703,-0.062654,-1.9578,0.00103
0.021232,-0.064249,-1.9433,0.00048747
0.018251,-0.062374,-1.9239,-0.00077909
0.016893,-0.059178,-1.8992,-0.0019211
0.020227,-0.058602,-1.8755,-0.0029172
0.021714,-0.066265,-1.8563,-0.0040088
0.019586,-0.077645,-1.8381,-0.0045473
0.019096,-0.082289,-1.82,-0.0038704
0.020956,-0.079581,-1.8011,-0.0023128
0.023619,-0.076264,-1.7795,-0.00074829
0.028059,-0.073561,-1.7588,0.00025035
0.030217,-0.068136,-1.7399,0.00064215
0.025265,-0.060164,-1.7189,0.00078274
0.018217,-0.050853,-1.6946,0.0010631
0.014403,-0.040751,-1.67,0.0015003
0.013504,-0.031489,-1.6472,0.0016856
0.013642,-0.024952,-1.6249,0.0014977
0.012419,-0.024018,-1.6042,0.0011571
0.011634,-0.028662,-1.5837,0.00089308
0.015719,-0.032466,-1.5621,0.00067817
0.023788,-0.030075,-1.5407,-1.0646e-05
0.031578,-0.024852,-1.5198,-0.001245
0.036678,-0.01657,-1.4992,-0.0025089
0.03747,-0.0021289,-1.4786,-0.0033561
0.031786,0.0067855,-1.457,-0.0035178
0.024164,-0.0019244,-1.4347,-0.003187
0.020993,-0.022017,-1.4168,-0.0027556
0.020097,-0.039037,-1.4054,-0.0023973
0.019116,-0.04764,-1.3946,-0.0022985
0.019571,-0.050612,-1.3792,-0.002639
0.019866,-0.049366,-1.3596,-0.0031508
0.017,-0.044708,-1.3396,-0.0030319
0.012979,-0.039956,-1.3202,-0.0020955
0.01287,-0.035325,-1.3011,-0.0011051
0.015603,-0.027421,-1.2819,-0.00053045
0.01691,-0.019741,-1.2611,-0.00027424
0.017496,-0.01752,-1.2399,-0.00019823
0.017305,-0.017287,-1.2209,-0.00035054
0.015397,-0.015813,-1.2028,-0.00061594
0.013066,-0.015018,-1.1806,-0.00070622
0.011539,-0.017044,-1.1579,-0.00065442
0.010166,-0.021077,-1.14,-0.00085013
0.0087781,-0.02405,-1.1241,-0.0017364
0.0089117,-0.025412,-1.1081,-0.0030483
0.0092365,-0.02758,-1.0931,-0.0040556
0.0062228,-0.030347,-1.0795,-0.004591
0.0010647,-0.031734,-1.0672,-0.0047714
-0.00031939,-0.032606,-1.0529,-0.0046228
0.0020264,-0.033502,-1.034,-0.0040435
0.0031978,-0.034924,-1.0125,-0.0027975
0.0043906,-0.038386,-0.99286,-0.0012815
0.0076134,-0.04144,-0.977,-0.00025873
0.010698,-0.038987,-0.95979,0.00031559
0.014549,-0.032486,-0.94094,0.00088664
0.018554,-0.028013,-0.92545,0.0014675
0.020036,-0.023645,-0.91309,0.0015926
0.021857,-0.016499,-0.90138,0.0010198
0.024663,-0.010177,-0.88595,0.00012227
0.023542,-0.0050785,-0.86569,-0.00056854
0.013719,-0.0041643,-0.84598,-0.00087482
-0.0018649,-0.01393,-0.8297,-0.00093563
-0.012959,-0.030232,-0.81801,-0.00074263
-0.016426,-0.041153,-0.80933,-0.0004877
-0.013176,-0.041231,-0.79839,-0.00059935
-0.0047145,-0.040209,-0.78403,-0.0013195
0.002145,-0.047293,-0.76959,-0.002559
0.0059586,-0.056091,-0.75567,-0.0039376
0.010927,-0.060459,-0.74,-0.0050288
0.013864,-0.058952,-0.72244,-0.0051246
0.0088277,-0.053657,-0.70257,-0.0038223
0.0007117,-0.04857,-0.67978,-0.0017508
-0.0028069,-0.037685,-0.65698,0.00051768
-0.00097015,-0.021411,-0.64104,0.0027597
0.0057237,-0.011906,-0.63382,0.0040688
0.015032,-0.0096438,-0.62738,0.0038192
0.020125,-0.0039216,-0.61644,0.0026869
0.018758,0.006659,-0.60146,0.0016272
0.017807,0.0087599,-0.58696,0.0011488
0.018327,-0.0020161,-0.57573,0.0011137
0.015595,-0.012567,-0.56382,0.0012067
0.01262,-0.015758,-0.55093,0.0010951
0.010157,-0.014212,-0.53737,0.00020627
0.0064841,-0.0099141,-0.5213,-0.001271
0.0059383,-0.013976,-0.509,-0.002558
0.0078531,-0.030957,-0.50481,-0.0036986
0.005339,-0.041574,-0.4972,-0.0050064
-0.00096522,-0.038875,-0.48002,-0.0056465
-0.0037897,-0.036079,-0.46206,-0.0046346
-0.0020344,-0.038906,-0.44858,-0.0024075
-0.001774,-0.042474,-0.43748,-3.4211e-05
-0.0035397,-0.043543,-0.42569,0.0017332
-0.0028005,-0.041399,-0.41324,0.0024799
0.00057889,-0.033829,-0.40231,0.0024191
0.0057825,-0.022403,-0.39305,0.0021096
0.010065,-0.0092511,-0.38037,0.0017617
0.010418,0.0035849,-0.36004,0.0015683
0.0079939,0.01174,-0.33919,0.0018982
0.0073398,0.01267,-0.3283,0.0022357
0.014174,0.0043621,-0.3277,0.0014591
0.024869,-0.004686,-0.328,-0.00065173
0.031088,0.0043234,-0.31831,-0.0032617
0.033419,0.026208,-0.29983,-0.0049829
0.033381,0.037341,-0.285,-0.0048413
0.028836,0.03352,-0.27787,-0.0032998
0.021605,0.021651,-0.26864,-0.0016195
0.014841,0.0029576,-0.25616,-0.00055021
0.0067587,-0.020902,-0.25016,-0.0001524
-0.0020746,-0.044401,-0.25108,-0.00019466
-0.0070285,-0.058555,-0.25248,-0.0003309
-0.0080022,-0.059075,-0.25023,-0.00048266
-0.0072252,-0.049467,-0.24417,-0.00077407
-0.0043009,-0.035448,-0.2344,-0.0010266
-0.00023833,-0.024187,-0.22112,-0.0010594
-0.00036863,-0.01698,-0.21006,-0.0010163
-0.0045591,-0.0072386,-0.20227,-0.00085935
-0.0079896,0.0039514,-0.19261,-0.00034203
-0.01112,0.0054753,-0.1824,0.00046882
-0.013102,-0.00051547,-0.17294,0.0010722
-0.0077949,0.00038109,-0.16151,0.0010175
0.0067583,0.01282,-0.1459,0.00058144
0.023324,0.031231,-0.12808,1.8045e-06
0.031536,0.043983,-0.11541,-0.00071789
0.028847,0.044612,-0.11158,-0.0011682
0.018115,0.037265,-0.111,-0.0013053
0.0066149,0.024472,-0.10754,-0.0014114
0.0046347,0.010311,-0.10216,-0.001673
0.0080876,0.00076186,-0.099783,-0.0021109
0.0045384,-0.0033501,-0.10112,-0.0022603
-0.0065086,-0.0031508,-0.10188,-0.0019223
-0.016624,-0.0016961,-0.099825,-0.0014251
-0.020739,-0.0018238,-0.095774,-0.00101
-0.02142,0.00059758,-0.089454,-0.00079239
-0.019761,0.0065978,-0.081757,-0.00062606
-0.015275,0.0082129,-0.075479,-0.00015625
-0.014043,0.0035662,-0.069153,0.00062707
-0.01784,-0.0015653,-0.05988,0.0015302
-0.021525,-0.0045792,-0.05015,0.0025255
-0.022927,-0.0060558,-0.042395,0.0032183
-0.021783,-0.0069339,-0.035811,0.0030964
-0.018006,-0.0045823,-0.030222,0.0022094
-0.012478,0.0064676,-0.024064,0.0007954
-0.0050805,0.02266,-0.017984,-0.00086696
0.005953,0.032631,-0.013741,-0.0024198
0.025096,0.032364,-0.0087677,-0.0035851
0.048213,0.027552,-0.00062685,-0.004242
0.05558,0.02163,0.006697,-0.0042927
0.037987,0.013376,0.008852,-0.0036413
0.0099386,0.0038706,0.0075115,-0.0022915
-0.012806,-0.003835,0.005066,-0.00049391
-0.025423,-0.0076698,0.0043043,0.001069
-0.027422,-0.0045883,0.0080927,0.0018772
-0.022394,0.0031703,0.015952,0.0019956
-0.017633,0.0049807,0.023516,0.001722
-0.015042,-0.0024311,0.026813,0.0011414
-0.011546,-0.0093746,0.028868,0.00044807
-0.0073466,-0.0096292,0.033742,7.741e-05
-0.0025935,-0.0046639,0.039135,4.1856e-05
0.0023319,9.5759e-05,0.043518,0.00022098
0.002036,-0.0014321,0.048314,0.00073741
-0.0028394,-0.0087464,0.052512,0.0015518
-0.0057146,-0.017216,0.054645,0.0020202
-0.0049376,-0.020333,0.05641,0.0014675
-0.0024699,-0.017759,0.059084,9.2855e-05
0.00013766,-0.012221,0.061339,-0.0014227
0.0032429,-0.004053,0.063976,-0.0025639
0.0077234,0.004294,0.068315,-0.0029954
0.011102,0.010805,0.070787,-0.0027627
0.010423,0.010274,0.070682,-0.0022198
0.010851,0.003227,0.072477,-0.0015264
0.01851,-0.0026324,0.076894,-0.00067852
0.027381,-0.0068016,0.079647,0.00014165
0.027895,-0.0099639,0.079487,0.00059806
0.022626,-0.010793,0.08171,0.0010196
0.017479,-0.011457,0.086897,0.0017976
0.014506,-0.01361,0.090346,0.0024188
0.012792,-0.016197,0.092168,0.002438
0.007215,-0.019768,0.092454,0.0020407
-0.0023779,-0.022344,0.08994,0.001632
-0.0095674,-0.021388,0.086364,0.0014544
-0.011709,-0.017761,0.084874,0.0012555
-0.01563,-0.012172,0.086211,0.00075786
-0.024377,-0.0083081,0.087001,0.00021615
-0.030282,-0.0089832,0.086141,-0.00022974
-0.030872,-0.01239,0.086426,-0.00063118
-0.030707,-0.013696,0.089322,-0.00085733
-0.029817,-0.01065,0.090821,-0.00085467
-0.024556,-0.0066228,0.089209,-0.00093814
-0.016375,-0.0022323,0.091337,-0.001444
-0.011276,0.0048862,0.097236,-0.0020998
-0.0083779,0.0089688,0.10125,-0.0022568
-0.00092048,0.0036696,0.10891,-0.0015521
0.013792,-0.002579,0.12419,-8.4338e-05
0.034391,0.00244,0.13638,0.0016869
0.054884,0.020972,0.13742,0.0031237
0.063346,0.045554,0.13232,0.0039298
0.051893,0.061763,0.12666,0.004237
0.028065,0.055791,0.12115,0.0042028
0.0068992,0.029559,0.11517,0.0038152
-0.00786,0.0012171,0.11009,0.0030575
-0.019606,-0.01589,0.10926,0.0021036
-0.025987,-0.019811,0.11094,0.001097
-0.0263,-0.015122,0.11154,-0.00012482
-0.025258,-0.0074175,0.11258,-0.0017845
-0.021618,-0.0002539,0.11536,-0.0034515
-0.014436,0.0037898,0.11936,-0.004349
-0.0091469,0.0074689,0.12396,-0.0042704
-0.00616,0.013525,0.12845,-0.0035309
-0.003255,0.018664,0.13266,-0.0024029
-0.0006638,0.020411,0.13667,-0.0010289
0.0021446,0.021536,0.14162,0.0003954
0.0047577,0.023834,0.14633,0.00178
0.0070533,0.026347,0.1484,0.0028239
0.0097517,0.027154,0.14875,0.0031069
0.010567,0.025254,0.14759,0.0028972
0.009192,0.023139,0.14459,0.0027804
0.0085912,0.022217,0.14188,0.0027307
0.009088,0.021297,0.13991,0.0023371
0.0082769,0.020812,0.13855,0.0016729
0.0056762,0.02203,0.13709,0.0013571
0.0033179,0.023554,0.13387,0.0013405
-6.799e-05,0.022269,0.13072,0.00091015
-0.0054688,0.018961,0.12868,-0.00018774
-0.0086967,0.016265,0.12651,-0.00156
-0.0089055,0.011124,0.12504,-0.002531
-0.00913,0.0022819,0.12436,-0.0029746
-0.0098957,-0.0049297,0.12264,-0.0030964
-0.011655,-0.0083578,0.12087,-0.0029152
-0.014226,-0.010444,0.12108,-0.0025591
-0.012702,-0.014983,0.12152,-0.0020797
-0.0080902,-0.019836,0.1203,-0.0014996
-0.0066352,-0.018416,0.12012,-0.0010087
-0.0077421,-0.015497,0.12373,-0.00043805
-0.0063675,-0.017111,0.1278,0.00063226
0.0015257,-0.016353,0.12644,0.0019262
0.010824,-0.0069324,0.11951,0.0024327
0.016488,0.006333,0.11236,0.0018313
0.019812,0.01838,0.10946,0.00097726
0.016955,0.025863,0.10933,0.00057786
0.0062379,0.022539,0.10759,0.00078341
-0.0043709,0.010066,0.10288,0.0013086
-0.0076185,-0.0048873,0.095606,0.00084262
-0.0073082,-0.018778,0.089122,-0.0013915
-0.010777,-0.028211,0.08785,-0.003973
-0.015843,-0.03212,0.089277,-0.0052024
-0.015896,-0.031794,0.090853,-0.0049274
-0.011218,-0.027878,0.093975,-0.003937
-0.006491,-0.022855,0.095548,-0.0029218
-0.0033192,-0.019357,0.093221,-0.002136
-0.0027591,-0.015549,0.092168,-0.0013725
-0.005583,-0.013721,0.093556,-0.00050964
-0.0080481,-0.017281,0.09066,7.6429e-05
-0.005739,-0.015942,0.085704,2.8951e-06
0.0030422,-0.0022608,0.086374,-0.00047213
0.01474,0.0151,0.090757,-0.00070955
0.021018,0.029461,0.097235,-0.0003572
0.019584,0.034823,0.10516,0.00055943
0.01884,0.025323,0.10612,0.0016405
0.024112,0.014627,0.098784,0.0021173
0.027512,0.014769,0.092299,0.0015806
0.023906,0.012315,0.090957,0.00074982
0.018111,-0.0024478,0.093923,0.00034894
0.012997,-0.016903,0.097114,5.9069e-05
0.0088066,-0.019849,0.095663,-0.00065669
0.0063263,-0.015158,0.090597,-0.0015995
0.0047528,-0.0096693,0.085479,-0.0022331
0.0030483,-0.0045487,0.082882,-0.0023897
0.0023017,0.0027216,0.084057,-0.0021615
0.0033067,0.012819,0.090339,-0.0016629
0.004247,0.019912,0.098476,-0.00086848
0.0021455,0.021048,0.1026,8.5356e-05
-0.0016978,0.020059,0.10309,0.00090233
-0.0036576,0.017376,0.1028,0.0015293
-0.0050596,0.012449,0.1029,0.001875
-0.007129,0.0088147,0.10332,0.0019971
-0.0076895,0.009734,0.10542,0.0023642
-0.0054842,0.013294,0.10824,0.003018
-0.0017347,0.015137,0.10816,0.0034307
0.0010864,0.014809,0.1062,0.003142
0.0017335,0.013651,0.10525,0.0022758
0.00074986,0.011916,0.10499,0.0014315
-0.00071339,0.0095256,0.10413,0.0010194
-0.0027748,0.0061568,0.10297,0.0010479
-0.0054813,0.0040463,0.10199,0.0010441
-0.0077809,0.0035437,0.0981,0.00066901
-0.0069177,0.0024573,0.092098,0.00021314
-0.00053281,0.001679,0.089921,-9.1905e-05
0.0077803,0.0013164,0.089196,-0.00031687
0.011427,0.00083246,0.086127,-0.00043855
0.0075326,0.0013695,0.084531,-0.00031143
8.2592e-05,0.0019444,0.085524,0.00025327
-0.0036135,0.0017998,0.084817,0.0013099
-0.003649,0.0020383,0.08198,0.0024023
-0.0058881,0.0016092,0.078619,0.0030075
-0.0094199,-0.00016344,0.075051,0.0030261
-0.011356,-0.0020251,0.071609,0.0024858
-0.013904,-0.0022259,0.069651,0.0016824
-0.016176,-0.00027657,0.071364,0.001172
-0.01493,0.001403,0.073637,0.001124
-0.011309,0.0015372,0.074527,0.0014604
-0.0089998,-0.00093955,0.074844,0.001674
-0.0091053,-0.0073692,0.073696,0.00080494
-0.010187,-0.016254,0.0738,-0.0012148
-0.012367,-0.023498,0.076394,-0.0033679
-0.014843,-0.028869,0.076935,-0.0042805
-0.015909,-0.037698,0.069449,-0.0034898
-0.012916,-0.043586,0.056566,-0.0024275
-0.0055593,-0.038392,0.048803,-0.0022537
-0.00068034,-0.029015,0.047702,-0.0022278
-0.0027411,-0.022757,0.045794,-0.0014883
-0.010044,-0.021039,0.038726,-0.00034498
-0.017278,-0.020479,0.030839,0.0004137
-0.020379,-0.015585,0.028285,0.00063923
-0.022469,-0.0035176,0.033252,0.00063187
-0.022169,0.01233,0.04318,0.00055861
-0.0091101,0.020536,0.047591,0.00065235
0.013942,0.020405,0.043442,0.00087696
0.026486,0.020348,0.040808,0.00094118
0.017788,0.017366,0.044421,0.00088832
-0.00086288,0.0057815,0.049423,0.0010457
-0.012349,-0.015878,0.051251,0.0013912
-0.011718,-0.036941,0.053771,0.00087198
-0.009735,-0.044709,0.061866,-0.001176
-0.016191,-0.043515,0.06806,-0.0034918
-0.028017,-0.038109,0.063959,-0.0045746
-0.039661,-0.026901,0.055059,-0.004231
-0.0455,-0.0069011,0.048276,-0.0030405
-0.038202,0.019519,0.04434,-0.0018835
-0.019067,0.038178,0.044075,-0.0014486
0.0048746,0.041359,0.046455,-0.0015836
0.025062,0.032094,0.047116,-0.0016747
0.034144,0.013317,0.043271,-0.0012517
0.030972,-0.0057148,0.03917,-0.00057928
0.020016,-0.01601,0.037703,-0.00019848
0.011803,-0.01632,0.036029,0.00012819
0.014408,-0.010403,0.036215,0.00065611
0.022789,-0.0024169,0.039971,0.0012364
0.024886,0.0080994,0.044756,0.0018196
0.019702,0.017292,0.049688,0.0024288
0.012099,0.018925,0.051693,0.0030736
0.0024237,0.014867,0.049823,0.0033435
-0.0066105,0.012795,0.047477,0.0027365
-0.0085498,0.016917,0.045995,0.0014806
-0.001682,0.025672,0.046438,-4.3259e-05
0.0062147,0.035432,0.049293,-0.0014684
0.0095931,0.0398,0.052281,-0.0021177
0.0094278,0.03625,0.053011,-0.0018515
0.0085924,0.029264,0.051446,-0.0011142
0.010163,0.021699,0.048808,-0.00036991
0.013316,0.015363,0.04497,9.0975e-05
0.016425,0.013119,0.040602,0.00037228
0.018885,0.012915,0.039408,0.00054645
0.019628,0.012537,0.04114,0.0007804
0.018715,0.012287,0.04046,0.0012993
0.017371,0.009542,0.036606,0.0017001
0.015973,0.0056827,0.033354,0.0017978
0.014804,0.0029222,0.031334,0.0019513
0.011922,0.00043777,0.030226,0.0021078
0.0056332,0.00022236,0.031499,0.002054
0.0015462,0.002261,0.033897,0.0020014
0.0020524,0.0021491,0.03296,0.0021555
0.0049064,-4.5865e-05,0.029091,0.0019654
0.0095358,0.0015011,0.026082,0.00072012
0.011538,0.0079851,0.024499,-0.0011483
0.010979,0.014755,0.023308,-0.0025834
0.013537,0.016949,0.023393,-0.0031317
0.018165,0.013646,0.025498,-0.0028684
0.021569,0.011247,0.027152,-0.0022792
0.020871,0.015879,0.029166,-0.001611
0.01419,0.02233,0.032015,-0.00050331
0.0053216,0.024239,0.03282,0.0010744
-0.0015176,0.022685,0.030374,0.0027276
-0.0058054,0.014749,0.0253,0.00377
-0.0089584,9.8331e-05,0.018567,0.003627
-0.012084,-0.012056,0.011428,0.0026246
-0.014335,-0.017306,0.0076126,0.0015307
-0.016353,-0.016613,0.0077523,0.00051916
-0.019402,-0.012065,0.0071349,-0.00051744
-0.020306,-0.0057844,0.0056875,-0.001183
-0.017535,2.2293e-05,0.0057223,-0.0011083
-0.012598,0.002031,0.0039156,-0.00081069
-0.0074681,-0.0012912,4.28e-05,-0.0009765
-0.0051843,-0.0028412,0.0015439,-0.0015454
-0.0037175,0.0051415,0.0095172,-0.0022599
0.00084876,0.019406,0.018988,-0.0028514
0.0065008,0.032263,0.032532,-0.0028879
0.010945,0.034079,0.050484,-0.0020207
0.014425,0.020178,0.061533,-0.00015987
0.013985,-0.00087717,0.056956,0.0020355
0.0088587,-0.013604,0.041035,0.0033993
0.0027206,-0.011794,0.022572,0.0034204
-0.0026492,-0.0030805,0.0093581,0.0025236
-0.0062032,0.0043318,0.0067665,0.0013974
-0.0064657,0.0076861,0.011673,0.00038792
-0.0048612,0.0071518,0.015139,-0.00035903
-0.0046654,0.0059626,0.013534,-0.00085139
-0.0057026,0.0044372,0.010406,-0.0013218
-0.0070605,0.0021503,0.010345,-0.001536
-0.0090553,0.0010404,0.013085,-0.0012629
-0.01094,0.0019393,0.013846,-0.00087734
-0.011749,0.004245,0.01368,-0.00069889
-0.010775,0.0048904,0.015639,-0.00081433
-0.0088827,0.0035179,0.017217,-0.0012941
-0.0070188,0.0015939,0.017753,-0.0020638
-0.0043196,-0.00019152,0.017483,-0.0027342
-0.0019786,-0.0015619,0.01677,-0.0030877
-0.0013398,-0.0026032,0.018325,-0.0030006
-0.0016192,-0.0032521,0.017574,-0.002107
-0.0011852,-0.0040545,0.010621,-0.00050104
0.002074,-0.0052387,0.0049013,0.0012047
0.0061561,-0.0069705,0.0047359,0.0024916
0.0058334,-0.0088498,0.006145,0.0029446
0.0021638,-0.0092343,0.0062077,0.00239
-0.00014994,-0.0084041,0.0052717,0.0014231
-0.0018042,-0.010505,0.0050467,0.00067635
-0.0049447,-0.015348,0.0055918,0.00022094
-0.0077087,-0.017101,0.0045943,8.9934e-05
-0.007384,-0.015223,0.00185,0.00014039
-0.0063649,-0.013191,0.00047727,9.1475e-05
-0.0087427,-0.013413,0.0015617,6.4689e-05
-0.014267,-0.014755,0.0031583,0.00018793
-0.020575,-0.014875,0.0035903,-0.00015028
-0.023882,-0.016867,0.0015555,-0.0013019
-0.020525,-0.022077,-0.0019565,-0.0027015
-0.01565,-0.026092,-0.0054714,-0.0037448
-0.014464,-0.026607,-0.0089334,-0.0041624
-0.011615,-0.023398,-0.010444,-0.0040047
-0.0036983,-0.012447,-0.010357,-0.0034412
0.0043258,0.0056302,-0.011749,-0.0025676
0.0076218,0.015343,-0.014068,-0.0012774
0.0071305,0.0049073,-0.019001,0.00026803
0.0036165,-0.016821,-0.028825,0.0013328
-0.0025523,-0.033711,-0.03746,0.0015166
-0.0054148,-0.039091,-0.039304,0.0010867
-0.0030845,-0.035032,-0.036739,0.00056158
-0.00071622,-0.025108,-0.033592,0.00035398
-3.9325e-05,-0.015598,-0.031354,0.00067521
0.0015277,-0.0093624,-0.030206,0.0014583
0.0054529,-0.0033527,-0.029677,0.0022609
0.0063697,-0.0023705,-0.030283,0.0026755
-0.00089606,-0.0055071,-0.028369,0.0025953
-0.0087069,-0.0040066,-0.020479,0.002268
-0.01034,-0.0032946,-0.014832,0.0016964
-0.010137,-0.0081249,-0.016448,0.00049621
-0.0077037,-0.0092138,-0.017337,-0.0012115
0.001279,0.00080299,-0.011952,-0.0027723
0.011448,0.012259,-0.0056256,-0.003395
0.01553,0.013475,-0.0045706,-0.0027683
0.01477,0.004828,-0.0064268,-0.0014182
0.012106,-0.0066626,-0.0082569,2.837e-05
0.0078466,-0.013201,-0.010795,0.0014313
0.0031491,-0.012753,-0.013441,0.0024648
0.00039978,-0.00432,-0.015412,0.0023869
-0.00079716,0.0064576,-0.017109,0.0015215
-0.0016064,0.0081135,-0.017953,0.0010415
-0.0018637,0.0017265,-0.018452,0.0011074
-0.0028531,-0.004968,-0.019863,0.0012042
-0.005188,-0.0098077,-0.02095,0.0012053
-0.0079904,-0.012266,-0.020229,0.0013624
-0.0079055,-0.010699,-0.017444,0.0017514
0.00016319,-0.0044366,-0.013452,0.002047
0.012312,0.0031811,-0.010361,0.0020018
0.018022,0.0045836,-0.009819,0.0015591
0.015123,-0.0022423,-0.0093478,0.00075014
0.0089895,-0.010919,-0.0079554,-0.00017957
0.0046286,-0.015225,-0.0070292,-0.00087697
0.0049791,-0.014155,-0.0040928,-0.0011704
0.012634,-0.0082732,-0.0010374,-0.0010271
0.021928,0.0052082,0.00052167,-0.00048273
0.018201,0.02248,0.0049321,0.00036961
0.00043018,0.031816,0.011253,0.0013828
-0.015691,0.030124,0.016018,0.0022843
-0.019272,0.024876,0.018047,0.0029449
-0.015769,0.022004,0.016266,0.0033696
-0.017352,0.02211,0.011472,0.0033855
-0.024648,0.020892,0.0059874,0.0030782
-0.028268,0.013284,0.0021867,0.0024691
-0.023912,0.0055363,0.0028935,0.0011264
-0.016021,0.0063715,0.0056117,-0.0006476
-0.008507,0.01139,0.0050673,-0.001872
4.7478e-05,0.014075,0.0035099,-0.0021764
0.010244,0.01295,0.0052459,-0.001957
0.019121,0.0068562,0.0082104,-0.0017999
0.022386,0.00052901,0.0087829,-0.0017464
0.016612,-0.0020372,0.0060618,-0.0015413
0.0051847,-0.0050821,0.0022429,-0.0013755
-0.0023682,-0.0065245,0.0020653,-0.0012933
-0.0041951,-0.0033533,0.0033046,-0.0010968
-0.0059199,0.00047084,0.0017078,-0.00088518
-0.010149,0.0043741,0.0010116,-0.00077974
-0.014401,0.0088352,0.0036739,-0.00067041
-0.016163,0.011754,0.0062279,-0.00045679
-0.017273,0.01222,0.0065523,-0.00033545
-0.016571,0.013044,0.0061279,-0.00014196
-0.013003,0.015788,0.0095079,0.00072074
-0.0099255,0.015996,0.015922,0.0019586
-0.0051525,0.01076,0.014411,0.0023485
0.003058,0.0073498,0.0045879,0.0010925
0.0067097,0.013583,0.00037268,-0.0010746
0.0022837,0.021695,0.0068631,-0.0023493
-0.005776,0.019841,0.013719,-0.0018006
-0.01463,0.0059508,0.0096647,-0.00042041
-0.02164,-0.013219,-0.0013617,7.5362e-05
-0.02547,-0.025353,-0.0079044,-0.00094814
-0.025989,-0.026842,-0.0086149,-0.0026365
-0.024194,-0.024154,-0.0081395,-0.003841
-0.024446,-0.018285,-0.0086315,-0.0041736
-0.027078,-0.0091795,-0.010569,-0.0038012
-0.028311,-0.0025206,-0.013168,-0.0031796
-0.026622,-0.0011156,-0.016076,-0.0026876
-0.01971,-0.007348,-0.019287,-0.0022581
-0.0097905,-0.017115,-0.019955,-0.001997
-0.0030407,-0.014112,-0.014675,-0.0019741
0.0054019,0.0096136,0.00054821,-0.0014796
0.01899,0.041675,0.021925,-4.9929e-06
0.025978,0.055377,0.034173,0.0022527
0.022628,0.037704,0.030185,0.0045742
0.017228,0.0086423,0.017248,0.0058178
0.01075,-0.01074,0.0045203,0.0052171
0.0020345,-0.018242,-0.0022362,0.0032168
-0.0025002,-0.024528,-0.0038726,0.0013054
0.0006655,-0.036354,-0.0082038,0.00012402
0.0037321,-0.0367,-0.014994,-0.001304
0.00097367,-0.017614,-0.014659,-0.0031252
0.00034411,0.0027057,-0.0051534,-0.0038993
0.0074236,0.011801,0.0047421,-0.0031219
0.010887,0.011375,0.0056884,-0.001631
0.0010472,0.0094826,0.0014672,-0.00033703
-0.010147,0.0036539,-0.0040021,0.00038268
-0.011568,-0.013902,-0.014119,0.00041741
-0.0095527,-0.028207,-0.019745,-0.00038696
-0.0072502,-0.024516,-0.016083,-0.0012904
-0.0029081,-0.013616,-0.012293,-0.0012557
0.003006,-0.0099165,-0.0099689,-0.00022462
0.010831,-0.012768,-0.0068673,0.0012043
0.017838,-0.012553,-0.0033719,0.0024267
0.021733,-0.0047116,-0.00064625,0.0033001
0.023774,0.0058874,0.00017092,0.003894
0.022257,0.012695,0.0019016,0.0042097
0.016463,0.012852,0.002766,0.0043846
0.011609,0.0082205,0.00089443,0.0042177
0.010198,0.0062587,-3.8628e-05,0.003192
0.0091346,0.011653,-0.00025238,0.0015859
0.0078669,0.021325,0.00024537,9.9219e-05
0.0074846,0.028064,0.00038066,-0.0011392
0.0081426,0.027009,-0.0010903,-0.0020268
0.0099592,0.024111,-0.00042106,-0.0023245
0.010387,0.025714,0.0017281,-0.0021654
0.0096145,0.026942,0.0023528,-0.0017721
0.010072,0.019385,0.0020662,-0.0011927
0.0098779,0.0025095,6.8337e-06,-0.00044686
0.009952,-0.012919,-0.0037631,0.00018122
0.012235,-0.018357,-0.0065809,0.00045452
0.015876,-0.016797,-0.0071891,0.00055273
0.022846,-0.014333,-0.0068038,0.00046495
0.029326,-0.013452,-0.0069411,0.00028354
0.025789,-0.013661,-0.0072543,0.00052452
0.01574,-0.013284,-0.0064716,0.001192
0.0094247,-0.010144,-0.0047168,0.0017234
0.004958,-0.0016649,-0.0027581,0.001725
-0.003807,0.011055,0.0010139,0.0013783
-0.014752,0.02281,0.0050229,0.0010693
-0.021514,0.029605,0.0054404,0.00070476
-0.021635,0.027583,0.0058917,1.8468e-06
-0.016685,0.017198,0.0095882,-0.0009599
-0.010546,0.008609,0.013116,-0.0018355
-0.0083781,0.0052269,0.013595,-0.0023129
-0.011,0.0039277,0.011882,-0.0021838
-0.013502,0.0050855,0.01091,-0.0015277
-0.013202,0.0060113,0.010997,-0.00064951
-0.011855,0.0037888,0.0093899,0.00032243
-0.0092883,-0.0012772,0.0057846,0.0010787
-0.0044961,-0.0065159,0.0022327,0.0010148
0.00030848,-0.0094337,0.00033155,0.00023854
0.0025839,-0.010914,-0.0017086,-0.00044349
0.0037975,-0.011991,-0.0051335,-0.00054646
0.0054848,-0.010475,-0.0067715,-0.00020133
0.0065299,-0.0057144,-0.0070651,0.00018504
0.0075252,-0.00078645,-0.0068686,0.0002827
0.0066048,0.0038513,-0.0047265,0.00027796
0.0013073,0.0089629,-0.0018763,0.00057121
-0.0034515,0.010265,0.0023409,0.0010075
-0.0035037,0.0052509,0.0056383,0.0011701
-0.0010098,-0.0037818,0.0015831,0.00063205
-0.0011554,-0.01575,-0.0084448,-0.00083095
-0.0071375,-0.020522,-0.016516,-0.0028195
-0.014405,-0.0073242,-0.014636,-0.0042071
-0.017073,0.0099034,-0.0029669,-0.0039152
-0.017812,0.014795,0.0073861,-0.0020879
-0.021693,0.0097228,0.007874,0.00030805
-0.02486,0.0020244,0.00117,0.0021571
-0.019771,-0.0017304,-0.0041843,0.0025177
-0.0084241,-0.0016776,-0.0044558,0.0017322
-0.0026572,-0.0041075,-0.0055699,0.0009959
-0.0070473,-0.010215,-0.010826,0.00086832
-0.014049,-0.016684,-0.014869,0.001167
-0.018352,-0.022129,-0.016227,0.0014039
-0.016097,-0.026748,-0.017701,0.001119
-0.0087492,-0.029195,-0.018751,0.00031513
-0.0029346,-0.027902,-0.018081,-0.00050506
0.0018033,-0.021682,-0.017326,-0.00082642
0.007042,-0.012005,-0.018331,-0.00063627
0.013259,-0.003267,-0.01914,-0.00068107
0.016817,0.0019748,-0.018705,-0.0014314
0.010915,0.0042184,-0.01766,-0.0024131
-0.0019532,0.0049552,-0.015709,-0.0030943
-0.01267,0.0070547,-0.012924,-0.0031837
-0.018018,0.011351,-0.012136,-0.0025465
-0.022141,0.014344,-0.016471,-0.0016199
-0.023028,0.013562,-0.020522,-0.00099507
-0.019255,0.013344,-0.017942,-0.00041198
-0.014111,0.021913,-0.012287,0.00055287
-0.0046411,0.033156,-0.0097221,0.0014714
0.0072416,0.031277,-0.00985,0.0018733
0.014728,0.015605,-0.011782,0.0019146
0.015229,-0.0013418,-0.014167,0.0018302
0.0097311,-0.010557,-0.011961,0.0015599
0.0029775,-0.012653,-0.0076294,0.0011179
0.00199,-0.011892,-0.0053756,0.00088724
0.008247,-0.0083416,-0.00099648,0.0011744
0.013833,-0.0024191,0.0057077,0.0015959
0.01224,0.0032065,0.0090874,0.0015866
0.0054467,0.0062173,0.0064123,0.0011944
-0.0016344,0.006735,0.0016692,0.00050082
-0.0066809,0.0074339,-1.967e-05,-0.0005996
-0.010231,0.0080694,0.0001082,-0.0017955
-0.012375,0.0074261,-0.00069347,-0.0025563
-0.012136,0.0063109,-0.0026295,-0.002678
-0.0095944,0.0052426,-0.0036962,-0.0024517
-0.0065658,0.0040936,-0.0036521,-0.0021647
-0.0024402,0.0041741,-0.0021838,-0.0017326
0.0039294,0.0055227,0.0008841,-0.0010767
0.0067582,0.0060425,0.0029744,-0.00010305
0.0018717,0.0053168,0.0036804,0.001268
-0.005411,0.0052541,0.0028107,0.0026105
-0.0057587,0.0050086,-5.4251e-06,0.0033291
-0.00028746,0.0031619,-0.0018236,0.0033456
0.0011083,-0.00055601,-0.00023904,0.0031339
-0.0013218,-0.0052649,0.0049579,0.0031026
-0.002702,-0.0078516,0.01026,0.0030914
-0.0029588,-0.0089523,0.011667,0.002883
-0.0035685,-0.010991,0.010505,0.0023817
-0.0053219,-0.012815,0.01021,0.0013576
-0.005744,-0.010025,0.011047,-6.9446e-05
-0.0043214,-0.0038374,0.010785,-0.0013676
-0.0024745,0.0010354,0.0076773,-0.0021518
-0.0017739,0.005624,0.0024879,-0.002591
-0.004844,0.0088276,-0.0027833,-0.002903
-0.010441,0.0061994,-0.0068679,-0.0028613
-0.01345,-0.0018401,-0.0074081,-0.0023479
-0.0081563,-0.00826,-0.0054239,-0.0015808
0.0027714,-0.0063581,-0.0052819,-0.00089244
0.011779,0.0046819,-0.0068357,-0.00058498
0.016077,0.015632,-0.0066518,-0.00055287
0.015682,0.014548,-0.0070241,-0.00012658
0.01126,0.0081167,-0.0094485,0.00086573
0.0012485,0.0068425,-0.0090371,0.0018145
-0.010531,0.0052257,-0.0065366,0.0022815
-0.015645,-0.00054813,-0.0031252,0.0021989
-0.011754,-0.0033641,0.0051544,0.0020759
-0.0011299,-0.0012177,0.013768,0.00237
0.0080687,0.00019443,0.016234,0.0025466
0.0085429,0.0010396,0.014512,0.0019084
0.0051401,0.00304,0.012453,0.00052275
0.0029054,0.0028457,0.011777,-0.00085694
-0.00042445,-0.00032002,0.012388,-0.0017182
-0.0025781,-0.0029296,0.0086427,-0.0023333
0.00074474,-0.0039579,-0.0050573,-0.0031617
0.005763,-0.0027907,-0.018994,-0.0042256
0.0074307,0.0020564,-0.022402,-0.0047707
0.0065017,0.0070223,-0.020544,-0.0039881
0.0054156,0.0079118,-0.019292,-0.0022413
0.0068365,0.0052632,-0.016939,-0.00035601
0.012266,0.0024555,-0.013856,0.001407
0.017688,0.0024389,-0.012224,0.0029273
0.018823,0.0034816,-0.012884,0.004039
0.017371,0.0015758,-0.014489,0.0045131
0.014024,-0.001714,-0.014601,0.0040942
0.0092792,-0.0034891,-0.013258,0.0029987
0.0065416,-0.0037287,-0.010881,0.0018293
0.0033227,-0.00088344,-0.008608,0.0010122
-0.0030617,0.001757,-0.0081287,0.00041622
-0.0098508,-0.00068496,-0.0083284,-0.00055184
-0.013507,-0.0049954,-0.0088757,-0.00198
-0.013023,-0.0070481,-0.010412,-0.0032075
-0.011888,-0.0066149,-0.011234,-0.0039227
-0.012436,-0.003917,-0.0105,-0.0041614
-0.011191,-0.00087691,-0.010596,-0.003917
-0.0037046,0.0022153,-0.010872,-0.0035458
0.0073282,0.0061718,-0.0099231,-0.0031055
0.014173,0.0055615,-0.0099792,-0.0019243
0.014884,-4.604e-05,-0.010833,0.00019194
0.013166,-0.0080672,-0.013776,0.0023854
0.01022,-0.019764,-0.018929,0.0037653
0.0059007,-0.030327,-0.02074,0.0041016
0.0023748,-0.034212,-0.017542,0.0035696
0.00090025,-0.033671,-0.012946,0.0027254
0.0022002,-0.033091,-0.011917,0.0020538
0.006796,-0.031692,-0.014531,0.0014777
0.010582,-0.029955,-0.015755,0.00092661
0.0092467,-0.033137,-0.016678,0.00025724
0.0043258,-0.038212,-0.017533,-0.00081615
0.002248,-0.032638,-0.014499,-0.0020293
0.0020682,-0.015677,-0.01041,-0.0028103
-0.0051233,-0.0048959,-0.0090564,-0.0028559
-0.019795,-0.011031,-0.010508,-0.0024706
-0.033023,-0.023878,-0.013587,-0.00221
-0.034262,-0.030574,-0.015707,-0.0021152
-0.023586,-0.031727,-0.017722,-0.0019228
-0.0094986,-0.027717,-0.016938,-0.001567
0.0030093,-0.010946,-0.0069951,-0.0010438
0.011014,0.013761,0.0068224,5.9937e-06
0.016769,0.031875,0.018353,0.0017284
0.02445,0.039991,0.025542,0.0032041
0.031939,0.045017,0.023988,0.0034522
0.033502,0.0539,0.017641,0.0027408
0.027401,0.058493,0.01576,0.0020724
0.017968,0.042052,0.017122,0.0020148
0.010507,0.010952,0.014328,0.0022504
0.0071898,-0.01357,0.0065762,0.0022302
0.0054901,-0.025435,-0.0008128,0.001795
0.0043926,-0.027609,-0.0044389,0.00085963
0.0034473,-0.022819,-0.0054059,-0.0007001
-0.0025139,-0.016467,-0.0042495,-0.0024259
-0.011241,-0.010513,-0.0011778,-0.0033582
-0.014152,-0.0052481,0.00052145,-0.0030459
-0.0094196,-0.0020841,0.0010942,-0.0018739
0.0023236,0.0018418,0.0042332,-0.0005151
0.014826,0.0076559,0.010131,0.00060124
0.016958,0.012669,0.016392,0.0015103
0.0097275,0.017747,0.019727,0.0023885
0.0048642,0.025004,0.019743,0.002911
0.0076876,0.034475,0.02062,0.0027869
0.010347,0.041814,0.023985,0.0024323
0.0069784,0.039886,0.026006,0.0022
0.0017733,0.030678,0.025953,0.0018619
-0.00065399,0.023937,0.02724,0.0013083
0.00033931,0.024477,0.029596,0.00070028
0.00090853,0.028437,0.031789,0.00040297
-0.0016051,0.033252,0.034731,0.00083929
-0.0022696,0.039791,0.036498,0.0015009
0.00088664,0.041561,0.034262,0.0016154
0.0032812,0.030612,0.026788,0.0010151
0.0025316,0.013297,0.016205,-0.00013294
-0.0016962,0.0023073,0.0094851,-0.0011165
-0.0061507,6.0178e-05,0.010555,-0.0014791
-0.0071781,0.00020026,0.013972,-0.0015163
-0.0067752,-0.0051411,0.010988,-0.0017004
-0.0085826,-0.010861,0.0056345,-0.0025568
-0.011333,-0.0074395,0.0075643,-0.0038302
-0.0096146,-0.00092407,0.012215,-0.004303
-0.0031848,0.00092858,0.012233,-0.0033274
0.0015933,0.00061904,0.0099687,-0.0013573
0.0014687,0.003174,0.0086535,0.00063773
-0.00045176,0.0078959,0.0067418,0.0017797
-0.0024093,0.015757,0.0061676,0.0021022
-0.0058207,0.025392,0.0096802,0.0023912
-0.0073867,0.020662,0.0084465,0.0028487
-0.0041997,0.00088696,-0.00098826,0.0026149
-0.00051609,-0.010603,-0.0067989,0.0012166
0.00041296,-0.0060856,-0.003324,-0.0002518
0.0013737,0.0026277,0.0015393,-0.00059422
0.0042353,0.0070994,0.0021735,-0.00046692
0.0033862,0.0034314,0.00050549,-0.0010444
-0.0043801,-0.0066894,-0.0029031,-0.0021235
-0.014772,-0.013456,-0.0069822,-0.0031017
-0.024235,-0.0139,-0.0090144,-0.0036836
-0.029723,-0.013655,-0.0091307,-0.0037019
-0.030454,-0.011709,-0.010048,-0.0033954
-0.031479,-0.0054191,-0.013945,-0.0030346
-0.035499,-0.0010952,-0.018984,-0.0024524
-0.039692,-0.0019965,-0.022009,-0.0016606
-0.040085,-0.006077,-0.023886,-0.0010622
-0.036286,-0.012204,-0.02513,-0.00055486
-0.03062,-0.015576,-0.025327,9.972e-05
-0.021799,-0.015787,-0.026461,0.00053614
-0.0073576,-0.015544,-0.029508,0.00050843
0.011634,-0.0076396,-0.033239,0.00023885
0.02542,0.0090629,-0.033467,-9.5757e-05
0.026892,0.022434,-0.027299,-0.00042103
0.026311,0.02275,-0.01639,-0.00042833
0.030883,0.0068291,-0.0039718,0.00023322
0.03312,-0.018592,0.002827,0.0013214
0.02694,-0.033097,0.00014287,0.0019631
0.015568,-0.021988,-0.0041203,0.0017702
0.0042721,0.0029052,-0.0035509,0.0012743
-0.0034518,0.021028,-0.001608,0.00086142
-0.0061802,0.023346,-0.0049336,0.00037698
-0.0082948,0.012831,-0.013637,-0.00038259
-0.01276,0.00020273,-0.020055,-0.0013447
-0.016551,-0.0069165,-0.021716,-0.0022759
-0.018208,-0.0077242,-0.022119,-0.0029458
-0.01816,-0.0058012,-0.021253,-0.0031146
-0.014733,-0.0041179,-0.018265,-0.0028389
-0.0076696,-0.0018183,-0.015264,-0.0025041
-0.00088966,0.00081699,-0.013182,-0.0020606
0.0027833,0.0022392,-0.010757,-0.00091606
0.0048331,0.0030473,-0.0067557,0.00087063
0.0061918,0.004129,-0.0023018,0.0025859
0.0080573,0.0036837,0.00024746,0.0038182
0.012641,0.00063113,0.0020918,0.0045916
0.017958,-0.0021378,0.0039125,0.0049025
0.022248,-0.0026222,0.0045954,0.0042802
0.024317,-0.003341,0.0040117,0.0027491
0.021909,-0.0048583,0.0045623,0.0011478
0.018119,-0.0059456,0.007297,-0.00014564
0.017159,-0.0075653,0.0097146,-0.0010444
0.020379,-0.0088439,0.012443,-0.0015096
0.027321,-0.010021,0.016272,-0.0016397
0.030776,-0.011663,0.018295,-0.0012692
0.02421,-0.011117,0.015978,-0.00056807
0.013861,-0.0054443,0.012345,-4.9213e-05
0.0090489,0.005319,0.01076,-8.6292e-05
0.0093741,0.01629,0.009786,-0.00043363
0.0088569,0.021656,0.0083981,-0.00023856
0.0052939,0.018111,0.0076137,0.00070472
0.0012549,0.0071784,0.0074273,0.0018013
3.8749e-05,-0.006917,0.00628,0.0023158
0.0022353,-0.017544,0.0044913,0.0020164
0.0055054,-0.018239,0.0043949,0.0015737
0.0086778,-0.011397,0.0073272,0.0014013
0.011268,-0.0032213,0.012242,0.0011216
0.010291,0.00057195,0.015997,0.00068959
0.0080172,-0.00043711,0.015945,0.0001907
0.0087535,-0.0011545,0.012987,-0.00051565
0.0079744,-0.0047916,0.0082949,-0.0010778
0.0044347,-0.016687,0.0018176,-0.0011686
0.0011054,-0.028389,-0.0032162,-0.0011716
-0.0019495,-0.029065,-0.0030579,-0.0014143
-0.0029221,-0.023334,0.0023737,-0.0015654
-0.0017929,-0.020736,0.0078688,-0.0012657
-0.0018927,-0.021315,0.008378,-0.00064689
-0.0051764,-0.021589,0.0065125,3.7942e-06
-0.0084399,-0.018286,0.0063868,0.00052333
-0.0052232,-0.011494,0.0091169,0.00089133
0.003942,-0.0069198,0.015793,0.001327
0.010012,-0.0059537,0.0233,0.0019963
0.0080388,-0.0035222,0.023947,0.002508
0.0056452,0.0050274,0.021213,0.0023772
0.010402,0.0217,0.024713,0.001867
0.018252,0.041149,0.032817,0.0017165
0.022086,0.051167,0.037526,0.002099
0.01917,0.04628,0.034325,0.0024124
0.010837,0.031249,0.027491,0.0019836
-0.00070385,0.014333,0.021201,0.00054267
-0.008017,-0.002667,0.011717,-0.0015344
-0.002089,-0.022499,-0.00077555,-0.0038247
0.0077816,-0.03331,-0.0061553,-0.0060871
0.0066229,-0.026299,0.00077932,-0.0072471
-0.00056051,-0.013845,0.0098256,-0.0062355
-0.0066208,-0.0069442,0.009164,-0.0035477
-0.014755,-0.0068626,0.0024302,-0.00069361
-0.0207,-0.0071382,-0.00012121,0.0011472
-0.017146,-0.0014226,0.00258,0.0019277
-0.0052718,0.0078241,0.0074736,0.0024259
0.0074691,0.014879,0.011,0.0030564
0.01179,0.016168,0.010723,0.0036208
0.0081512,0.011758,0.0077605,0.0037521
0.0026679,0.0052186,0.003957,0.0031597
-0.0040659,-0.00057178,0.0022904,0.0021296
-0.011314,-0.0039829,0.001813,0.0012258
-0.01492,-0.0027441,9.9065e-05,0.00033379
-0.013201,0.00082105,-0.0015717,-0.00094791
-0.0090699,0.0046251,-0.0020862,-0.0025303
-0.0049798,0.012917,-0.0013188,-0.0040461
-0.0039483,0.024705,-0.0023578,-0.0050222
-0.0066667,0.031365,-0.0045125,-0.0052033
-0.0063163,0.031696,-0.0034484,-0.0044924
-0.00038613,0.030831,-0.00085622,-0.0029519
0.007197,0.026145,0.00056343,-0.0012692
0.014208,0.014484,0.0015324,1.1157e-05
0.017387,0.001764,0.0010037,0.00087869
0.014519,-0.0083436,-0.0061665,0.0013267
0.0090972,-0.016841,-0.018409,0.0011976
0.0066549,-0.024158,-0.026807,0.00052757
0.0060365,-0.031245,-0.029064,-0.00029699
0.0010504,-0.035402,-0.029117,-0.00065513
-0.0076628,-0.033007,-0.026201,-0.00017395
-0.012796,-0.027901,-0.020737,0.00074847
-0.01281,-0.027224,-0.020329,0.0013948
-0.0141,-0.031157,-0.024984,0.0010439
-0.016735,-0.030393,-0.027304,-0.00018158
-0.015618,-0.02225,-0.025985,-0.0014205
-0.0088916,-0.012422,-0.02253,-0.0023279
0.0010685,-0.00041066,-0.019087,-0.0029154
0.0071291,0.016097,-0.015521,-0.003298
0.0065817,0.02909,-0.010736,-0.0035251
0.0030014,0.03114,-0.0061823,-0.0032948
-0.00010155,0.033077,-0.0014211,-0.0022018
-0.0022728,0.042551,0.0021253,-0.00029491
-0.002901,0.044605,0.00095411,0.0017051
-0.0013843,0.028743,-0.0039296,0.0031049
0.00077198,0.0069345,-0.0078453,0.0036143
0.0045169,-0.0077628,-0.010364,0.003178
0.0084595,-0.014729,-0.012545,0.0023607
0.010834,-0.018403,-0.013882,0.0018487
0.013433,-0.019982,-0.014463,0.0016153
0.014025,-0.020314,-0.01421,0.0012708
0.0082364,-0.022709,-0.013555,0.00091747
-0.0018486,-0.026038,-0.010925,0.0011112
-0.0087367,-0.025903,-0.0054218,0.0016659
-0.011612,-0.021944,-0.0020331,0.0019338
-0.015075,-0.0184,-0.0041026,0.0017319
-0.018282,-0.018238,-0.0075194,0.00099166
-0.02079,-0.016828,-0.008581,-0.00016011
-0.023043,-0.011866,-0.0089148,-0.001225
-0.022102,-0.0087808,-0.0096053,-0.0018232
-0.01579,-0.0082868,-0.0091943,-0.0017919
-0.0022853,-0.0030478,-0.004464,-0.0013212
0.013768,0.011854,0.0030967,-0.00095463
0.023371,0.029602,0.0070784,-0.00076116
0.025869,0.04018,0.0081214,-0.00015626
0.024602,0.041359,0.010788,0.0011204
0.021213,0.033077,0.015496,0.0028513
0.015512,0.017138,0.018229,0.0047357
0.010147,0.0066252,0.016395,0.0061127
0.010278,0.0096368,0.012121,0.0062145
0.014283,0.01802,0.010084,0.0049707
0.015359,0.02223,0.011307,0.0032664
0.0086698,0.019729,0.012851,0.0021515
-0.0013549,0.014121,0.014139,0.0019257
-0.0058611,0.0094426,0.014436,0.0020419
-0.0048622,0.006735,0.012963,0.0015651
-0.0054467,0.001818,0.010256,0.00025927
-0.0094174,-0.0072056,0.0063692,-0.0013366
-0.013639,-0.012237,0.0025999,-0.0028708
-0.015727,-0.011102,0.00081387,-0.0040186
-0.01246,-0.011149,0.00093395,-0.0044173
-0.004402,-0.01685,0.0025767,-0.0040221
0.0029282,-0.026603,0.0048704,-0.003143
0.0057562,-0.032902,0.0060725,-0.0021588
0.0066712,-0.031325,0.006713,-0.0012415
0.0093652,-0.025169,0.0072494,-0.00059118
0.014895,-0.017526,0.0080567,-0.00022997
0.023413,-0.007459,0.010353,0.00016653
0.029771,0.0064126,0.013277,0.00093073
0.028529,0.017564,0.016213,0.0018754
0.020849,0.018066,0.016773,0.0025921
0.012433,0.011385,0.01354,0.0029891
0.010749,0.0063104,0.012143,0.002956
0.014475,0.0075638,0.015794,0.0023613
0.015879,0.015788,0.021578,0.0011852
0.016776,0.030504,0.026181,-0.00025518
0.021299,0.04986,0.028313,-0.0014682
0.021484,0.069505,0.030433,-0.0022704
0.0092577,0.074898,0.030754,-0.0025542
-0.0072034,0.054298,0.022927,-0.0023605
-0.017992,0.017039,0.0092054,-0.0020476
-0.024097,-0.018949,-0.0010738,-0.0020579
-0.026856,-0.039484,-0.0029318,-0.0026239
-0.023382,-0.041364,-0.0011674,-0.0032594
-0.014818,-0.031032,-0.0022868,-0.0033381
-0.0082204,-0.015595,-0.005523,-0.0028669
-0.0069649,-0.0032215,-0.0062062,-0.0018087
-0.00771,0.0022071,-0.00348,-0.00012384
-0.0076673,0.0058174,-0.00077108,0.0017246
-0.0072767,0.0091918,-0.0010698,0.0031081
-0.0063235,0.010668,-0.0043467,0.0034307
-0.0042268,0.011869,-0.0076766,0.0025714
-0.0026401,0.01458,-0.00651,0.0011013
-0.0028331,0.016742,-0.0018154,6.3491e-06
-0.0028586,0.013782,-0.0037766,-0.00042042
-0.00044212,0.0098769,-0.012269,-0.0015846
0.0030211,0.0098237,-0.013517,-0.0043267
0.004301,0.0085406,-0.0027564,-0.007102
0.0055475,0.0054149,0.0095048,-0.0078671
0.0074478,0.0050222,0.012482,-0.0060503
0.0049996,0.0076097,0.0077449,-0.0031146
-3.4335e-05,0.01301,0.0038722,-0.00098682
-0.002031,0.019174,0.0057313,0.00037875
-0.0027425,0.02178,0.0077702,0.0023823
-0.00477,0.020951,0.0029621,0.0050167
-0.0064048,0.019323,-0.0051146,0.0063307
-0.0073519,0.018316,-0.010529,0.0053189
-0.0064883,0.017217,-0.011779,0.0032065
-0.002451,0.014594,-0.011671,0.0012394
0.00098269,0.01106,-0.01165,-0.00031128
-0.00015059,0.0065326,-0.010596,-0.0012658
-0.0070808,0.00071363,-0.0094582,-0.0015148
-0.014632,-0.0045062,-0.0084482,-0.0012945
-0.015009,-0.0067883,-0.0071753,-0.00088179
-0.013052,-0.0071092,-0.0050866,-0.00070024
-0.013005,-0.0078233,-0.0030483,-0.0011726
-0.011061,-0.010319,-0.0027222,-0.0020456
-0.010074,-0.014264,-0.0027228,-0.002688
-0.014175,-0.017768,-0.0014864,-0.0028448
-0.019372,-0.02493,-0.0013836,-0.0025432
-0.022284,-0.035447,-0.0024962,-0.0018438
-0.026865,-0.041145,-0.0022961,-0.00092077
-0.031596,-0.042187,-0.0019555,8.8693e-05
-0.029378,-0.042884,-0.003066,0.00093051
-0.021434,-0.043105,-0.0039357,0.0012317
-0.010838,-0.042928,-0.0021497,0.0013652
0.00052639,-0.040916,0.00058745,0.0020014
0.0055924,-0.031074,0.0015345,0.0030105
0.0020126,-0.015109,0.001673,0.0039794
-0.0014214,-0.0051514,0.00074372,0.0046851
0.0028616,0.0015344,-0.0012882,0.0047524
0.016635,0.018561,0.00089884,0.0038507
0.0334,0.034394,0.0066282,0.0023122
0.035922,0.02769,0.0075341,0.0009071
0.018705,0.0068495,0.0025295,8.6698e-05
-0.0030723,-0.0067915,-0.00064515,-0.00019168
-0.01428,-0.011777,0.0032087,-0.00010081
-0.012568,-0.013029,0.0098034,-4.501e-05
-0.0049241,-0.0061697,0.013566,-0.00042231
0.0047772,0.00928,0.016424,-0.00078353
0.013675,0.018313,0.017234,-0.0006629
0.015444,0.010847,0.01196,-0.00046337
0.011064,-0.0025565,0.0041884,-0.00045551
0.0037509,-0.01377,-0.0024034,-0.00023698
-0.0033549,-0.021377,-0.0070334,0.00051737
-0.0042331,-0.021856,-0.008542,0.0013986
0.00035421,-0.015023,-0.0066636,0.001824
0.0043128,-0.0059292,-0.0039063,0.0019203
0.0080425,0.00093216,-0.0042149,0.0017562
0.012483,0.0073031,-0.0057354,0.0011227
0.015514,0.012982,-0.0060253,0.00059108
0.017404,0.016961,-0.0055692,0.00084735
0.018229,0.021657,-0.0048432,0.0015973
0.01837,0.027526,-0.0052842,0.0019858
0.018262,0.032282,-0.0048755,0.0015325
0.018629,0.032752,-0.0034713,0.00059934
0.018835,0.028902,-0.0055116,-0.00022305
0.016247,0.023072,-0.010574,-0.0010663
0.011272,0.017833,-0.012435,-0.0021749
0.0096164,0.016065,-0.0091558,-0.0031568
0.010681,0.01882,-0.005538,-0.0035022
0.0087033,0.024468,0.00014271,-0.0029737
0.0078423,0.023936,0.0092162,-0.001653
0.01347,0.0061714,0.0078986,-0.00023154
0.022151,-0.014491,-0.0047638,2.7763e-05
0.025884,-0.016004,-0.012072,-0.00091454
0.018575,-0.0067731,-0.011098,-0.0015757
0.0048307,-0.0052471,-0.010464,-0.0013019
-0.0074936,-0.011302,-0.011312,-0.00046509
-0.015412,-0.018582,-0.010648,0.00064256
-0.019782,-0.026892,-0.010378,0.0016086
-0.02377,-0.035174,-0.013097,0.0019257
-0.026272,-0.039795,-0.017019,0.0013675
-0.025954,-0.033869,-0.015733,0.0001857
-0.024485,-0.016388,-0.010239,-0.0011979
-0.020292,0.00096298,-0.0074681,-0.0025926
-0.009031,0.011526,-0.0035828,-0.0034713
0.0074309,0.018211,0.0019868,-0.0033735
0.021973,0.024796,0.0018467,-0.0027215
0.029571,0.034518,-3.2771e-05,-0.0018749
0.024594,0.044151,0.00044349,-0.00074917
0.010018,0.045044,0.0012579,0.00040106
-0.00059709,0.030042,0.0027166,0.0012189
-0.0053246,0.0019988,0.0046075,0.0017124
-0.0093534,-0.023891,0.0039485,0.0019167
-0.014716,-0.038204,0.0020179,0.0015655
-0.019445,-0.044261,0.0032262,0.00059682
-0.018402,-0.041201,0.0088728,-8.9071e-05
-0.013541,-0.029752,0.016016,0.00039243
-0.011058,-0.023247,0.016626,0.0016287
-0.0097365,-0.028143,0.011267,0.0025133
-0.0076162,-0.033709,0.0071896,0.0025678
-0.0085094,-0.028851,0.0036112,0.0021826
-0.011417,-0.016698,-0.00073483,0.0016081
-0.011382,-0.0055688,-0.0036254,0.00067126
-0.010242,0.0038411,-0.0036984,-0.00051633
-0.011724,0.014429,-7.1964e-05,-0.0015538
-0.011352,0.02767,0.0070801,-0.0021555
-0.002969,0.040964,0.014709,-0.0022232
0.0093998,0.04556,0.019383,-0.0018342
0.016018,0.04151,0.022209,-0.0010307
0.018333,0.038722,0.023884,0.00017984
0.020906,0.037328,0.023593,0.0014627
0.020198,0.031153,0.02014,0.0022107
0.01623,0.022495,0.014332,0.002226
0.012591,0.019417,0.010783,0.0020613
0.0068454,0.02545,0.010234,0.0022927
0.0027392,0.030489,0.0093335,0.0027057
0.0048873,0.021483,0.0075345,0.0026115
0.0057234,0.0042173,0.0074356,0.0018029
0.0022817,-0.0058647,0.011801,0.00085136
-0.0018518,-0.007804,0.017168,0.00049805
-0.0037718,-0.0082498,0.018178,0.00073899
-0.0044833,-0.0051613,0.016861,0.00086735
-0.0066253,0.001233,0.015352,0.00064519
-0.0082122,0.0046099,0.01219,7.6652e-05
-0.0083516,0.0045568,0.0074714,-0.00097773
-0.0092381,0.0047602,0.0042844,-0.002261
-0.01069,0.0061713,0.0034073,-0.0034558
-0.010498,0.00727,0.0030723,-0.0041203
-0.0088861,0.0075811,0.0044797,-0.0037449
-0.0083649,0.0089285,0.0073193,-0.0025124
-0.008455,0.010258,0.0088242,-0.0010926
-0.0081886,0.0095073,0.0097054,0.00014505
-0.0076044,0.007633,0.0096825,0.0012323
-0.0049427,0.0062231,0.0062055,0.0019235
-0.0026011,0.0049229,-0.0013892,0.0014694
-0.003862,0.0042071,-0.0073623,-0.00021188
-0.0057064,0.0046809,-0.0080973,-0.001864
-0.0056356,0.0028658,-0.0082391,-0.0023707
-0.0052592,-0.0031893,-0.011394,-0.0021812
-0.0060818,-0.011972,-0.01508,-0.002178
-0.0088063,-0.022477,-0.013587,-0.0019602
-0.012599,-0.033453,-0.010067,-0.00077869
-0.014571,-0.040323,-0.009821,0.00064981
-0.014532,-0.038481,-0.010899,0.001085
-0.014027,-0.030058,-0.011855,0.00038306
-0.015032,-0.018865,-0.010435,-0.0007246
-0.015874,-0.0096663,-0.0061905,-0.0013703
-0.015039,-0.0096549,-0.0045741,-0.001471
-0.015772,-0.011074,-0.0052758,-0.001661
-0.015223,-0.0032644,-0.0036558,-0.0020341
-0.010736,0.0057248,-0.0012526,-0.0021398
-0.0053044,0.011757,0.0019605,-0.0017604
0.0033712,0.014645,0.0043253,-0.00064265
0.01337,0.0095568,-0.0022276,0.00096027
0.013276,0.0073285,-0.013062,0.0015973
0.0054895,0.01083,-0.018333,0.00071572
0.00060227,0.0052134,-0.019677,-0.00037135
-0.0014107,-0.0070104,-0.021649,-0.00051748
-0.0055115,-0.014087,-0.024741,2.4497e-05
-0.013933,-0.016437,-0.027934,0.00037615
-0.0246,-0.017922,-0.030385,0.00017529
-0.033026,-0.016687,-0.029522,-0.00027352
-0.03422,-0.01307,-0.026494,-0.00053417
-0.023467,-0.008814,-0.024061,-0.00075833
-0.0019944,0.0027365,-0.017482,-0.0012696
0.019994,0.022226,-0.0061717,-0.0016773
0.028039,0.030792,-0.0019817,-0.0015418
0.01878,0.019657,-0.0064819,-0.0011031
0.0064853,0.0073332,-0.0089988,-0.00066405
0.0016569,0.0045515,-0.0075413,-4.3921e-05
0.0032966,0.0032525,-0.0049712,0.00092735
0.0055319,-5.0899e-05,-0.0029044,0.0020742
0.0070065,-0.0032371,-0.0030591,0.0030868
0.013517,-0.003712,-0.0029805,0.0034379
0.020112,0.0014534,0.0010005,0.0029662
0.016975,0.010703,0.0065196,0.0024068
0.012529,0.017865,0.010016,0.0023253
0.014373,0.019817,0.013229,0.0023874
0.013517,0.019746,0.015433,0.0020745
0.0080908,0.020402,0.015544,0.0014192
0.0053842,0.021461,0.016152,0.00097979
0.0058201,0.022402,0.016864,0.0011397
0.0053426,0.020462,0.016502,0.0014687
0.0043124,0.013877,0.014503,0.0012099
0.0054174,0.0077247,0.012009,0.00026993
0.0078734,0.005643,0.010122,-0.00087056
0.01045,0.0073093,0.0092199,-0.0018237
0.012808,0.011474,0.011041,-0.0022026
0.012888,0.013484,0.014733,-0.0017684
0.012062,0.0095522,0.016461,-0.00074609
0.011542,0.0033753,0.015465,0.00052689
0.0105,0.00031498,0.01444,0.0016807
0.011601,0.00086365,0.014883,0.0021914
0.014186,0.0020724,0.015827,0.0021351
0.014841,0.0017452,0.016019,0.0021908
0.013192,0.00034721,0.017255,0.002348
0.0097582,-0.0014498,0.019149,0.0023306
0.0057831,-0.003809,0.017783,0.0024184
0.0020781,-0.0070008,0.014899,0.0025643
-0.0018917,-0.0094108,0.014953,0.0023965
-0.0053136,-0.0099219,0.018103,0.0019819
-0.0066549,-0.010466,0.02389,0.0017616
-0.0045333,-0.01368,0.027559,0.0017922
0.0023833,-0.017748,0.022322,0.0012339
0.011261,-0.016794,0.012392,-0.00039753
0.014155,-0.011938,0.0049789,-0.002454
0.007443,-0.0089557,0.001358,-0.0040265
-0.0026291,-0.008907,-0.00019141,-0.0045444
-0.0073458,-0.01215,-0.0019452,-0.004176
-0.0068662,-0.016082,-0.0043446,-0.003526
-0.0059651,-0.016565,-0.0076121,-0.0027437
-0.0039186,-0.011873,-0.009886,-0.0019539
-0.00014623,8.4522e-05,-0.0089,-0.0014818
0.0024112,0.013985,-0.0057374,-0.0012663
0.0017257,0.017363,-0.0046958,-0.0010498
-0.00018041,0.0096065,-0.0085066,-0.00067113
-0.00029529,0.0029339,-0.012455,-0.00019186
-0.00051868,0.0059409,-0.010371,0.00026691
-0.003571,0.016788,-0.004212,0.00064122
-0.0091678,0.025429,-0.0012362,0.001139
-0.015823,0.022654,-0.0043784,0.0021761
-0.022264,0.0092274,-0.0091996,0.003402
-0.027836,-0.0053905,-0.011215,0.0037478
-0.031125,-0.016112,-0.012877,0.0024458
-0.031569,-0.023231,-0.015309,-0.00051748
-0.029765,-0.026421,-0.014878,-0.0041934
-0.026857,-0.025601,-0.012491,-0.0069235
-0.024264,-0.021586,-0.01257,-0.0078307
-0.021243,-0.017754,-0.01608,-0.0073308
-0.017566,-0.018179,-0.022054,-0.0061036
-0.013106,-0.022429,-0.025821,-0.0046878
-0.0088088,-0.025093,-0.022579,-0.0033104
-0.0032941,-0.021742,-0.015324,-0.0020793
0.010131,-0.011605,-0.0088489,-0.0015269
0.025809,0.0032821,-0.0060246,-0.002105
0.031393,0.018889,-0.0058816,-0.0026345
0.024228,0.031966,-0.0041,-0.0012263
0.0096015,0.036179,-0.0016638,0.0018711
-0.0025812,0.027285,-0.00023959,0.0048227
-0.0085768,0.010867,0.00055684,0.0063373
-0.013314,-0.0016969,0.00021022,0.0062845
-0.018298,-0.0012726,-4.6033e-05,0.0053438
-0.018036,0.0061861,-0.00027238,0.0041697
-0.013022,0.012639,-0.00081046,0.0027617
-0.011166,0.02216,-4.3322e-05,0.00093537
-0.013287,0.032475,0.0014535,-0.00096724
-0.015918,0.029783,0.00081918,-0.0025564
-0.016106,0.010306,-0.0033493,-0.0036846
-0.014,-0.013364,-0.0082925,-0.0041752
-0.012782,-0.029797,-0.009922,-0.0040229
-0.010321,-0.037157,-0.010274,-0.003321
-0.0080845,-0.037685,-0.010961,-0.0022082
-0.0084398,-0.035273,-0.0095284,-0.0011934
-0.0086164,-0.034935,-0.005425,-0.0008521
-0.0091324,-0.041907,-0.00088592,-0.00077324
-0.0098359,-0.054271,-0.0019331,-0.00017444
-0.0075678,-0.062302,-0.0076971,0.00062699
-0.0033116,-0.057433,-0.010085,0.0014581
0.00078492,-0.035247,-0.0080315,0.0030011
0.0075073,-0.0040147,-0.0043732,0.0051591
0.015254,0.023175,0.0027,0.0070601
0.017017,0.042733,0.014454,0.0081821
0.009875,0.049092,0.02314,0.0083166
1.5325e-05,0.037452,0.021805,0.0074256
-0.0042113,0.016379,0.012516,0.0054425
-0.0039789,0.0024042,0.0026757,0.0025329
-0.0023128,0.003999,-0.0010957,-0.00050888
0.0047309,0.011554,0.00022489,-0.0029052
0.017187,0.016527,0.0019447,-0.0042151
0.022595,0.021694,0.0020671,-0.0043497
0.010328,0.024784,0.001799,-0.0035371
-0.013439,0.018351,0.0013213,-0.0019255
-0.03025,0.0036817,-0.00086304,0.00016698
-0.029156,-0.010266,-0.0034123,0.0018976
-0.015845,-0.018354,-0.0052662,0.0026037
-0.0014803,-0.020604,-0.007314,0.0022497
0.0043061,-0.018675,-0.0080094,0.0012971
-0.00062956,-0.017044,-0.007004,0.00045494
-0.0074104,-0.018046,-0.0047396,0.00014818
-0.0086506,-0.016724,-0.0010193,0.00034592
-0.0086417,-0.0098512,0.00067784,0.00080385
-0.013436,-0.001254,0.00023012,0.0013847
-0.02015,0.0048124,-0.00059935,0.0019316
-0.025474,0.0063565,-0.0041726,0.0018133
-0.030155,0.0039836,-0.0089262,0.00059583
-0.032043,0.0023883,-0.0099513,-0.0010935
-0.025147,0.0061828,-0.006146,-0.0021744
-0.011593,0.013018,-0.0012314,-0.0020837
-0.0035268,0.015349,0.0005718,-0.0012712
-0.0034212,0.011097,0.00024894,-0.000548
-0.0037168,0.0061652,0.00014702,-0.00043153
-0.0020907,0.0037982,-0.00050126,-0.00086577
-0.0024151,0.0039258,0.00011831,-0.001091
-0.0054169,0.0072801,0.0017818,-0.00088421
-0.0052004,0.0090605,0.003152,-0.00059191
0.0019077,0.010725,0.0069479,-0.00010432
0.014991,0.022642,0.011548,0.00059863
0.027284,0.03763,0.013483,0.001139
0.026485,0.039066,0.012591,0.0014622
0.015451,0.027408,0.011083,0.0016742
0.010679,0.013179,0.010502,0.0017388
0.012593,0.0019445,0.0095126,0.0014358
0.0080965,-0.0025358,0.0072062,0.00043891
8.3871e-05,-0.00090118,0.004328,-0.0010835
-0.00052797,-0.00079925,0.00070927,-0.0028066
0.0027057,-0.0029956,-0.0034147,-0.0045411
0.0030233,-0.0036526,-0.0065081,-0.0058411
-0.0011842,-0.0046561,-0.0089404,-0.0062469
-0.0061214,-0.0081277,-0.0084081,-0.0055138
-0.0068013,-0.012858,0.00013959,-0.0037855
-0.0043252,-0.016789,0.011682,-0.001486
0.00045681,-0.017025,0.017073,0.00093121
0.0069859,-0.010787,0.015869,0.0029022
0.01167,-0.00024118,0.01341,0.0040665
0.014121,0.0065131,0.012767,0.0042472
0.016459,0.0071203,0.011334,0.0036145
0.018133,0.0062183,0.0098705,0.0026214
0.018772,0.0050574,0.011448,0.0017565
0.019708,0.0047052,0.013279,0.0013714
0.020409,0.0059338,0.013028,0.00099917
0.021312,0.00529,0.012129,0.00017458
0.023324,0.0011537,0.010471,-0.00070722
0.024851,-0.0042434,0.008201,-0.0012251
0.023422,-0.0082673,0.0073047,-0.0015764
0.018055,-0.010978,0.0061142,-0.0019453
0.01158,-0.011413,0.0051304,-0.0021487
0.0068332,-0.0084638,0.0065714,-0.0020329
0.0047224,-0.0070262,0.0072111,-0.0013655
0.0052599,-0.0077749,0.0061881,-0.00028114
0.0074711,-0.0034457,0.006699,0.00051725
0.008381,0.0099,0.0095482,0.00099465
0.0061821,0.024312,0.011958,0.001637
0.0027857,0.026191,0.011288,0.0019386
7.1933e-06,0.016262,0.0090624,0.00098243
-0.0022907,0.011038,0.0080126,-0.00060853
-0.0048374,0.014769,0.0065041,-0.0011643
-0.0084538,0.016442,0.0075144,-0.00035333
-0.013477,0.011279,0.014035,0.00091643
-0.014094,-0.005985,0.013393,0.0021516
-0.0060141,-0.029374,0.0015802,0.002737
0.001155,-0.036605,-0.0055733,0.0019553
-0.00089917,-0.026367,-0.0033854,0.00055818
-0.0077234,-0.017499,-0.0016812,-0.00021797
-0.011275,-0.018844,-0.0049159,-0.00064221
-0.0098376,-0.022057,-0.0078951,-0.0015397
-0.0074128,-0.020451,-0.0078354,-0.0026411
-0.0051765,-0.0164,-0.0090375,-0.0032122
-0.0032584,-0.011356,-0.010897,-0.0031367
-0.0050014,-0.0040122,-0.008582,-0.0027361
-0.0092373,0.0047587,-0.0041977,-0.0022765
-0.011406,0.0089029,-0.0023736,-0.0018252
-0.01061,0.006608,-0.0033673,-0.0011906
-0.0050101,0.0032889,-0.0065611,-0.00040004
0.0048758,0.0041493,-0.0083643,0.00023851
0.013595,0.0079959,-0.0069113,0.00075055
0.017464,0.0094527,-0.0043767,0.0012925
0.015362,0.0045016,-0.0027902,0.0018681
0.0049952,-0.007562,-0.0062308,0.0023788
-0.010888,-0.021015,-0.012563,0.0026032
-0.022412,-0.029348,-0.015414,0.0023768
-0.024573,-0.030634,-0.015022,0.0016693
-0.021199,-0.024503,-0.012795,0.00069816
-0.018086,-0.015063,-0.011254,-0.00021248
-0.017643,-0.0052709,-0.011307,-0.0013298
-0.018397,0.0045919,-0.010023,-0.0027427
-0.018135,0.0061434,-0.0088466,-0.0038653
-0.015191,-0.0030149,-0.00985,-0.0044845
-0.0073565,-0.0093501,-0.009742,-0.0047065
0.0040632,-0.0038312,-0.0048844,-0.0044139
0.014835,0.0079864,0.0035404,-0.0032171
0.022016,0.018826,0.013339,-0.00090927
0.022353,0.023909,0.019088,0.0018151
0.013651,0.019988,0.016582,0.0037478
0.0016259,0.011624,0.0089459,0.0042035
-0.0028968,0.0050384,0.0025875,0.0033021
0.001562,-0.0013418,0.00030299,0.0019963
0.0051685,-0.0073169,-0.0023279,0.0012092
0.0038779,-0.0090608,-0.0065369,0.00090565
-0.0011538,-0.010816,-0.010335,0.00086646
-0.0087714,-0.01572,-0.014398,0.00096165
-0.012815,-0.017274,-0.016475,0.0010316
-0.011483,-0.015155,-0.014153,0.0010972
-0.0082879,-0.013882,-0.010107,0.00093798
-0.0040431,-0.011608,-0.0072421,0.00017926
0.0002852,-0.0079469,-0.0035718,-0.00095996
0.0029629,-0.0058327,0.0020318,-0.0016108
0.0031784,-0.0065261,0.0043535,-0.0014714
0.0016539,-0.0101,0.0015288,-0.0011493
-0.00062235,-0.013372,-0.0012687,-0.0009985
-0.0033171,-0.011315,-0.0017021,-0.00075695
-0.0040164,-0.0069362,-0.0031602,-0.00023106
-0.0026042,-0.0026543,-0.0055912,0.00023659
0.00047395,0.0057684,-0.0041005,0.00036682
0.0063966,0.014502,0.0013762,0.00042585
0.0083733,0.015629,0.005066,0.00071903
0.0011402,0.0093421,0.0055668,0.0010894
-0.008349,0.0012398,0.0047003,0.0012298
-0.014208,-0.0046757,0.0019436,0.0012847
-0.01678,-0.0078131,-0.0016749,0.0014068
-0.017462,-0.0074187,-0.0041246,0.0014924
-0.016621,-0.0019131,-0.0027374,0.0015324
-0.0099531,0.013746,0.005326,0.0015597
0.0032106,0.036976,0.016039,0.0015071
0.0085578,0.048877,0.020958,0.00098378
0.00075699,0.037045,0.016626,-0.00023862
-0.0077824,0.010055,0.0083598,-0.0017209
-0.011191,-0.012809,0.0016236,-0.0029532
-0.011165,-0.020002,-0.0024203,-0.003706
-0.0075449,-0.016863,-0.0033391,-0.0036544
0.0022439,-0.014118,-0.0011223,-0.0025806
0.014272,-0.016383,0.0029969,-0.00081969
0.017084,-0.021529,0.0050882,0.00086741
0.0091831,-0.023127,0.0045444,0.0017758
0.0029685,-0.019484,0.0015217,0.0016528
0.0048645,-0.01533,-0.0045591,0.00071519
0.0065573,-0.013907,-0.011194,-0.00041881
0.00086954,-0.011525,-0.014559,-0.0010618
-0.0084674,-0.0036541,-0.013235,-0.00088246
-0.014953,0.0049403,-0.0097241,-0.00012897
-0.014372,0.010883,-0.0055739,0.0007858
-0.0065317,0.015402,-0.0021775,0.0016905
0.0018639,0.017166,-3.714e-05,0.0022344
0.0030875,0.020465,0.0031693,0.0020985
-0.0023741,0.02464,0.0060049,0.0013831
-0.0064412,0.020608,0.0056717,0.00017699
-0.0037365,0.013423,0.0044509,-0.0012644
0.0017581,0.01074,0.0032224,-0.0024052
0.0035821,0.0071701,0.00054304,-0.0028351
0.0029677,0.0031822,6.1267e-05,-0.0024372
0.0051766,0.0049413,0.0042121,-0.0015217
0.010348,0.0052417,0.0074747,-0.00039194
0.012218,-0.0031758,0.0072456,0.00077086
0.0086725,-0.012369,0.0050441,0.0015809
0.0037271,-0.014698,0.0011506,0.0019547
0.00035584,-0.01336,-0.0021266,0.0023593
0.0018375,-0.012859,-0.0041747,0.0028187
0.005954,-0.011965,-0.0063248,0.0026892
0.0070223,-0.0090892,-0.0085714,0.0019084
0.0040258,-0.0060552,-0.011669,0.0010306
-0.002889,-0.0042247,-0.015709,0.00043488
-0.013994,-0.0025393,-0.018849,0.00024854
-0.02388,0.0015937,-0.018506,0.00050643
-0.025043,0.010632,-0.014429,0.0009397
-0.019438,0.021678,-0.0083965,0.0010074
-0.010535,0.01828,-0.0078697,0.00063771
-0.00021721,-0.0063339,-0.01724,-0.00025687
0.0070179,-0.029154,-0.024703,-0.0018971
0.01,-0.033281,-0.024342,-0.0033994
0.010929,-0.028464,-0.021603,-0.0035962
0.013944,-0.026922,-0.019139,-0.0026859
0.02288,-0.026817,-0.015819,-0.0014852
0.034909,-0.025332,-0.0087158,-0.00030883
0.039194,-0.025284,0.001022,0.00061436
0.029819,-0.026931,0.0069586,0.0012008
0.015384,-0.028279,0.0071636,0.0017088
0.0079304,-0.026207,0.0050986,0.0023408
0.0067756,-0.013974,0.0010302,0.0029676
0.0046412,0.0097965,-0.0047875,0.00316
0.0038955,0.03066,-0.0084264,0.0028602
0.0041913,0.034175,-0.007212,0.0023241
-0.0009912,0.022779,-0.0055603,0.0017957
-0.0076159,0.0054511,-0.0069043,0.0013434
-0.0077515,-0.010346,-0.0084669,0.00060664
-0.0007077,-0.017742,-0.0085584,-0.00077725
0.0084423,-0.01591,-0.0070785,-0.002551
0.014591,-0.0088411,-0.0049966,-0.003839
0.015609,-0.0026706,-0.0035608,-0.0040142
0.010706,-0.0051653,-0.0037992,-0.0032477
0.0030505,-0.017487,-0.0044472,-0.0022431
-0.00013987,-0.030077,-0.0019968,-0.0015506
0.0028715,-0.038131,0.0025822,-0.00095683
0.0060051,-0.045817,0.0061726,4.0925e-05
0.0051668,-0.052028,0.0061931,0.0012583
0.0029165,-0.051865,0.0031098,0.0021617
0.0056599,-0.045096,-0.00022801,0.0024965
0.012805,-0.035341,-0.0030456,0.0022019
0.016664,-0.023802,-0.003,0.0013619
0.019165,-0.0070172,0.0015523,0.00043122
0.024746,0.01453,0.0066024,1.0507e-05
0.023164,0.036792,0.0091947,0.00020372
0.0091098,0.054031,0.011821,0.00064678
-0.004104,0.06006,0.015776,0.0011028
-0.0092163,0.058001,0.019007,0.0016157
-0.012101,0.05249,0.019546,0.0017199
-0.01514,0.040907,0.018109,0.00098693
-0.012629,0.023909,0.017314,-0.00028006
-0.0017195,0.010243,0.017222,-0.0016589
0.010292,0.0059147,0.016959,-0.0026687
0.015877,0.010265,0.019193,-0.002943
0.013826,0.014623,0.021466,-0.0023671
0.0071081,0.008019,0.014424,-0.0012525
-0.0007626,-0.0063397,0.00082106,-0.00040017
-0.0066431,-0.015001,-0.0060484,-0.0001594
-0.0053255,-0.011706,-0.0030113,-0.00015069
0.0016503,0.0023483,0.0045859,0.00021924
0.0059817,0.017554,0.0094427,0.0012506
0.0032307,0.02209,0.0080784,0.0024108
-0.0028609,0.019578,0.0048992,0.0029648
-0.0048479,0.01807,0.0022412,0.0028485
-0.0034743,0.018787,-0.00010564,0.0023083
-0.0042271,0.019094,-0.00029079,0.0016218
-0.0060811,0.017741,0.0013795,0.0009682
-0.0071967,0.017592,0.0025788,0.00015495
-0.0084931,0.019488,0.0030014,-0.00097296
-0.010923,0.022237,0.003824,-0.0022439
-0.014303,0.026929,0.0063324,-0.0031924
-0.01453,0.032524,0.0097256,-0.0034872
-0.009843,0.030281,0.0089533,-0.0033223
-0.0046256,0.02049,0.002191,-0.0031811
-0.001428,0.015749,-0.0032034,-0.0032231
0.0019216,0.016083,-0.0028984,-0.0030342
0.0056698,0.013645,1.8592e-05,-0.0023919
0.0090573,0.0098308,0.0048342,-0.0012851
0.011247,0.0075721,0.0094057,0.00023717
0.0094305,0.0049971,0.0061504,0.0015129
0.0041863,0.0018807,-0.0024456,0.0018421
0.00038381,-0.0010614,-0.0056832,0.0014097
-0.00079812,-0.0038738,-0.0034592,0.00097424
-0.0023359,-0.0063422,-0.0025964,0.00095607
-0.0026172,-0.0074432,-0.0037552,0.00111
-0.0014231,-0.0062048,-0.004005,0.0011034
-0.0026337,-0.0029445,-0.0026678,0.00092461
-0.0037123,9.1774e-05,-0.0021553,0.00066744
-0.0010206,-0.00048364,-0.0034396,-4.6387e-05
0.0038819,-0.0032871,-0.0041159,-0.0014702
0.0078024,-0.0059101,-0.0054754,-0.0029205
0.0084726,-0.0095244,-0.0081697,-0.0038431
0.0050826,-0.01246,-0.0091511,-0.0041819
-0.0017868,-0.011395,-0.0076827,-0.0038936
-0.0080667,-0.0082877,-0.0059889,-0.0029583
-0.010677,-0.0049431,-0.0047173,-0.0013606
-0.012769,-0.0010685,-0.0034269,0.00091706
-0.015465,-0.00056183,-0.0039209,0.0035661
-0.012747,-0.0077926,-0.00549,0.005516
-0.0010962,-0.015608,-0.0029063,0.0056929
0.010819,-0.01319,0.0031374,0.0041696
0.011866,-0.0058569,0.0059415,0.002108
0.0065115,-0.0066812,0.0026014,0.00055584
0.0036827,-0.014022,-0.0029944,-0.0003003
-0.00030413,-0.017975,-0.0061755,-0.00081821
-0.007053,-0.016956,-0.0059442,-0.0015132
-0.0074039,-0.013668,-0.0033687,-0.0023222
0.0031374,-0.0089096,-0.0020476,-0.0027498
0.016336,-0.005192,-0.0026881,-0.0030447
0.020132,-0.0052621,-0.001966,-0.0039857
0.014667,-0.0057502,0.00086165,-0.0056188
0.0067976,-0.0052011,0.00074567,-0.0064929
-0.0030356,-0.0056651,-0.0037121,-0.0047669
-0.013351,-0.0073072,-0.0066339,-0.00055642
-0.021148,-0.0087209,-0.0058999,0.00397
-0.024241,-0.004164,-0.0046495,0.0068892
-0.019268,0.0087554,-0.002159,0.0077907
-0.0085623,0.017402,0.0019539,0.0071072
-7.3617e-05,0.012334,0.0021146,0.0056627
0.0027688,0.0012546,-0.002096,0.0041796
0.0026006,-0.0067987,-0.0054162,0.00277
0.0034806,-0.0068175,-0.003038,0.0013516
0.0095122,-0.0014996,0.0032401,-6.6451e-05
0.017338,2.0527e-05,0.0059416,-0.001372
0.019303,-0.0031241,0.0026251,-0.0023287
0.018084,-0.0051413,-0.0015583,-0.0026833
0.020139,-0.0036723,-0.00058394,-0.00242
0.022751,-0.00041658,0.0024442,-0.0018684
0.021793,0.0014151,0.0032389,-0.0015187
0.017022,-0.0007139,0.0042922,-0.0017218
0.0081481,-0.0059,0.0049446,-0.0021592
-0.00022279,-0.0098076,0.0016383,-0.0022482
-0.0031144,-0.0097589,-0.0030427,-0.0022645
-0.00068849,-0.0070196,-0.0036479,-0.0024936
0.0059565,-0.0043784,-0.0002886,-0.0023876
0.012449,-0.003066,0.0022645,-0.0016439
0.013019,-0.0034735,-0.00072896,-0.00055386
0.0068987,-0.0054485,-0.0073342,0.00058676
-0.0019957,-0.0078185,-0.011465,0.0015473
-0.0092219,-0.010506,-0.012104,0.0020684
-0.010082,-0.012974,-0.012549,0.0022649
-0.0054834,-0.015771,-0.013967,0.0024132
-0.0012965,-0.017967,-0.013671,0.0023625
0.0018527,-0.015996,-0.009692,0.0022042
0.0030199,-0.012125,-0.0045364,0.0024093
0.0013566,-0.0096199,-0.0024478,0.0030058
-0.0010539,-0.0075857,-0.0042639,0.0034578
-0.0020467,-0.0076426,-0.0067662,0.0030538
0.0016739,-0.011501,-0.0079666,0.001543
0.0080312,-0.014921,-0.0095793,-0.0005016
0.010623,-0.013076,-0.0095511,-0.0020918
0.0098793,-0.0048004,-0.0067356,-0.0027911
0.010183,0.0049196,-0.005605,-0.002824
0.010772,0.0063676,-0.0066666,-0.0023179
0.011234,0.0025752,-0.0075954,-0.0015282
0.016827,0.003277,-0.0078989,-0.0010072
0.024939,0.0044373,-0.0065692,-0.00069706
0.025561,-0.0025715,-0.0034172,-7.9548e-05
0.017715,-0.011556,-0.0010069,0.00078063
0.0071089,-0.0092524,-0.00094802,0.0014231
-0.0013792,-0.0048024,-0.0033697,0.0017983
-0.0076203,-0.014953,-0.012485,0.0020196
-0.013292,-0.028411,-0.023008,0.0017994
-0.016452,-0.027906,-0.023456,0.0011189
-0.014881,-0.018904,-0.018261,0.00068478
-0.0099496,-0.010378,-0.01515,0.00096555
-0.0051276,-0.0035364,-0.015548,0.001653
-0.0049658,-0.0044284,-0.019458,0.0022648
-0.01219,-0.016775,-0.026102,0.0021919
-0.018206,-0.030998,-0.031439,0.0011317
-0.012017,-0.03583,-0.031514,-0.00031223
0.0050648,-0.030889,-0.027651,-0.0017547
0.020224,-0.01957,-0.022871,-0.0031077
0.023137,-0.0034834,-0.019142,-0.0038729
0.018001,0.0091548,-0.015546,-0.003682
0.011499,0.012572,-0.009177,-0.0023867
0.0086572,0.0087728,0.00058066,-0.00026593
0.01295,0.00011445,0.0089007,0.0017404
0.016121,-0.01021,0.0096458,0.0028425
0.0079629,-0.017122,0.0061117,0.0029218
-0.005499,-0.014896,0.0066819,0.0026262
-0.0095803,0.00014577,0.012238,0.0027357
-0.0044012,0.025728,0.015742,0.003119
-0.00077293,0.048122,0.013362,0.0030517
0.00046284,0.056615,0.010292,0.0023104
0.00077449,0.047422,0.007557,0.0013058
-0.0039452,0.020513,0.001115,0.00023099
-0.011181,-0.0051028,-0.0057178,-0.0011057
-0.012192,-0.015485,-0.0078917,-0.0026802
-0.0044941,-0.021238,-0.0077932,-0.0040907
0.0082369,-0.026226,-0.0063641,-0.005041
0.01959,-0.023125,-0.0012324,-0.005439
0.021056,-0.012634,0.0051247,-0.0049615
0.011976,-0.0017612,0.0096875,-0.0033979
0.0022095,0.0039141,0.011777,-0.0011072
-0.0003074,0.0020947,0.010755,0.0010512
-0.00085121,-0.0037488,0.0079961,0.002378
-0.0050288,-0.0062816,0.0062138,0.0028876
-0.0084398,-0.0028614,0.0065985,0.0030894
-0.0085302,0.0019569,0.0084694,0.003476
-0.0072808,0.0057911,0.012421,0.0036386
-0.0050931,0.012421,0.018911,0.0027354
-0.00044658,0.021337,0.024363,0.0011074
0.0060823,0.028044,0.027379,-5.6086e-05
0.010351,0.02831,0.028974,-0.00019254
0.0084234,0.020576,0.026711,0.00026874
0.00021283,0.012093,0.022053,0.00046555
-0.0078678,0.012019,0.019243,7.7369e-05
-0.0093056,0.017983,0.017203,-0.00074912
-0.0069363,0.019514,0.014825,-0.0019612
-0.0060476,0.016901,0.013366,-0.0032609
-0.0066831,0.01907,0.013164,-0.0043103
-0.0070605,0.021269,0.011987,-0.0048764
-0.0062748,0.013784,0.0098173,-0.0045393
-0.004044,0.0013502,0.0096087,-0.0032714
-0.0024887,-0.0063527,0.011787,-0.0014167
-0.0014855,-0.010782,0.01308,0.0007968
0.00079365,-0.017127,0.011608,0.0027572
0.0041634,-0.022457,0.0084828,0.0036253
0.0066242,-0.022031,0.0053914,0.0032755
0.0052548,-0.014801,0.0031163,0.0024049
0.0036008,-0.0036577,0.00061546,0.0015819
0.0066403,0.0081911,-0.00033783,0.00089682
0.010362,0.016621,0.00095572,0.00042497
0.0085301,0.018871,0.0023292,0.00020986
0.0036571,0.017933,0.0033433,0.00036695
0.0021029,0.015648,0.0028018,0.00082964
0.0013557,0.010276,0.00030251,0.00078972
-0.004137,7.0084e-05,-0.004258,-0.00031739
-0.011863,-0.011045,-0.0095092,-0.0020145
-0.0185,-0.018133,-0.011649,-0.0035978
-0.022618,-0.021652,-0.011947,-0.0045666
-0.021217,-0.022223,-0.012176,-0.0046455
-0.013807,-0.021003,-0.011657,-0.0039237
-0.006774,-0.018602,-0.012324,-0.0030287
-0.0084493,-0.015174,-0.013037,-0.002511
-0.017131,-0.011886,-0.010116,-0.0020764
-0.023488,-0.010412,-0.0067769,-0.0015535
-0.023029,-0.011298,-0.0066519,-0.001007
-0.012557,-0.0079776,-0.0052012,-6.51e-05
0.008127,0.0041548,0.0014566,0.001212
0.025296,0.015208,0.0074012,0.0022958
0.027825,0.014325,0.0051538,0.0028964
0.020623,0.0081307,-0.00099624,0.003024
0.012621,0.0085247,-0.0028467,0.0030756
0.0071298,0.0097082,-0.0011946,0.0034238
0.0037718,0.0026252,0.0010894,0.0038221
0.0020175,-0.0066846,0.0019263,0.0035661
-0.0014178,-0.014527,-0.00078297,0.0021642
-0.0086809,-0.02273,-0.0065545,-0.0002176
-0.01437,-0.025744,-0.013133,-0.0027245
-0.013124,-0.018382,-0.016587,-0.0043412
-0.0084573,-0.0051883,-0.015631,-0.0046828
-0.0069093,0.0049491,-0.00867,-0.0039827
-0.0099458,0.0050164,0.0016014,-0.0027731
-0.015464,-0.0041873,0.0076861,-0.0015687
-0.018876,-0.012944,0.0098604,-0.0004113
-0.016373,-0.014215,0.010346,0.00051634
-0.0096274,-0.010106,0.00899,0.00083628
-0.0033192,-0.0050805,0.0068835,0.00075513
0.00071902,-0.00067442,0.0051144,0.00081542
0.0047399,0.0035383,0.0022397,0.0013821
0.011272,0.0076401,-0.0021662,0.0022876
0.018924,0.0086403,-0.0049527,0.0029994
0.021692,0.0045203,-0.0062635,0.0031576
0.018963,-0.0026688,-0.0086376,0.002943
0.015175,-0.012201,-0.010857,0.0027403
0.011552,-0.024867,-0.0099372,0.0025431
0.0056332,-0.035777,-0.0078174,0.0021414
-0.0044796,-0.036389,-0.0092348,0.0013333
-0.015618,-0.029018,-0.012204,6.5984e-05
-0.022825,-0.02728,-0.016325,-0.0013752
-0.024224,-0.030003,-0.019896,-0.0026945
-0.0218,-0.02459,-0.017512,-0.0036255
-0.017503,-0.018077,-0.01809,-0.0040438
-0.013664,-0.016912,-0.02089,-0.0043457
-0.0089647,-0.011213,-0.0096089,-0.0043565
0.0013614,0.001739,0.0094395,-0.0030258
0.019204,0.019495,0.019725,-0.00038367
0.042357,0.039537,0.020861,0.0021643
0.063254,0.050229,0.018376,0.0036915
0.0737,0.048172,0.014792,0.0042473
0.070556,0.047068,0.0085114,0.0040048
0.058728,0.047696,-0.00095124,0.0033025
0.040961,0.036464,-0.010686,0.0026486
0.015603,0.01392,-0.018204,0.0021059
-0.0077422,-0.0066757,-0.020077,0.0016035
-0.01696,-0.018525,-0.018755,0.0011414
-0.015342,-0.021386,-0.019585,0.00016363
-0.010446,-0.017137,-0.02032,-0.0016434
-0.0057569,-0.011407,-0.016817,-0.0035488
-0.0054213,-0.0086632,-0.010314,-0.0049756
-0.0082184,-0.0097375,-0.0060122,-0.0057854
-0.0089808,-0.01267,-0.0071988,-0.0057015
-0.0057642,-0.01117,-0.010483,-0.0047681
-0.00036835,-0.0022666,-0.010023,-0.0032166
0.0031668,0.0072669,-0.0054525,-0.0011096
0.0056043,0.012678,0.00013398,0.0010468
0.0079615,0.016952,0.0047662,0.0024062
0.0055694,0.021318,0.0068213,0.0029235
0.00088815,0.023839,0.0065778,0.0033802
0.00046187,0.025777,0.0061628,0.003993
0.0035047,0.030858,0.0074035,0.0041501
0.007619,0.035004,0.0095327,0.0035004
0.0097676,0.033162,0.0095261,0.0023806
0.0079935,0.029108,0.0080471,0.001371
0.0051365,0.024907,0.0079487,0.00076209
0.002751,0.02043,0.0095074,0.00041178
-0.0024755,0.01666,0.010428,-1.6147e-05
-0.0093907,0.014076,0.009326,-0.00074031
-0.010998,0.013541,0.0079433,-0.0014175
-0.0093597,0.014111,0.0072368,-0.0015302
-0.0091235,0.013524,0.0050474,-0.0012324
-0.0083846,0.010266,0.0018712,-0.0009416
-0.0070954,0.0039868,2.0213e-05,-0.00066039
-0.0071874,-0.0019847,-0.00078098,-0.00025934
-0.0098397,-0.0062733,-0.0016677,0.0001472
-0.015534,-0.0095225,-0.0014077,0.00036073
-0.020574,-0.0099195,0.00085434,0.00041969
-0.020425,-0.0069741,0.0038225,0.00070363
-0.013918,0.00037486,0.0076022,0.0014138
-0.0058391,0.0073697,0.011084,0.0023325
-0.003257,0.0042067,0.011679,0.0031367
-0.0054933,-0.0079403,0.010488,0.0032993
-0.0070988,-0.018067,0.0094634,0.002409
-0.0081041,-0.014685,0.0086945,0.0011536
-0.013815,-0.00078985,0.0093071,0.00067557
-0.022068,0.0067692,0.0098773,0.0010926
-0.026166,0.00086952,0.0078042,0.0015825
-0.025945,-0.010624,0.0041085,0.0013561
-0.025834,-0.017988,0.00036854,0.00032385
-0.025911,-0.022388,-0.0035629,-0.0013251
-0.020137,-0.028079,-0.0057396,-0.0031228
-0.0085218,-0.031387,-0.0053738,-0.004237
-0.00014438,-0.030184,-0.0054609,-0.0044429
0.0011907,-0.025995,-0.0068094,-0.0037985
0.0014483,-0.019442,-0.0061943,-0.0022742
0.0036756,-0.012755,-0.0026955,-0.0002944
0.0098473,-0.0052541,0.00066796,0.0014506
0.023596,0.0044506,0.0052949,0.0024698
0.036675,0.011797,0.012769,0.0029937
0.039612,0.014769,0.016461,0.0032897
0.036242,0.022302,0.015714,0.0030663
0.030406,0.032477,0.015546,0.0023164
0.020265,0.031652,0.013992,0.0012869
0.007842,0.025171,0.011162,0.00022386
-0.0023845,0.021127,0.0085314,-0.00071472
-0.010789,0.014208,0.0049692,-0.0015729
-0.019044,0.001945,0.0018247,-0.0027946
-0.024042,-0.011263,0.0008593,-0.0048074
-0.022027,-0.020999,0.0021495,-0.0065103
-0.014771,-0.027378,0.0027697,-0.0064906
-0.007336,-0.031761,-0.0005512,-0.0049753
-0.0021896,-0.031576,-0.0052747,-0.0029805
0.0011331,-0.023928,-0.0076698,-0.001275
0.0011908,-0.015593,-0.0077538,-2.4214e-05
-0.001823,-0.012349,-0.0055011,0.00095655
-0.0046273,-0.0075818,-0.0024069,0.0017472
-0.0066021,0.0014012,-0.00086686,0.0022017
-0.0084177,0.013515,0.00067384,0.0022161
-0.0089546,0.027474,0.0029051,0.001826
-0.0067408,0.036346,0.0050698,0.0010599
-0.0035304,0.034968,0.0053445,0.00049456
-0.0019263,0.024436,0.0015504,0.00085516
0.002258,0.0092746,-0.0056187,0.0017474
0.010524,-0.0025103,-0.0089121,0.0020613
0.017405,-0.0029308,-0.0030517,0.0012887
0.024869,0.0052983,0.0056168,-0.0001218
0.031651,0.013268,0.012347,-0.0013779
0.02668,0.015244,0.016362,-0.0019734
0.010756,0.0093332,0.013916,-0.0017282
-0.0043832,-0.00098546,0.0066082,-0.001127
-0.012263,-0.0077296,0.00073791,-0.0011093
-0.01346,-0.0073436,-0.0036122,-0.0019408
-0.011802,-0.0038271,-0.00881,-0.0030956
-0.011953,-0.00032607,-0.012611,-0.0038159
-0.015778,0.0015703,-0.010949,-0.0036832
-0.018531,0.00018944,-0.0050332,-0.0026525
-0.016863,-0.0040601,0.00037604,-0.00073248
-0.012779,-0.0074922,0.0014462,0.0015507
-0.0073637,-0.0055418,-0.00215,0.0034447
-0.0020986,0.0030493,-0.0052901,0.0046662
0.00029758,0.014075,-0.0046897,0.0051249
0.0028332,0.017107,-0.0033839,0.0049405
0.0085314,0.0083969,-0.0030056,0.0043573
0.011231,-0.0023241,-0.0037638,0.0035479
0.0080935,-0.0070543,-0.0054941,0.002467
0.0053065,-0.00701,-0.0059625,0.00066918
0.006243,-0.0042011,-0.0036938,-0.001697
0.0071591,-0.00011586,0.0010334,-0.0036249
0.004414,0.00081104,0.0039601,-0.004373
-0.00087088,-0.003424,0.0020528,-0.0038936
-0.0048878,-0.01148,-0.002904,-0.0028749
-0.0048573,-0.019338,-0.0077813,-0.0021234
-0.002083,-0.021647,-0.011124,-0.0016116
0.00011494,-0.019057,-0.013569,-0.00094556
0.0024633,-0.010759,-0.012428,-0.00015939
0.0056375,0.0011932,-0.006215,0.0005764
0.009453,0.0038867,0.00035136,0.0011857
0.014665,-0.0040098,0.0057764,0.0017157
0.016477,-0.013046,0.011914,0.0023622
0.012234,-0.017284,0.015333,0.0029452
0.0059977,-0.014092,0.011602,0.0032092
0.002076,-0.0055538,0.0042937,0.0030846
0.003466,0.0023188,-0.0020238,0.0023699
0.0069193,0.0070684,-0.0040678,0.0012001
0.0069519,0.014545,0.0015861,0.00020293
0.0052262,0.026187,0.0079442,-7.2457e-05
0.0044289,0.026871,0.003804,9.5761e-07
0.0023673,0.0077202,-0.0076597,-0.00063436
-0.0018692,-0.012732,-0.015175,-0.0020648
-0.0022229,-0.016664,-0.01537,-0.0033355
0.0038923,-0.0079897,-0.011623,-0.0037912
0.011632,0.0031676,-0.0078757,-0.0033949
0.01681,0.01436,-0.0043942,-0.0024238
0.017889,0.021627,-0.0010371,-0.0012686
0.014781,0.019026,0.00049359,4.5965e-05
0.0033146,0.010483,0.00012059,0.0017768
-0.015201,0.0018634,-0.0017354,0.003355
-0.028756,-0.0043924,-0.0046229,0.0040195
-0.032227,-0.0063223,-0.006038,0.0039332
-0.028608,-0.0052715,-0.0052283,0.003369
-0.018204,-0.0034453,-0.0038229,0.0025844
-0.00035679,-0.0021872,-0.0026247,0.0020165
0.017835,0.00067875,-0.0012545,0.0016947
0.025352,0.0091793,0.0028121,0.0014385
0.019388,0.01841,0.0088066,0.001152
0.0078031,0.02269,0.010314,0.00078819
1.7925e-05,0.020783,0.0076628,0.00029618
-0.0027107,0.012448,0.0066451,-0.00029268
-0.0021474,0.006241,0.0065328,-0.0006251
-0.0011102,0.0084174,0.0056887,-0.00058615
-0.0017186,0.012096,0.0040268,-0.00054873
-0.001654,0.012994,0.0010758,-0.0006308
-0.0029524,0.013475,-0.0013236,-0.00060519
-0.0086668,0.017157,-0.00067525,-0.00047987
-0.013859,0.025724,0.0013474,-0.0003175
-0.013041,0.034165,0.0019469,-5.4021e-05
-0.0094897,0.034535,0.0017292,0.0002926
-0.0092182,0.025032,0.00045758,0.00068889
-0.010559,0.013177,-0.0017512,0.00095725
-0.012126,0.0058823,-0.0027101,0.0010371
-0.01571,0.001182,-0.0037723,0.0011518
-0.018298,-0.0025498,-0.0056143,0.0013109
-0.017207,-0.0071778,-0.0060493,0.0014767
-0.013191,-0.016088,-0.0043217,0.0016498
-0.0060913,-0.025561,-0.0019179,0.0016763
0.0028627,-0.029749,-0.00095888,0.0011773
0.0091724,-0.027631,-0.0012046,-0.00038142
0.011891,-0.021799,-0.0025417,-0.0025016
0.015694,-0.013508,-0.0012811,-0.0039957
0.018936,-0.0078614,0.0042776,-0.0042873
0.015878,-0.0082512,0.0089555,-0.0033625
0.0091684,-0.0028295,0.0099122,-0.0020439
0.0029867,0.015222,0.0071596,-0.0010192
-0.0032686,0.029682,0.0024354,2.3154e-05
-0.012934,0.028339,-0.0005128,0.0013489
-0.022394,0.017298,-0.0011606,0.0024597
-0.024012,0.0035984,-0.0017739,0.0022068
-0.019452,-0.0077182,-0.0028221,0.00041675
-0.01462,-0.011095,-0.0027627,-0.0014513
-0.012008,-0.0065547,-0.00072086,-0.0023173
-0.010701,-0.00069852,0.0007484,-0.0022995
-0.010343,-0.0008683,0.00057049,-0.0018068
-0.012862,-0.0046774,0.001943,-0.0011724
-0.013639,-0.012934,0.0035846,-0.00037566
-0.0063087,-0.029511,-0.001028,0.00043646
0.0037869,-0.036121,-0.0083756,0.00010865
0.0082536,-0.02251,-0.0076245,-0.0018006
0.0074487,-0.00682,-0.0019499,-0.0038425
0.0049255,-0.0021041,-0.00020461,-0.0045745
0.0025738,-0.0052117,-0.00095052,-0.0040957
0.0027332,-0.0094951,-0.0019123,-0.0032729
0.0036897,-0.0095971,-0.0036021,-0.0023621
0.0027393,-0.0068313,-0.0067959,-0.0011946
-9.8115e-05,-0.0077655,-0.0091078,-3.478e-05
-0.0028599,-0.014429,-0.0093972,0.00075416
-0.0056943,-0.022415,-0.012898,0.0011897
-0.011688,-0.023895,-0.01908,0.0013157
-0.019103,-0.015705,-0.021202,0.0011991
-0.022144,-0.0093757,-0.017604,0.0011384
-0.020019,-0.016481,-0.0095527,0.0012962
-0.015619,-0.027331,-0.0023358,0.0016841
-0.0088659,-0.0253,-0.00095059,0.0021625
-0.0061225,-0.011571,-0.00085417,0.0023086
-0.014008,0.0019695,0.0011329,0.0020416
-0.026593,0.0071229,0.00052705,0.0016749
-0.037564,0.0025818,-0.0053945,0.0012576
-0.042422,-0.00044648,-0.0088193,0.00043511
-0.036131,0.0044112,-0.0053794,-0.00080965
-0.021684,0.005363,-0.00088006,-0.0018534
-0.0072906,-0.0022368,0.0031534,-0.0025578
0.0038483,-0.0015298,0.0077347,-0.0033327
0.014035,0.016715,0.011104,-0.0038858
0.023148,0.03491,0.01207,-0.0034775
0.030282,0.032433,0.0092754,-0.0020128
0.035241,0.011796,0.0026902,-7.1296e-05
0.035735,-0.0085317,-0.0049557,0.0017106
0.03281,-0.017884,-0.010044,0.0029222
0.027789,-0.01878,-0.009903,0.0034201
0.016409,-0.017753,-0.0062624,0.0034817
0.00033168,-0.016135,-0.0029084,0.0035563
-0.011965,-0.01209,-0.0011831,0.00379
-0.017334,-0.006613,-0.00024652,0.0039416
-0.018711,-0.00063345,0.002013,0.0038507
-0.018679,0.0056765,0.005791,0.003693
-0.014633,0.011547,0.0088781,0.0033624
-0.0065341,0.01576,0.011018,0.0023888
0.0010511,0.019227,0.012333,0.00066772
0.0069021,0.023566,0.01233,-0.0011703
0.011304,0.024644,0.011289,-0.002245
0.01301,0.019866,0.0102,-0.0026085
0.012995,0.013672,0.0087898,-0.0028646
0.014806,0.010188,0.0067766,-0.0028945
0.019266,0.011542,0.0053417,-0.002506
0.022264,0.015564,0.0043271,-0.0019743
0.021253,0.015416,0.0034365,-0.0013806
0.018399,0.0089486,0.0020434,-0.0006336
0.016198,0.0011382,0.00080195,0.00015645
0.016578,-0.0031661,0.00089797,0.00087439
0.018005,-0.0039689,0.0018915,0.0015426
0.018497,-0.0026396,0.0042131,0.0020245
0.018348,-0.0020087,0.0071655,0.0022722
0.016464,-0.0042784,0.0084878,0.0024405
0.012758,-0.0072938,0.0051821,0.002322
0.0062482,-0.012389,0.00021729,0.0016305
-0.0028818,-0.019716,-0.0009453,0.00067742
-0.0085951,-0.024602,-0.00092255,-9.496e-05
-0.007198,-0.024548,-0.00077438,-0.0010709
-0.0021336,-0.016083,0.00074889,-0.0023599
0.0056706,0.0014766,0.0020423,-0.0031086
0.017146,0.021038,0.0042776,-0.0031381
0.025876,0.038604,0.010289,-0.0028757
0.027238,0.055112,0.017103,-0.0022607
0.022174,0.064464,0.019886,-0.0011442
0.010547,0.053541,0.016691,0.00036436
-0.0024389,0.022554,0.0050035,0.0017501
-0.0078911,-0.009071,-0.0097694,0.0019731
-0.0078823,-0.027781,-0.018567,0.00073607
-0.0088237,-0.03283,-0.020995,-0.00087108
-0.010039,-0.029171,-0.018462,-0.0018739
-0.010341,-0.026588,-0.013248,-0.0024313
-0.012084,-0.026511,-0.0083647,-0.0026106
-0.016368,-0.02377,-0.0049833,-0.001895
-0.019198,-0.019896,-0.0046973,-0.00035891
-0.017082,-0.018085,-0.005035,0.0012642
-0.012959,-0.01787,-0.0033282,0.0021249
-0.010377,-0.015908,-0.0016066,0.0017993
-0.0090664,-0.011422,-0.00059766,0.00055331
-0.009579,-0.0085294,-0.00041577,-0.0010285
-0.013568,-0.0087494,-0.0011503,-0.0023214
-0.016855,-0.010711,-0.00082242,-0.0028715
-0.012957,-0.013914,-0.00072933,-0.0027398
-0.004467,-0.016171,-0.0030397,-0.0022981
0.0022636,-0.015053,-0.004462,-0.0016189
0.0074411,-0.011128,-0.0033744,-0.00078937
0.01208,-0.0063545,-0.0024976,-8.4771e-05
0.009152,-0.0032917,-0.0038234,0.00043697
0.0013725,-0.0028026,-0.004537,0.0008478
0.0018809,-0.0020543,-0.00077622,0.0012634
0.0059776,-0.0014982,0.0036032,0.0018444
0.0028665,-0.0018529,0.004888,0.0024714
-0.0049983,0.0024388,0.0047363,0.0027902
-0.010869,0.011168,0.004302,0.0027969
-0.012579,0.020498,0.0065253,0.0027798
-0.0085875,0.025958,0.0084072,0.0027654
-0.0015449,0.017842,0.0019435,0.0023155
0.0012882,-0.0012942,-0.0066366,0.00085396
0.00035689,-0.015428,-0.0082536,-0.0012858
-0.00047203,-0.016271,-0.0069212,-0.0029747
-0.00073255,-0.010924,-0.0070073,-0.0036647
-0.00073025,-0.010064,-0.0082942,-0.0035453
-0.0031305,-0.016612,-0.010678,-0.0030415
-0.0085772,-0.027936,-0.013841,-0.0023177
-0.012211,-0.036503,-0.01694,-0.0014656
-0.011997,-0.036777,-0.018915,-0.0008376
-0.011944,-0.034947,-0.019079,-0.00040409
-0.014166,-0.034847,-0.017911,0.0002391
-0.0138,-0.029801,-0.01693,0.00096767
-0.0073364,-0.019718,-0.014267,0.0014529
0.0034065,-0.009151,-0.0077531,0.0019142
0.013987,0.0021019,0.00037514,0.0026595
0.018678,0.010379,0.0048924,0.0036188
0.014972,0.013632,0.0027432,0.0043067
0.010422,0.018974,-0.0016178,0.0040507
0.012351,0.031059,-0.00099223,0.0028588
0.016031,0.043844,0.0059814,0.0016868
0.016521,0.048121,0.01476,0.00098641
0.015179,0.041729,0.020806,0.00047507
0.011678,0.02878,0.020518,5.3557e-05
0.0063652,0.01618,0.010965,-0.00049791
0.0018262,0.012162,-0.0026975,-0.0015538
-0.0036762,0.016792,-0.0098881,-0.0027507
-0.010364,0.018663,-0.011902,-0.0032657
-0.012939,0.010957,-0.014473,-0.0029431
-0.01074,1.9812e-05,-0.013797,-0.0023208
-0.0079462,-0.0059033,-0.0074045,-0.0020039
-0.0018252,-0.0040974,-0.00095302,-0.0020538
0.008673,0.0010002,-0.00084423,-0.0020834
0.011492,0.0020287,-0.0059171,-0.0017624
0.0018206,-0.00051602,-0.0092519,-0.00097135
-0.0067804,-0.001575,-0.0084961,0.0003081
-0.007013,0.0021757,-0.0039545,0.0019575
-0.0047635,0.0092645,0.0051887,0.0034877
-0.001809,0.014526,0.014926,0.0043564
0.00086447,0.01629,0.019131,0.004432
0.00010269,0.016737,0.018287,0.0039617
-0.00040432,0.016935,0.016418,0.003182
0.00069764,0.016936,0.013967,0.0019012
0.00050398,0.016765,0.010683,-4.8276e-05
0.00016825,0.015621,0.0081577,-0.0020885
-0.00045762,0.013837,0.0062582,-0.0035793
-0.0026862,0.012416,0.0047135,-0.0042829
-0.0031626,0.014577,0.0039472,-0.0041184
-0.00028455,0.021085,0.0053143,-0.0035475
0.0020871,0.02464,0.010155,-0.0031021
0.0010187,0.018607,0.014089,-0.0024791
-0.0020901,0.0034275,0.012286,-0.0012348
-0.0036627,-0.011578,0.0070033,0.00013789
-0.0037618,-0.016327,0.0034484,0.00095335
-0.0043406,-0.015306,0.0020897,0.0013674
-0.0052851,-0.01556,0.00011126,0.0018086
-0.0064265,-0.014294,-0.0026243,0.0021036
-0.0067817,-0.010167,-0.0034748,0.0018959
-0.0059596,-0.0051005,-0.0028359,0.0013911
-0.0063243,-0.0028088,-0.0032351,0.0009619
-0.0094477,-0.0059309,-0.0051851,0.00066803
-0.01372,-0.0078447,-0.0063541,0.00027711
-0.012216,-0.0023614,-0.0046579,-0.00044559
-0.0035215,0.0069517,-0.0004676,-0.0014037
0.0022562,0.011684,0.0049084,-0.0022668
0.00097685,0.0084716,0.0078082,-0.0024855
-0.0026174,0.0012841,0.006357,-0.0018123
-0.0066016,-0.0061243,0.0031453,-0.00074651
-0.010282,-0.01041,-0.00051134,0.00016751
-0.011427,-0.012579,-0.0048013,0.00051712
-0.011223,-0.018132,-0.0087604,6.5523e-05
-0.01087,-0.025211,-0.01072,-0.00073349
-0.007562,-0.02649,-0.0090008,-0.0010275
-0.00146,-0.021915,-0.0063798,-0.00046453
0.0029733,-0.017367,-0.0057146,0.000428
0.0063184,-0.016229,-0.0034203,0.0011901
0.0088424,-0.018485,0.0027743,0.002073
0.0076727,-0.019703,0.0083366,0.0030471
0.0043992,-0.017157,0.0097871,0.0032445
-0.00083893,-0.014005,0.0095255,0.0019856
-0.0071429,-0.010162,0.0092667,0.00040789
-0.0086609,-0.0033012,0.0072368,0.00027047
-0.0056731,0.0018476,0.0024081,0.0010219
-0.0069362,-0.00074295,-0.0025077,0.0010753
-0.014863,-0.0077115,-0.0060045,0.00018984
-0.02198,-0.011373,-0.0087794,-0.0012324
-0.022832,-0.0061874,-0.0062299,-0.002716
-0.016002,0.0026019,0.00038361,-0.0034807
-0.0024115,0.005035,0.0024678,-0.0032334
0.011648,0.0041095,0.0030783,-0.0027018
0.018284,0.0047812,0.0078693,-0.0021877
0.016501,0.0022839,0.012675,-0.00079075
0.010798,-0.006387,0.013575,0.0016166
0.0032461,-0.013285,0.012033,0.0036368
-0.0066611,-0.010417,0.0095187,0.0046295
-0.016545,-0.000402,0.0061983,0.0049838
-0.020877,0.0053872,0.0028976,0.0046147
-0.018767,0.0006191,0.00014688,0.0035431
-0.011175,-0.0055261,-2.1625e-05,0.0022683
0.00016651,-0.0043783,0.0020537,0.0011888
0.0058404,1.9743e-05,0.0023697,0.00022206
0.0023667,0.0033647,0.0025312,-0.00094911
-0.003392,0.0058816,0.0035399,-0.0020317
-0.0066097,0.0058707,0.0027687,-0.0025802
-0.0055956,0.0021633,0.0017006,-0.0028163
-0.0016632,-0.0017129,0.0016846,-0.0028818
0.00088533,-0.0022972,0.00092703,-0.002714
0.00066138,0.0003752,-0.00084993,-0.0025153
0.00043446,0.0046137,-0.0015657,-0.0022396
0.00034599,0.0084411,-0.0021467,-0.0016399
0.00066665,0.012386,-0.0044128,-0.00070926
0.0044585,0.016511,-0.0055653,0.00027921
0.010237,0.016736,-0.0044791,0.0011359
0.014321,0.011711,-0.0043955,0.0018377
0.01312,0.0066011,-0.0057538,0.0022816
0.00358,0.0051961,-0.0056532,0.0024454
-0.011011,0.0042362,-0.0050075,0.0024103
-0.020056,0.002146,-0.0069388,0.0022357
-0.017725,0.0020697,-0.0083915,0.0017909
-0.01154,0.00061144,-0.0078039,0.0011319
-0.0079411,-0.0058264,-0.00829,0.00074501
-0.004763,-0.013062,-0.0094102,0.0006768
-0.0022099,-0.016746,-0.010123,0.00031402
-0.0044388,-0.016053,-0.010167,-0.00063193
-0.01112,-0.014062,-0.010018,-0.0018006
-0.016786,-0.013758,-0.01096,-0.0026877
-0.018115,-0.015988,-0.011488,-0.0028987
-0.016773,-0.018912,-0.00922,-0.0025546
-0.014527,-0.016177,-0.005567,-0.0021653
-0.011515,-0.002831,-0.0028055,-0.0017522
-0.010814,0.010758,-0.0009363,-0.00093448
-0.0098759,0.010716,-0.00050459,0.00029201
0.00042269,0.007033,-0.00064872,0.0012913
0.016911,0.01718,0.0023928,0.0015909
0.032003,0.033765,0.010625,0.0017312
0.039962,0.03342,0.020031,0.0023206
0.034452,0.014885,0.024022,0.0032169
0.021369,-0.0031093,0.020722,0.0040306
0.011153,-0.012692,0.014217,0.0043876
0.0063042,-0.018714,0.0095867,0.0043533
0.0026625,-0.023723,0.0060535,0.004157
-0.0033692,-0.02614,0.0010101,0.0033518
-0.0085119,-0.026512,-0.0026287,0.0016159
-0.0079949,-0.023755,-0.0017982,-0.00055729
-0.0024766,-0.017081,0.00097532,-0.0025251
0.0039232,-0.011357,0.0025575,-0.0038911
0.0068367,-0.012178,0.0030876,-0.0044557
0.004225,-0.017184,0.0026153,-0.0042828
0.00045773,-0.019224,0.0030912,-0.0035726
-0.00068774,-0.016332,0.0052558,-0.0026183
-0.00047609,-0.0093276,0.006454,-0.0016379
0.0022981,0.0011366,0.0069299,-0.00045975
0.0064416,0.014139,0.006398,0.00089643
0.0081166,0.028452,0.0057707,0.002278
0.0095947,0.036446,0.0063988,0.0036749
0.011635,0.029764,0.0017645,0.0043725
0.0082069,0.015734,-0.004722,0.0037623
0.00121,0.00673,-0.0013544,0.0026119
0.0018217,0.0051833,0.0081448,0.0019761
0.01399,0.012502,0.014979,0.0017772
0.029852,0.022009,0.016782,0.0014669
0.035603,0.020287,0.014646,0.00099616
0.027268,0.0071031,0.007924,7.7159e-05
0.013808,-0.0081826,-0.0032049,-0.0016024
0.0034628,-0.016061,-0.011034,-0.0035265
-0.0012383,-0.015045,-0.010841,-0.0048484
-0.0024574,-0.0099716,-0.0076363,-0.0051665
-0.0034981,-0.0021574,-0.0075397,-0.0043883
-0.0025491,0.0081824,-0.012399,-0.0027169
0.0010848,0.019604,-0.016943,-0.001182
0.0015429,0.024147,-0.017262,-0.00059079
-0.0029654,0.016745,-0.016196,-0.00064294
-0.0091322,0.0067428,-0.016207,-0.00092781
-0.01252,0.0016703,-0.016668,-0.0011851
-0.010021,0.0015231,-0.015813,-0.00089628
-0.0070494,0.0037753,-0.014186,-0.00010659
-0.0073671,0.0057442,-0.01205,0.00068546
-0.0086302,0.0058698,-0.0086974,0.0014762
-0.0094134,0.00057886,-0.0061925,0.002181
-0.0070862,-0.0062536,-0.0059967,0.002416
-0.0024751,-0.0064206,-0.0067344,0.0021241
0.0012781,-0.0032047,-0.0059872,0.001313
0.0026617,-0.0037339,-0.0023487,0.00010765
0.0013472,-0.007705,-0.0013422,-0.0010721
-0.0027863,-0.010499,-0.0059106,-0.0020653
-0.0081904,-0.0092524,-0.010144,-0.0026338
-0.0097528,-0.0031525,-0.010555,-0.0025526
-0.0076053,0.0037351,-0.0094578,-0.0023124
-0.0066254,0.0079781,-0.0084701,-0.0022482
-0.0080817,0.012721,-0.0067387,-0.0020318
-0.0099173,0.014886,-0.0059854,-0.0015667
-0.0085209,0.0081104,-0.0083506,-0.0011221
-0.0028142,-0.00076615,-0.011102,-0.00072699
0.0028567,-0.0065391,-0.011762,-0.00034376
0.0040586,-0.012303,-0.011752,-0.00021828
0.0012062,-0.012466,-0.010003,-0.00031811
-0.0022549,-0.0023447,-0.00035629,-0.00015683
-0.0030942,0.0090753,0.015226,0.00079579
-6.4164e-05,0.010288,0.021273,0.0025767
0.0042756,0.001809,0.014668,0.0040507
0.005246,-0.0075183,0.0087517,0.004182
0.0012863,-0.015257,0.0078195,0.0034605
-0.0036305,-0.019704,0.0091796,0.0024782
-0.0051267,-0.017478,0.012154,0.0012503
-0.0039191,-0.012374,0.013803,0.00016504
-0.00047893,-0.0065963,0.011407,-0.00086854
0.0044747,-0.0010033,0.0059731,-0.0025704
0.0049111,0.0022288,0.0019898,-0.00441
-0.0010203,0.0044185,0.00089678,-0.0051035
-0.0071209,0.0071821,0.0013599,-0.0041911
-0.0077084,0.0090493,0.0034621,-0.0020952
-0.0040631,0.0072415,0.0038431,3.4537e-05
0.00010497,0.0014089,-0.00034505,0.001218
0.001179,-0.0058506,-0.0047439,0.0015205
-0.0036366,-0.011081,-0.0066214,0.0014996
-0.008619,-0.013068,-0.0065915,0.0014742
-0.0062427,-0.014652,-0.003795,0.0012167
0.00042932,-0.018016,-5.647e-05,0.00056357
0.0047654,-0.02056,0.0028728,3.7119e-05
0.0065451,-0.019994,0.0047215,0.00014952
0.0045897,-0.018941,0.0048296,0.00072153
-0.0011695,-0.019531,0.0036085,0.00093399
-0.0025746,-0.018821,0.002555,0.00029037
0.0070205,-0.011978,0.0034173,-0.00085171
0.021992,0.0042313,0.0067244,-0.0019808
0.03179,0.02827,0.012185,-0.0026417
0.034003,0.050028,0.0185,-0.0024138
0.026275,0.057209,0.022279,-0.0013645
0.0077021,0.046569,0.019917,3.1234e-05
-0.012008,0.024246,0.011941,0.0011231
-0.0245,0.0037497,0.0049196,0.0013626
-0.027872,-0.0065377,0.0010848,0.00083241
-0.023119,-0.0087761,-0.0017293,9.7456e-05
-0.014923,-0.0070605,-0.0025863,-0.00046337
-0.0074192,-0.0051778,-0.003068,-0.00086702
-0.0014173,-0.0041203,-0.003668,-0.00095052
0.0029631,-0.004095,-0.0025173,-0.00060519
0.005933,-0.0032809,-9.1764e-05,-0.0002642
0.0066125,0.00070625,0.0022424,-0.0001205
0.0052147,0.0056505,0.0030399,8.3425e-05
0.0063719,0.010864,0.002905,0.00045224
0.012313,0.018552,0.0031348,0.00067417
0.018233,0.02463,0.0034344,0.00018093
0.018203,0.023184,0.0030095,-0.0010225
0.014015,0.017043,0.0020056,-0.00206
0.011194,0.012037,0.0022747,-0.0022861
0.00876,0.010133,0.0042353,-0.0019716
0.0057673,0.010388,0.0049857,-0.0014948
0.0046647,0.010862,0.00394,-0.00086865
0.004552,0.010127,0.0033842,-0.00015871
0.0041097,0.0091605,0.0034353,0.0005311
0.0038007,0.0079298,0.0037956,0.0011267
0.0045131,0.0069419,0.0028021,0.0013323
0.0053224,0.0095572,0.00077621,0.00098434
0.0052882,0.010542,0.0015082,0.0004806
0.0052248,0.0047921,0.0031103,0.00022128
0.0034646,-0.001865,0.0031576,0.00028369
-0.0015755,-0.0066505,0.003041,0.00063737
-0.0090122,-0.010787,0.0019414,0.0009724
-0.014315,-0.014371,0.00031565,0.0011288
-0.014594,-0.01639,0.00052629,0.0013508
-0.012206,-0.014273,0.00074126,0.0014977
-0.0092995,-0.0077809,-0.0013166,0.0010599
-0.0083174,-0.0024868,-0.0034481,-7.8344e-07
-0.0070671,-0.0012077,-0.0035258,-0.0011585
1.8298e-05,0.0044072,-0.0020383,-0.0021265
0.010155,0.016615,-9.9654e-05,-0.0028481
0.014917,0.021802,0.00044233,-0.0030091
0.010393,0.016021,0.0001437,-0.0026484
0.0036723,0.014169,0.00094562,-0.0020928
0.0040003,0.025524,-0.00056031,-0.0013993
0.0097666,0.037814,-0.0061561,-0.00064542
0.013147,0.034459,-0.0094982,0.00015215
0.0088132,0.018696,-0.0086846,0.00090645
-0.0019675,0.0037378,-0.0073395,0.0014589
-0.011706,-0.0044189,-0.0070096,0.0020221
-0.014097,-0.0066683,-0.006369,0.00271
-0.0084714,-0.0046919,-0.0042342,0.0033161
0.0019159,-0.0015621,-0.0041623,0.0036003
0.0107,0.00036349,-0.0062602,0.0034172
0.011438,0.0020875,-0.0056524,0.0029869
0.0033389,0.0018536,-0.00073227,0.0026479
-0.0057729,-0.0042137,0.0052163,0.0022125
-0.0080419,-0.02064,0.0024238,0.0010032
-0.0061139,-0.039094,-0.010303,-0.0013037
-0.0056542,-0.03917,-0.014796,-0.0039105
-0.0036801,-0.023207,-0.0044143,-0.0052992
-0.00064251,-0.0114,0.0055243,-0.0044797
-0.001358,-0.010531,0.0051771,-0.0020926
-0.0022052,-0.012906,0.0011684,0.00014216
0.00068193,-0.011323,-0.00056168,0.0013731
0.0051169,-0.0059658,-0.0031805,0.0016754
0.0079051,0.0036513,-0.00515,0.0011832
0.0093721,0.020024,-0.0013473,0.00053433
0.0095487,0.039532,0.0043937,0.00066024
0.011977,0.051913,0.0074764,0.0017553
0.020566,0.049356,0.0091575,0.0033393
0.026342,0.036761,0.010082,0.0047865
0.021516,0.022975,0.010252,0.0054443
0.010815,0.0099765,0.0084272,0.0050589
0.0011928,-0.00020536,0.0048969,0.0039377
-0.0052988,-0.0064774,0.0021558,0.002288
-0.009631,-0.012472,0.00015962,0.00027332
-0.012167,-0.020259,-0.0015316,-0.0017219
-0.012037,-0.026156,-0.0020327,-0.0031374
-0.0090954,-0.027625,-0.0038269,-0.0035577
-0.0035905,-0.026713,-0.0078972,-0.0035052
0.0016758,-0.022039,-0.010009,-0.003658
0.0027292,-0.014619,-0.0083823,-0.0036973
0.0031217,-0.010267,-0.0045419,-0.002906
0.0035788,-0.0082852,-0.00052136,-0.001247
0.0017393,-0.0058343,0.0028399,0.00074406
0.00037294,-0.003952,0.0055674,0.0028046
0.0011574,-0.0015113,0.0061649,0.0047397
0.0056645,0.0074401,0.0077901,0.0058731
0.011384,0.025889,0.01811,0.0058927
0.016203,0.047122,0.034829,0.005372
0.020268,0.055834,0.045936,0.0047508
0.017818,0.041064,0.044264,0.0040891
0.0081661,0.010134,0.031443,0.0030321
-0.001696,-0.017073,0.015574,0.0010869
-0.0074861,-0.027375,0.0047964,-0.0011916
-0.010662,-0.024387,-0.00031517,-0.0031503
-0.011313,-0.01818,-0.0031889,-0.0048301
-0.0078647,-0.013545,-0.005588,-0.0062261
-0.0067595,-0.011141,-0.006792,-0.0074895
-0.011367,-0.010071,-0.0055137,-0.0083511
-0.014072,-0.0078477,-0.0027968,-0.0075825
-0.012808,-0.0045097,-0.00128,-0.0048047
-0.011757,0.0015165,0.00031166,-0.0012668
-0.0092507,0.0097202,0.0035941,0.0017795
-0.002719,0.015173,0.0060442,0.0038184
0.0056629,0.020846,0.0056359,0.0045532
0.01185,0.026922,0.0036501,0.0039873
0.012993,0.025171,0.0027081,0.0028484
0.011723,0.018837,0.0042436,0.0018684
0.012709,0.01865,0.0062375,0.0012872
0.014652,0.021832,0.0065686,0.0014449
0.015065,0.017064,0.0067378,0.0021944
0.013757,0.0038955,0.0054627,0.0024854
0.010977,-0.0061,0.0026822,0.0016805
0.0073484,-0.0073771,0.0032976,-1.9128e-05
0.0038039,-0.0069113,0.0036871,-0.0019967
-0.00076635,-0.011076,-0.001818,-0.0037877
-0.0086885,-0.016079,-0.0062856,-0.0054184
-0.015943,-0.016874,-0.0059376,-0.0066657
-0.016096,-0.015098,-0.0056138,-0.0070361
-0.0095844,-0.012291,-0.006057,-0.0065775
-0.0026501,-0.0069354,-0.0039686,-0.0055515
0.0014876,0.0017736,0.0019437,-0.0039348
0.0045352,0.012729,0.0069323,-0.0019953
0.0080923,0.01806,0.0047656,-0.00031999
0.0085803,0.0097334,-0.0043878,0.00074054
0.0048877,-0.0047796,-0.013922,0.0013751
0.0026806,-0.012853,-0.01795,0.0020529
0.0025939,-0.012654,-0.016228,0.0028428
0.0013962,-0.0099479,-0.012578,0.0034259
-0.0017622,-0.010209,-0.011535,0.0035135
-0.0058824,-0.015122,-0.01307,0.0030969
-0.0056187,-0.020491,-0.012173,0.0023384
0.00088918,-0.019546,-0.0072016,0.0014152
0.0049031,-0.014833,-0.0033831,0.00068895
0.0010646,-0.011667,-0.0020942,0.00012215
-0.0076581,-0.0084749,2.0218e-05,-0.00060431
-0.015511,-0.0049358,0.0010739,-0.0012934
-0.016527,-0.0037588,-0.0011936,-0.0017362
-0.0077146,-0.0038959,-0.0037649,-0.001925
0.0058299,0.00032058,-0.0047499,-0.0020293
0.013728,0.010197,-0.0034273,-0.0023295
0.015713,0.020774,0.00065242,-0.0025397
0.016589,0.023289,0.0030845,-0.0019898
0.011082,0.013805,0.0020244,-0.00070344
-0.0011451,0.0047026,0.00077388,0.000488
-0.0093591,0.0039218,0.0010329,0.0010761
-0.010503,-0.0013514,-6.2199e-05,0.0015183
-0.0097773,-0.014783,-0.0046461,0.0020872
-0.0093884,-0.025056,-0.011397,0.0022885
-0.0079742,-0.026842,-0.016319,0.0020593
-0.0048503,-0.021986,-0.016062,0.0020476
-0.00081373,-0.017253,-0.014171,0.0027348
0.0030631,-0.018204,-0.014846,0.0035835
0.0061327,-0.021107,-0.016651,0.0034192
0.0063827,-0.019173,-0.016281,0.0019177
0.0036632,-0.011368,-0.012723,-8.1576e-05
0.0006512,0.00073377,-0.0054872,-0.0015838
-0.0018323,0.012948,0.0025492,-0.0021195
-0.0037565,0.016665,0.0067817,-0.0017643
-0.0046184,0.0091773,0.0070905,-0.00085204
-0.0035678,-0.0020046,0.0054319,0.00025336
-0.001787,-0.0099062,0.0025793,0.0012148
-0.0013198,-0.010493,-0.0014898,0.0017696
-0.00223,-0.0071987,-0.0042674,0.0018729
-0.0028262,-0.0082582,-0.0054369,0.0016519
-0.0010743,-0.0065931,-0.0065696,0.001021
0.002047,0.0072475,-0.0060542,4.5368e-05
0.0044718,0.022034,-0.0049413,-0.00086125
0.0089631,0.023635,-0.0060042,-0.0013796
0.016004,0.014817,-0.0076209,-0.0013086
0.02,0.0070116,-0.0090994,-0.00064259
0.019812,0.0041359,-0.012186,0.00030517
0.014478,0.0031875,-0.01348,0.0011385
0.0039065,0.0010378,-0.011321,0.0016666
-0.0049364,-0.0027229,-0.010251,0.0016749
-0.006148,-0.0053152,-0.010263,0.00088194
-0.0026932,-0.0066222,-0.0086928,-0.0005263
-0.00012357,-0.0068566,-0.0077497,-0.0019682
0.0014712,-0.0048502,-0.0079301,-0.0029525
0.0009067,-0.0022899,-0.0083177,-0.0032301
-0.0014495,-0.00089726,-0.0090395,-0.0029268
-0.0015756,0.0010596,-0.0088784,-0.0023691
-0.0011102,0.0045143,-0.0070016,-0.0016085
-0.0010796,0.0056135,-0.0037662,-0.00048428
-9.5433e-06,0.0035402,-0.0010792,0.00085705
0.0035181,0.0024379,-0.00050942,0.001853
0.011028,0.0028996,-0.0016873,0.00217
0.015164,0.0022177,-0.0015158,0.0020206
0.0092591,-0.0021895,-0.00073218,0.0017266
0.0013886,-0.006838,-0.0019069,0.0014733
2.2185e-05,-0.0055695,-0.0019413,0.0010623
0.0023281,0.0019274,0.00019943,0.00034095
0.0038287,0.0084713,0.0013633,-0.00010388
0.0042893,0.0060509,9.2761e-05,4.8186e-05
0.0047033,-0.0028396,-0.0019192,0.00011875
0.0044043,-0.010099,-0.0024752,-0.00051329
0.0036214,-0.011452,-0.0029489,-0.0016315
0.0033799,-0.010697,-0.0044592,-0.0027205
0.0012045,-0.015673,-0.0065702,-0.0034806
-0.0046212,-0.022641,-0.0075309,-0.0036422
-0.0096319,-0.021291,-0.004315,-0.002881
-0.011076,-0.011522,0.0053627,-0.001096
-0.010885,-0.0036706,0.016016,0.0014526
-0.0063315,-0.0089785,0.013216,0.0037617
0.0006636,-0.018611,0.00065783,0.0044062
0.00038701,-0.0095686,-0.0043227,0.0032437
-0.0041108,0.017145,-0.0021949,0.0017389
-0.005269,0.037442,-0.00041376,0.0010172
-0.0068083,0.037697,0.0016958,0.00084057
-0.01278,0.022823,0.0048429,0.0007768
-0.019681,0.0025714,0.00508,0.00082852
-0.02026,-0.012655,0.002457,0.00095453
-0.010976,-0.014399,0.0064059,0.0010575
0.0066822,-0.0072236,0.017577,0.0011456
0.026593,-0.0013544,0.023834,0.00099027
0.035278,-0.00031559,0.018935,0.00038564
0.026747,-0.0028329,0.0088862,-0.00039045
0.014873,-0.0040327,0.0024582,-0.00094132
0.010257,-0.00091389,0.0028838,-0.0011799
0.0069139,-0.00025232,0.005783,-0.00098263
0.00096109,-0.0066268,0.0025199,-0.00037036
-0.0062816,-0.012188,-0.0046265,-0.00018928
-0.014596,-0.01223,-0.0059442,-0.0007127
-0.020195,-0.0099316,-0.0031785,-0.0010409
-0.020308,-0.0060878,-0.0013593,-0.0008249
-0.017132,0.0003527,0.00093681,-0.00037716
-0.012216,0.0070119,0.0034653,0.00027523
-0.004855,0.010491,0.0049851,0.0010513
0.00271,0.01019,0.0049653,0.0016828
0.0060745,0.007357,0.0036458,0.0019597
0.0065861,0.003577,0.0040196,0.0017451
0.0075504,0.0011123,0.0075717,0.0011714
0.0071893,0.0016794,0.012856,0.00067145
0.0066884,0.0058135,0.016807,0.00039942
0.010691,0.014164,0.017924,1.7041e-05
0.017125,0.021707,0.01637,-0.00056024
0.020614,0.018679,0.011541,-0.0011608
0.020092,0.0048912,0.0050806,-0.0017595
0.020402,-0.0086705,-0.00070013,-0.0022981
0.022877,-0.013653,-0.0034359,-0.0026284
0.019128,-0.011271,-0.0024007,-0.0027182
0.0069678,-0.0062044,-0.00019386,-0.0025597
-0.0040466,-0.0019525,0.0021273,-0.0020502
-0.0076166,-0.002026,0.0030065,-0.0011826
-0.0048276,-0.0069506,0.0013738,-0.00013022
0.00096378,-0.012875,0.00031349,0.00081487
0.006067,-0.017251,-0.0021482,0.0012798
0.0066856,-0.021993,-0.0077699,0.0011472
0.0018727,-0.023109,-0.0086382,0.00067265
-0.0033692,-0.013161,-0.0035574,0.00028333
-0.0040204,0.0018572,0.00086468,0.00027453
-0.0054262,0.010429,0.0024238,0.00044441
-0.011299,0.011146,0.0021571,0.00071582
-0.014991,0.0071904,-3.635e-05,0.0011828
-0.015353,-0.0028746,-0.0046481,0.0012524
-0.012704,-0.012636,-0.0075824,0.00040316
-0.0058994,-0.011561,-0.006923,-0.0010287
-0.0017065,-0.007127,-0.004893,-0.0023507
-0.003038,-0.0047677,0.00059159,-0.0030401
-0.0019512,0.0027074,0.008975,-0.0027377
0.0044516,0.0098513,0.013556,-0.0013852
0.012478,0.0048764,0.010963,0.00025751
0.020694,-0.0099838,0.0055438,0.001436
0.022674,-0.022933,0.003172,0.0019925
0.015102,-0.028775,0.00086672,0.001986
0.0055639,-0.030587,-0.0040161,0.0017166
-0.0018574,-0.026573,-0.0066904,0.001568
-0.007692,-0.011443,-0.0056146,0.0018177
-0.011872,0.0062579,-0.0011306,0.0024275
-0.013459,0.015591,0.0027903,0.0029634
-0.0062941,0.029559,0.0060701,0.0031923
0.011715,0.05694,0.015028,0.0033184
0.025242,0.075339,0.023246,0.0033271
0.020499,0.065528,0.022824,0.002728
0.0053477,0.037058,0.014617,0.0013072
-0.0076453,0.009984,0.0034763,-0.00054224
-0.016112,-0.0059616,-0.0041487,-0.0023667
-0.019329,-0.01017,-0.0068214,-0.003565
-0.016423,-0.0080902,-0.005925,-0.0035835
-0.010179,-0.0061673,-0.0033577,-0.002743
-0.0037997,-0.0042835,-0.0025663,-0.0018155
-0.000493,-0.0020305,-0.0038371,-0.0011459
-0.0029284,-0.0014108,-0.0056068,-0.00068563
-0.008137,-0.0011174,-0.0077502,-0.00027731
-0.011503,0.00066871,-0.0069465,0.00032129
-0.010808,0.0029038,-0.0034211,0.0012143
-0.0046569,0.0064809,-0.0008604,0.0021462
0.0035615,0.011938,0.0013856,0.0028439
0.0098905,0.016814,0.0034136,0.0032262
0.012749,0.019688,0.0039469,0.0031587
0.011301,0.019248,0.0019341,0.0026726
0.0072895,0.015463,-0.0012049,0.0019714
0.0021087,0.012775,-0.0019852,0.0012005
-0.0021015,0.012004,-0.0020749,0.0004492
-0.0033053,0.010039,-0.0027688,-0.00053486
-0.001786,0.01101,-0.0017373,-0.0018782
-0.001108,0.018361,-0.0010678,-0.0032249
-0.0059523,0.02251,-0.0039852,-0.004134
-0.0135,0.01622,-0.00609,-0.0044049
-0.017424,0.0070128,-0.0026403,-0.0040647
-0.018291,-0.0010094,-0.0022169,-0.0032745
-0.021538,-0.01136,-0.011343,-0.0026282
-0.026532,-0.019903,-0.019538,-0.002432
-0.029037,-0.02236,-0.018757,-0.0020401
-0.029615,-0.021736,-0.013824,-0.0011895
-0.027829,-0.01906,-0.0096483,-0.00055126
-0.020074,-0.01587,-0.0066213,-0.00022449
-0.011939,-0.015004,-0.0051551,0.00019214
-0.012887,-0.012711,-0.0064618,0.00062953
-0.019549,-0.0077875,-0.0098909,0.0010314
-0.023764,-0.0076418,-0.012701,0.0013404
-0.022873,-0.0093276,-0.013803,0.0012645
-0.018867,-0.001137,-0.010298,0.00056325
-0.013192,0.011944,-0.0026087,-0.00059398
-0.0065714,0.010827,0.00078789,-0.0014124
-0.0018385,-0.0076781,0.0014374,-0.0013784
0.0015346,-0.022825,0.0066337,-0.00083626
0.0050503,-0.023373,0.01337,-0.00021434
0.0058749,-0.021309,0.015908,0.00017966
0.00057158,-0.020307,0.013006,3.1991e-05
-0.0072854,-0.01158,0.0062427,-0.00068093
-0.0089709,0.0024243,0.00034486,-0.0016415
-0.0080167,0.014775,-0.0013798,-0.0023818
-0.010517,0.022304,-0.00014606,-0.0024916
-0.011196,0.022594,0.0031167,-0.0017489
-0.010871,0.01772,0.0077289,-0.0003028
-0.01284,0.011351,0.011632,0.0013338
-0.01307,0.0073061,0.012606,0.0026299
-0.0085041,0.0059431,0.010296,0.0032968
-0.0015384,0.0010804,0.006544,0.0031997
0.0059606,-0.0069885,0.0048384,0.0023677
0.013543,-0.012024,0.0051666,0.001137
0.015174,-0.012831,0.0055289,0.00017213
0.0083618,-0.013749,0.0047496,-2.9532e-05
0.0013556,-0.017327,0.0022675,5.6615e-05
0.00075888,-0.018568,0.0033471,-0.00020528
0.0033982,-0.015059,0.0079586,-0.0006205
0.0042789,-0.0094629,0.0083706,-0.00090451
0.0030154,-0.002386,0.0047225,-0.0011916
0.0023975,0.0050154,0.00067769,-0.0016979
0.0021375,0.011122,-0.0015091,-0.0022132
0.00080577,0.016951,0.00016698,-0.0020533
-0.00061883,0.022522,0.0052158,-0.0010437
-0.002426,0.022733,0.010589,0.00013677
-0.0037536,0.016381,0.011757,0.0009925
-0.0043477,0.013204,0.011486,0.0014207
-0.0052494,0.018437,0.016793,0.0015749
-0.0037998,0.019354,0.021438,0.0019442
0.0033434,0.0044524,0.016559,0.0023246
0.011572,-0.012998,0.011531,0.0019129
0.011463,-0.020397,0.013253,0.00096547
0.0055621,-0.02432,0.013606,0.00062534
0.0050913,-0.024082,0.00925,0.00094726
0.01091,-0.014812,0.0040383,0.00091339
0.01578,-0.0040871,1.2191e-05,0.00023754
0.016852,-9.4114e-05,-0.0031046,-0.00056352
0.014366,-0.0022978,-0.0047082,-0.00091149
0.0094596,-0.00629,-0.0051241,-0.00053903
0.0036986,-0.010134,-0.0066691,9.2529e-05
-0.0037566,-0.012895,-0.0090951,5.9766e-05
-0.011526,-0.013835,-0.010542,-0.0010442
-0.016566,-0.014527,-0.010089,-0.002565
-0.020754,-0.018256,-0.0082421,-0.0035298
-0.027244,-0.024357,-0.0074519,-0.0035486
-0.030482,-0.024162,-0.0072435,-0.0029486
-0.025673,-0.016613,-0.0039968,-0.0020148
-0.016637,-0.013138,0.00029299,-0.00079101
-0.0078207,-0.014742,0.0016991,0.00028179
-0.0037834,-0.013167,0.0018419,0.00039724
-0.00094473,-0.0083115,0.0029708,-0.00096046
0.0071394,-0.0046806,0.0053146,-0.0026671
0.013537,-0.0031378,0.0071171,-0.0023361
0.013541,-0.0023746,0.0064697,0.00068774
0.014385,-0.0021978,0.0046676,0.0043242
0.017677,-0.00049716,0.0034474,0.0060078
0.020478,0.0070994,0.0049097,0.0051268
0.023233,0.019886,0.010527,0.0032098
0.021568,0.031508,0.01543,0.0020115
0.016426,0.039239,0.013813,0.0017412
0.017109,0.037074,0.0072191,0.0010913
0.018521,0.020733,0.0020737,-0.00081853
0.011737,0.0030236,0.00032959,-0.0032436
0.0001065,-0.0068551,-0.0018021,-0.0047859
-0.01173,-0.010674,-0.0051181,-0.0048702
-0.018933,-0.0090783,-0.0077344,-0.0040614
-0.019476,-0.0066961,-0.010145,-0.0029805
-0.016559,-0.0078092,-0.011906,-0.0018035
-0.010813,-0.0071022,-0.010999,-0.00064901
-0.0012798,-0.0011425,-0.0091807,0.00041163
0.0078323,0.0036985,-0.0094335,0.0012373
0.012376,0.0035173,-0.010703,0.0016287
0.01356,0.0010881,-0.0095483,0.0018486
0.012048,-0.0014181,-0.0060838,0.0022154
0.009662,-0.0023148,-0.0038697,0.0024322
0.0083237,-0.00049259,-0.002645,0.00199
0.0072077,0.002873,-0.0010867,0.00064424
0.0049031,0.0060511,0.00063415,-0.0011085
0.0010622,0.0078222,0.0031863,-0.0022323
-0.0014465,0.0097909,0.0045766,-0.0023984
0.00069096,0.014766,0.0058089,-0.0020186
0.0048586,0.019097,0.0080936,-0.0013479
0.0050334,0.016573,0.0075714,-0.0004817
0.0028692,0.011681,0.0069563,0.00040511
0.0029616,0.014881,0.010669,0.0011498
0.0039887,0.026195,0.015152,0.001883
0.0041363,0.034744,0.015599,0.0029662
0.0022898,0.032974,0.011222,0.0040034
-0.0013695,0.023128,0.0060287,0.003805
-0.0045459,0.0096983,0.0032095,0.0023219
-0.0058503,-0.003497,0.0018137,0.00097351
-0.0045041,-0.012053,-0.00034498,0.00061521
-0.0035483,-0.01352,-0.0026905,0.0008026
-0.0063605,-0.011455,-0.0012456,0.00097045
-0.011026,-0.011446,0.0026938,0.0010891
-0.0145,-0.013367,0.0029233,0.00091974
-0.017689,-0.015121,-0.0019956,0.00018628
-0.019077,-0.015142,-0.0069778,-0.00089661
-0.016332,-0.011911,-0.0081927,-0.0020576
-0.01455,-0.0078316,-0.0062515,-0.0027413
-0.014642,-0.0038006,-0.0045633,-0.0024232
-0.014513,0.0019556,-0.0046693,-0.0014643
-0.014459,0.0067237,-0.0045679,-0.00042356
-0.012838,0.0079087,-0.0038742,0.0006178
-0.011119,0.0046614,-0.0029081,0.0016405
-0.012407,-0.0038997,-0.0020363,0.0020758
-0.017235,-0.013076,-0.0024277,0.0015286
-0.023263,-0.015159,-0.0044534,0.00083429
-0.027586,-0.011809,-0.0080169,0.00084231
-0.029008,-0.0081051,-0.011411,0.0013235
-0.025235,-0.0013988,-0.013359,0.0016508
-0.018248,0.011012,-0.013073,0.0015458
-0.012945,0.026463,-0.005767,0.0013452
-0.0099322,0.036141,0.011382,0.0018634
-0.0061783,0.028926,0.024064,0.003355
0.00044057,0.010097,0.014289,0.0043848
0.0041441,0.0022623,-0.0038793,0.0030121
0.0021722,0.0098722,-0.0055126,-0.0002099
0.0011642,0.016911,0.0020521,-0.0026435
0.0059018,0.018793,0.0016297,-0.0032883
0.011377,0.017955,-0.0034193,-0.0033338
0.0082957,0.011084,-0.0074044,-0.0035739
-0.0020041,-0.00058212,-0.0096083,-0.0035084
-0.012454,-0.0067518,-0.0075693,-0.0026735
-0.021209,-0.0027688,-0.0052845,-0.0013744
-0.02797,0.0045182,-0.0072398,-3.5603e-05
-0.028894,0.0049635,-0.01139,0.0010294
-0.021844,-0.0054329,-0.015516,0.0013483
-0.014947,-0.018182,-0.017056,0.00085314
-0.014729,-0.023875,-0.014807,0.00018355
-0.01254,-0.02207,-0.011684,6.3979e-05
-0.0016119,-0.016033,-0.0098015,0.00056856
0.010715,-0.0081365,-0.0083716,0.0010695
0.018581,-0.0017782,-0.0057224,0.0012985
0.024037,9.4049e-05,-0.0032736,0.0014795
0.025671,0.00062682,-0.0031998,0.0012648
0.019918,0.0028218,-0.0039578,0.00028847
0.01263,0.0061931,-0.0020381,-0.0010081
0.010491,0.0095531,0.001877,-0.0020001
0.01196,0.010234,0.0033141,-0.0025455
0.014028,0.0096965,0.002121,-0.0028205
0.014331,0.011516,0.0030315,-0.0027475
0.01258,0.013631,0.010123,-0.001968
0.010233,0.013686,0.019243,-0.00022221
0.0088658,0.011087,0.021433,0.0020837
0.0094089,0.0046372,0.016031,0.0037207
0.010436,-0.0024697,0.010093,0.0036959
0.010326,-0.00689,0.0057942,0.0024071
0.0072835,-0.0092012,0.0017399,0.0010046
0.0034109,-0.0088794,-0.00024048,0.00015425
0.001517,-0.0057485,0.00043298,-0.00022508
-0.00012542,-0.0020577,0.0010913,-0.00056579
-0.0010147,-0.0002122,0.00040068,-0.00087719
-0.0013495,-0.0015546,0.00065712,-0.00094322
-0.0036778,-0.0041569,0.0024744,-0.00089196
-0.0048507,-0.0047228,0.0024187,-0.00095198
-0.0033035,-0.00497,0.00080382,-0.0011797
-0.0044509,-0.0059761,-3.3607e-05,-0.0013555
-0.0064684,-0.0064062,-0.00098476,-0.0014017
-0.0037165,-0.0081667,-0.0028222,-0.0014637
0.00029905,-0.012911,-0.0050479,-0.0013984
0.0017997,-0.01864,-0.0071611,-0.00096816
0.0027554,-0.01877,-0.0083692,-0.00026504
0.0055542,-0.009721,-0.0067167,0.00037
0.0095261,0.0037547,-0.0026863,0.00086947
0.012283,0.013936,0.003514,0.0013902
0.014195,0.014029,0.011353,0.0017833
0.013857,0.0028269,0.014067,0.0017278
0.0069157,-0.010916,0.0079123,0.0010061
-0.0045517,-0.018704,-0.0009264,-3.5655e-05
-0.012134,-0.019834,-0.0057271,-0.00062671
-0.011224,-0.014864,-0.0061872,-0.00054505
-0.0055624,-0.0038431,-0.0041492,-1.9362e-05
-0.0010788,0.013803,-0.00082774,0.00066616
0.0018533,0.031378,0.00181,0.0011816
0.0039834,0.034642,0.0035501,0.0010231
0.0004012,0.021702,0.0061902,-4.8058e-05
-0.0085823,0.0078405,0.0087794,-0.0014543
-0.013984,0.0038393,0.0073217,-0.0026658
-0.013769,0.0064944,0.002844,-0.0034608
-0.012449,0.0079361,-0.0014478,-0.003669
-0.012463,0.0073602,-0.0045444,-0.0033612
-0.013807,0.0076842,-0.0045546,-0.0025975
-0.013927,0.0039504,-0.0025069,-0.0013918
-0.011124,-0.0046688,-0.0008492,8.2114e-05
-0.0068851,-0.011548,-0.0002814,0.0013492
-0.0022038,-0.013151,0.00076953,0.0018829
0.0039975,-0.012496,0.0050241,0.0020441
0.0098936,-0.013997,0.010364,0.0025712
0.014565,-0.01639,0.011099,0.0030439
0.020451,-0.014287,0.0091486,0.0027925
0.022871,-0.0049466,0.0099111,0.0020122
0.017238,0.0089157,0.012155,0.0013303
0.0099983,0.020197,0.01379,0.0013032
0.0059113,0.020927,0.013319,0.0014921
0.0021678,0.014608,0.0099263,0.00094898
-0.0025067,0.012336,0.0073158,-0.00039004
-0.0058174,0.014095,0.0074308,-0.0018247
-0.0057242,0.013382,0.0077682,-0.0028183
-0.002266,0.0088252,0.0079873,-0.0033861
0.0021993,0.0027758,0.01015,-0.0035389
0.0044489,-0.00039176,0.011824,-0.0030463
0.002779,0.0010466,0.010995,-0.0018007
-0.0014625,0.0059681,0.011128,-8.0422e-05
-0.0038746,0.0088433,0.01192,0.0014903
-0.0015148,0.0019821,0.0093696,0.0025426
0.0029074,-0.011132,0.0037221,0.0031714
0.0052868,-0.021908,-0.0027808,0.003191
0.0036671,-0.026465,-0.0083213,0.0023008
-0.0009607,-0.024061,-0.010521,0.00095401
-0.0059701,-0.018301,-0.01052,-3.6402e-05
-0.0095475,-0.015543,-0.010331,-0.00028017
-0.0085384,-0.017485,-0.009703,-0.00018601
-0.0023949,-0.018637,-0.0084028,-0.00037611
0.0028219,-0.018304,-0.0072921,-0.00091663
0.0041449,-0.012249,-0.0068338,-0.001733
0.0040082,0.0061984,-0.0044284,-0.0024323
0.0036896,0.02306,0.0001797,-0.0024652
0.0040763,0.025943,0.0053167,-0.0020067
0.0039908,0.021868,0.012481,-0.0014063
0.0024003,0.017439,0.016799,-0.00076402
0.002052,0.010771,0.012019,-0.00029042
0.0033578,0.00031606,0.003596,-2.7022e-05
0.0048913,-0.008238,-0.0020635,0.00026214
0.0075884,-0.0063391,-0.0039233,0.00050724
0.010242,0.0060829,-0.0031048,0.00027749
0.010829,0.021519,-0.0011387,-0.0003295
0.009078,0.03033,0.00069737,-0.00051233
0.0042011,0.022281,-0.0022558,7.2013e-05
-0.0024929,0.0020635,-0.0096267,0.00068292
-0.0067983,-0.011942,-0.01296,0.00067643
-0.008766,-0.013943,-0.012355,0.00051246
-0.0090803,-0.0096204,-0.012109,0.0006617
-0.0055063,-0.0036875,-0.010582,0.00085324
-0.001407,0.00039229,-0.0089777,0.00051738
0.0009174,0.0041534,-0.0078052,-0.00038011
0.0033268,0.0090512,-0.0046753,-0.0013185
0.0052514,0.013504,-0.00079375,-0.0021884
0.0067283,0.016094,0.0022729,-0.0027514
0.0074275,0.015567,0.002465,-0.0025114
0.0069145,0.015577,0.0006313,-0.0018218
0.0081759,0.017068,0.001223,-0.0011118
0.010866,0.018388,0.0058737,-0.0002791
0.011423,0.021641,0.013665,0.00070519
0.010237,0.024099,0.018378,0.0018716
0.010419,0.022983,0.014419,0.0030137
0.010869,0.019552,0.0068526,0.0037171
0.0086381,0.014051,0.0016186,0.0037629
0.006485,0.0080399,-0.001536,0.0030965
0.0080405,0.0036871,-0.002073,0.0022264
0.011247,0.0011615,-0.001127,0.0019642
0.0094003,-0.0023461,-0.004291,0.0022335
-0.00057845,-0.0081685,-0.010714,0.0022453
-0.012372,-0.012409,-0.0134,0.0017155
-0.017968,-0.012409,-0.010749,0.00094029
-0.016919,-0.0071477,-0.0057969,-6.3065e-05
-0.013541,0.0004791,-0.00050805,-0.0011291
-0.0093121,0.0014737,0.0029329,-0.001511
-0.0054792,-0.006485,0.002305,-0.0013539
-0.0057241,-0.013683,0.00087478,-0.0014611
-0.0085868,-0.011344,0.0023543,-0.0017165
-0.010495,-0.0053852,0.0031487,-0.0017426
-0.010632,-0.0056143,0.00050704,-0.0017694
-0.0078165,-0.0061185,-0.0026111,-0.0018726
-0.0012597,0.0039709,-0.0033682,-0.0014472
0.0095449,0.020002,-0.0028455,-0.00033463
0.020081,0.026689,-0.0022602,0.00066523
0.022386,0.020073,-0.0021194,0.0012773
0.017355,0.0092614,-0.0057433,0.0017659
0.013289,-0.0014593,-0.011973,0.001634
0.011568,-0.010099,-0.016893,0.00046865
0.0062944,-0.010712,-0.020146,-0.00071887
-0.00077606,-0.0041824,-0.020239,-0.00051187
-0.0048596,0.0036292,-0.017254,0.00097078
-0.0065028,0.0079235,-0.015243,0.0023009
-0.0066802,0.005579,-0.014246,0.0024312
-0.0082385,0.0012766,-0.012865,0.0013762
-0.01258,-9.6505e-06,-0.012387,-0.00029949
-0.014967,0.0010702,-0.011827,-0.0021149
-0.012865,0.0054041,-0.0094467,-0.0036869
-0.010685,0.0093744,-0.0067651,-0.0045409
-0.01171,0.0055301,-0.0063474,-0.0044505
-0.012726,-0.0011846,-0.0071074,-0.0037513
-0.01161,-0.0033518,-0.00758,-0.0028618
-0.0090937,-0.0018846,-0.0071753,-0.0019595
-0.00446,0.0033453,-0.002464,-0.0011663
0.0020145,0.0093125,0.0068196,-0.0002826
0.0089865,0.010153,0.013763,0.00085723
0.011003,0.0063715,0.012,0.0017694
0.0070137,0.0031631,0.0033747,0.0022183
0.00388,0.0033693,-0.0036608,0.0022822
0.0056652,0.0050181,-0.0042846,0.0016723
0.011723,0.010907,0.0018477,0.00042933
0.015487,0.019458,0.012348,-0.00036981
0.016941,0.011569,0.014209,0.00020305
0.017452,-0.012412,0.0025478,0.00093511
0.010184,-0.024861,-0.0059556,0.00031535
0.00059826,-0.019331,-0.0053166,-0.00085422
-0.0025282,-0.010346,-0.0048013,-0.001492
-0.0025081,-0.0053783,-0.0062173,-0.001627
-0.0032696,-0.004019,-0.0053615,-0.0013583
-0.0034945,-0.0025857,-0.0022958,-0.0010212
-0.0017296,0.0021178,0.00022112,-0.00088342
0.00014729,0.0060624,0.003044,-0.00046828
0.0034588,0.0030231,0.0063749,0.0004569
0.010744,-0.0045421,0.0073927,0.0014761
0.017403,-0.0071936,0.0072886,0.0021098
0.019617,-0.0012473,0.010697,0.0023949
0.019147,0.0040215,0.015555,0.0028809
0.017392,0.0014307,0.015924,0.0036267
0.014841,-0.0032085,0.012064,0.0041029
0.011743,-0.0056363,0.007967,0.0038577
0.0089042,-0.0099989,0.0048369,0.0030253
0.0060223,-0.015662,0.003845,0.0019663
0.0025627,-0.019166,0.004929,0.00072788
-0.0019352,-0.022706,0.0030029,-0.00045152
-0.0075791,-0.026357,-0.0023078,-0.0015805
-0.009393,-0.024421,-0.006188,-0.0027884
-0.0055893,-0.014362,-0.0078333,-0.0035793
-0.0013805,-0.003103,-0.0068078,-0.0036877
0.00060462,-0.0013585,-0.0026946,-0.0031645
0.00024117,-0.010262,0.0010435,-0.0021925
-0.0020321,-0.019891,0.0023423,-0.0011225
-0.0036489,-0.021188,0.0022027,-0.0001379
-0.00075075,-0.01456,-0.00014043,0.0004019
0.0069681,-0.0064853,-0.0059462,0.00034794
0.012186,-0.00091957,-0.0123,0.00019043
0.010306,0.0053262,-0.014952,0.00023389
0.0071072,0.014776,-0.011875,0.00046502
0.0055327,0.02042,-0.0042434,0.0011383
0.002376,0.021472,0.0023859,0.002268
-0.0011085,0.027973,0.0057744,0.0033315
-0.0015955,0.03565,0.0097038,0.0037672
-0.00059941,0.026989,0.012843,0.0033668
0.00054827,0.0031827,0.010259,0.0023912
0.0038507,-0.013779,0.0049323,0.0010135
0.0058301,-0.0094654,0.0023812,-0.00061757
0.00051677,0.0057964,-0.0002562,-0.002048
-0.0095397,0.0097583,-0.0049259,-0.0029076
-0.016612,-0.0020423,-0.0063361,-0.0031161
-0.018935,-0.01408,-0.0050098,-0.0028581
-0.019232,-0.016568,-0.0051334,-0.0026629
-0.01875,-0.012797,-0.004775,-0.0027673
-0.01504,-0.0086061,-0.0047224,-0.0027316
-0.008697,-0.0032974,-0.0060796,-0.0023885
-0.0040912,0.008517,-0.0064943,-0.0022002
0.0021587,0.026057,-0.0025417,-0.0022716
0.0093778,0.040344,0.0079845,-0.001766
0.011721,0.042397,0.013725,-0.00011443
0.012481,0.03425,0.0077147,0.0017717
0.013687,0.022731,0.0020084,0.0026674
0.010229,0.0096089,0.0023028,0.0027797
0.0046099,-0.0034083,0.0024007,0.0031877
0.0046636,-0.010255,0.0030354,0.0040931
0.0086136,-0.0048229,0.0081707,0.0046097
0.011678,0.011568,0.015677,0.004039
0.014323,0.029339,0.02338,0.0026373
0.016438,0.037859,0.030179,0.00093945
0.014465,0.033946,0.03337,-0.00075663
0.0050302,0.020936,0.030441,-0.0019361
-0.0094248,0.0063085,0.023643,-0.0022343
-0.021575,-0.0023806,0.018998,-0.0020557
-0.025277,-0.0027192,0.018883,-0.0019776
-0.01965,0.0029254,0.020857,-0.0018708
-0.013264,0.0069026,0.020364,-0.0014226
-0.013532,0.005299,0.015834,-0.00088755
-0.014119,0.004851,0.010723,-0.00034769
-0.0083638,0.0089578,0.0080903,0.0003826
-0.0012023,0.012756,0.0086605,0.0010287
0.0040191,0.014056,0.0092155,0.001403
0.010118,0.013926,0.0073696,0.0015084
0.015995,0.013363,0.006865,0.001261
0.019727,0.012796,0.0092086,0.00097573
0.020429,0.011997,0.011226,0.00093073
0.016175,0.012657,0.013745,0.0010462
0.0080461,0.012602,0.016834,0.0011709
-0.00038635,0.010196,0.017668,0.00098656
-0.0065363,0.0088777,0.018606,0.00032496
-0.0083203,0.00091336,0.017532,-0.00051141
-0.0053541,-0.01589,0.0091775,-0.0014521
-0.0039632,-0.023274,-0.00022478,-0.0025988
-0.0059181,-0.016201,-0.0041468,-0.0034349
-0.0052413,-0.0064885,-0.0057915,-0.0032598
-0.0020602,-0.00061008,-0.0077489,-0.0020876
-0.000552,0.00029164,-0.0077506,-0.00063355
-0.0021766,-0.0014265,-0.0065399,0.00028321
-0.006223,-0.0024504,-0.0069643,0.00035098
-0.0092556,-0.001798,-0.0074892,-0.00015468
