0.0254059035792119,-0.0224617926963177,0.0135471151161446,-0.000273873497982788
0.0164808361435403,-0.0223383756904184,0.0222291055626538,0.000402590956284941
0.0245696023505247,-0.0135419480447941,0.0328456625288805,0.000982208749105114
0.0360590140112611,-0.00586308073071799,0.0354806315881088,0.0013566648467858
0.0357925291147067,-0.000286109628346153,0.0309963912199884,0.00125859725256857
0.0261429898341396,0.00577920316002831,0.0279268406327427,0.00054405030263634
0.0214709051410154,0.00639397510826674,0.027474567749458,-0.000548144634633423
0.0233696174697315,-0.00346938782067967,0.027726262046781,-0.00158774352579566
0.019204718972261,-0.0114367181772834,0.0338218269713309,-0.00203473515237983
0.00880123917365587,-0.00709960877509195,0.0431593550422533,-0.00181021374830449
0.00184557392606553,0.00240936259571264,0.0467560386501928,-0.00112845098653414
-0.0103988850780011,0.0112074370382183,0.0446270792434643,-0.000105266764294119
-0.03776985262652,0.0170492548317995,0.0386223809426272,0.000802486163577807
-0.0524366836488135,0.0173589197058828,0.0299761855298711,0.00120639889109998
-0.0288502735823997,0.0169558343918255,0.0226592361439228,0.00134041374559609
0.011081737132122,0.0246071625385836,0.0209838042652192,0.00156845038666619
0.0382060389291602,0.0383402986767018,0.0242312714138489,0.00152677867974818
0.0499119843794565,0.0446612311094653,0.0236498831233211,0.000638546801242881
0.0524243859075634,0.0384656825404238,0.0136526990847761,-0.000724565582271689
0.051259529716436,0.0290530316878502,0.000565181601013133,-0.00163317033077247
0.0503025984322279,0.0261750071939957,-0.00589361153404096,-0.00162596602935438
0.0462974305752181,0.029559835521803,-0.00371615321910727,-0.000920401133322292
0.0425685184765238,0.0333717726131234,0.000439356438642631,0.000189815079175624
0.0465319796181367,0.0281924866781836,0.00189827707511279,0.00139969166695487
0.0539050269860225,0.0104882775074365,0.00403254428711931,0.00198526624259065
0.054335159477096,-0.0053630596707933,0.0065021160091803,0.00152114017792692
0.0392734622066859,-0.0101256306364546,0.0064165289598332,0.000310394688179037
0.0111983193383501,-0.0115169407630054,0.01046900810945,-0.00101416972960051
-0.0114782120230867,-0.0118712741946341,0.0187432963491102,-0.00163033480267483
-0.0201325751906608,-0.00978717661764821,0.0184754363277753,-0.00125001207099731
-0.0222061641861361,-0.00998384233395869,0.00755461205776205,-0.000589384911467125
-0.0165241175219371,-0.0141111119339214,-0.00877977109468461,-0.000425251887715184
-0.00120053372864707,-0.0204890751452098,-0.0291667024240725,-0.000912861779312592
0.0161083948717117,-0.0277902111047899,-0.0449201404516407,-0.00157604011610442
0.0220840627448045,-0.0351203782156254,-0.0459431464461544,-0.00177451190694149
0.00430148377559904,-0.0346915415673242,-0.0326956894772195,-0.00148960942539241
-0.0233364908659302,-0.0172830189005249,-0.0151656627033777,-0.000748901104054829
-0.0283569329068759,0.00834208231002983,-0.00562021300367316,0.000513154349115672
-0.00404559599959324,0.0245322640904699,-0.00618107859195399,0.00178683193084919
0.0264009223937878,0.0248874891774645,-0.0114779560008372,0.00247179469169812
0.0410894116039139,0.0164346050600697,-0.0187076905865907,0.00233315581548337
0.038760828643683,0.00973704401485488,-0.0264183367704995,0.00145525673808561
0.0312778858299821,0.00625761817181054,-0.0319753258878977,0.000110579732823788
0.026984586101495,0.00263330973245507,-0.034447472382274,-0.00119507311839365
0.02555322582165,-0.00178769339510711,-0.0367735311438855,-0.00175054408106454
0.0218859154704428,-0.00750886031223271,-0.0408020570987671,-0.00150748144695707
0.0146936370284525,-0.0124612773040134,-0.0440976706194501,-0.00105331362620854
0.00896564546471906,-0.014859423537031,-0.0440180017477069,-0.000540437061449638
0.00759932108851403,-0.0139050901897365,-0.0430836738354764,1.21331182921595e-05
0.00850490516366345,-0.00871143319849882,-0.0432773248677876,0.000368191394267146
0.00866353779106506,-0.00342627586254947,-0.0403745541631163,0.000560125256220731
0.00919212327297102,-0.000475340166957387,-0.0353936913332041,0.00057269242245167
0.0137801306059282,0.00143017886688486,-0.0324148811241722,0.000437104617350636
0.0187327767122994,0.00459362456499109,-0.0310300876126371,0.000433204479508826
0.0183691472002761,0.0112759855584807,-0.0312456037425643,0.000540921274338899
0.017895352507608,0.0172541476039633,-0.0289693970310203,0.000453771640511379
0.0219417440726947,0.016823183305275,-0.0190146935988931,-4.04939617646887e-05
0.0270055633763223,0.0130854698070157,-0.00645311795484274,-0.000577644175096487
0.0333954399012234,0.00949233975164487,-0.00105654266464936,-0.000780480990440374
0.0397714173789327,0.00771735124938092,-0.000484479794098375,-0.00075704597643601
0.0388173655754019,0.0132406768975417,0.00310773186326157,-0.000529711783768647
0.0307835518712164,0.0206452184689834,0.0038132395148848,-4.53320733597631e-05
0.0243198975566075,0.018791401013159,-0.00430826413330651,0.00064709866656827
0.026019680931647,-0.00252670941015013,-0.0199029810686225,0.00133176353222922
0.040226104180658,-0.0403729907355504,-0.0376791177597532,0.00143702852317568
0.0535934880919718,-0.0669524609557661,-0.0414894466593069,0.000600669812566703
0.0437171493962818,-0.0682095214845806,-0.027994457821034,-0.000672844607826783
0.0206669525711003,-0.0541115089361997,-0.0204116523913866,-0.0015733424235345
0.00960956122710963,-0.0372997130644839,-0.0275209229207956,-0.00173070991559876
0.0181015766375093,-0.0309054796821998,-0.0332236329710325,-0.00139883392464217
0.0332692673698019,-0.0410678272279725,-0.0304892337007812,-0.00114939828377547
0.0359942254221365,-0.0582190591752146,-0.0156753041455967,-0.00111710354436207
0.0247853602162176,-0.0645155561127424,0.0176565001900065,-0.000941675671241997
0.0118282901598641,-0.0466932010635109,0.053741922335358,-0.000380146815333255
0.00365149028803631,-0.00472138316907901,0.06287783297913,0.000772329734776758
-0.00418020021893599,0.0535674384901202,0.041754481776086,0.0022888286606593
-0.0177307914926571,0.110074076778548,0.0168672756345462,0.00324571968382045
-0.0305556466594567,0.132094017171478,0.00279273135054055,0.00311010018862092
-0.0288690577797345,0.107128905027434,-0.00634343910966667,0.0021423426684993
-0.010386271399833,0.056413695702796,-0.0136526233664352,0.000931083589565768
0.0154396029116026,0.00378081102702148,-0.0155827072011879,-0.000154965807138694
0.0334280475645626,-0.0364259596609716,-0.00804806347480399,-0.000794092197175141
0.0382199919909642,-0.0530741225110439,-0.00110158439739211,-0.000702062256090857
0.0409812778907023,-0.0476915560210846,-0.00553737540433278,-0.000386513584059363
0.0418337402361066,-0.0359947731714641,-0.0113122809575455,-0.000604199963164204
0.0329310266975222,-0.0260381348298277,-0.00905836315240808,-0.00112172571722786
0.0215619572813761,-0.0165867618778845,-0.00334262131561025,-0.00127815056005709
0.016906583815257,-0.0100103700534019,-0.000612360607809596,-0.00100009157380805
0.0139904688447884,-0.00922638192616342,0.000722490678911168,-0.000471908271311189
0.0088537834938884,-0.0153380260806976,0.00319139176089478,7.02663504368147e-05
0.00903911184735718,-0.0247652732844338,0.00042261098504125,0.000554560569664498
0.0117757371427406,-0.0278091144515444,-0.00801540218275391,0.000937036597384211
0.00124019660725535,-0.0240811655003348,-0.00774761585200827,0.000997764894724272
-0.0205279283808045,-0.0266650448794935,0.00744567427188771,0.00112633293230622
-0.0302695806569262,-0.0373873461465978,0.0234088758374075,0.00192645160777837
-0.018637368825015,-0.0416320751104645,0.0252479687246957,0.00306658681700064
-0.00299522715379605,-0.0359247001009299,0.014317548066682,0.00348648024509898
0.00256277771812717,-0.0283587491648893,0.00296868033010565,0.00244820596817796
0.00283139914561037,-0.0236965841919279,0.0021675679138269,0.000456956191853618
0.00381628606092315,-0.0216204565298897,0.0105774033500194,-0.00127212223718671
0.00498706425959959,-0.0180710548192217,0.0132516466316987,-0.00192283255016834
0.00677917483327891,-0.0129037734432242,0.00353671956872769,-0.00153141020534403
0.0113964357224648,-0.0112855306036772,-0.00566903610115563,-0.00108343767098393
0.0156784551628953,-0.0132408010920267,-0.00322307531155869,-0.00103412828916734
0.0141251962104184,-0.007924716771349,0.00910332672975707,-0.000532976514846531
0.00947905792345764,0.00792237779000846,0.0226996080697559,0.000739907387945779
0.00393342117439494,0.0269119238068337,0.0259028963681716,0.0019404917283574
-0.00253941089196213,0.0482792183181412,0.0181975620446028,0.00235340426954679
-0.00432430570028351,0.0650067071961854,0.0129041575897254,0.00206941639574436
-6.26543605934983e-05,0.0590940386256634,0.0120104923255325,0.00166210239568793
0.00529981243696734,0.0289979644176727,0.00708859085609616,0.00124772042132397
0.00885457904235736,-0.00543876299677351,-0.00111572235380443,0.000591646805333945
0.00980007949703929,-0.0269189082212023,-0.00781039313788155,-0.000112999005449156
0.00924002737427666,-0.0328778575230925,-0.00986841024088631,-0.000486222222310973
0.0101233717261805,-0.0316813117064493,-0.00722992202274151,-0.000362204895430655
0.0129740232471815,-0.0288577547619192,-0.00373223669483931,-0.000134138099831831
0.0160859894517785,-0.0234966955073705,-0.000419914538383914,-0.000268874670319338
0.017809374915916,-0.0183084548597212,0.001940834435461,-0.000654512530468336
0.0193695274881639,-0.015116063407621,0.00301520944963199,-0.00100971722346693
0.0217673194271329,-0.011975409579673,0.00523111030605914,-0.00110440760644494
0.0221330615706106,-0.00873258722591155,0.00697282839099989,-0.000943833009233408
0.0206390147964874,-0.00560761423326417,0.00619994371161269,-0.000778129249313781
0.0194768793968606,-0.00244873678479083,0.00537821718289087,-0.000617928765302285
0.0188994085199276,0.000769555264447047,0.00579546831656908,-0.000347059161132528
0.0177086491535065,0.00344223571988373,0.00544291769057186,-6.53774492796657e-05
0.0151827738300947,0.0052528951668509,0.00303179863607665,4.17973514125183e-05
0.0137540382302254,0.00777447022410711,0.000565422040348295,-6.28206773686685e-05
0.0131101818127221,0.0110646512752541,0.000389693813074171,-0.000309570260062129
0.0120598933980335,0.0133892144275365,-2.39905286407958e-06,-0.000495914162753069
0.0107494075772277,0.0141017412220123,-0.00158819116623181,-0.000470306943606016
0.00855863879767561,0.013390425374039,-0.00269365365217167,-0.000377497002042246
0.00706801754721809,0.0123492060275189,-0.00367125394028425,-0.000253487891842114
0.00632473097165948,0.0126714341714187,-0.00368671767203968,-8.16139227102515e-05
0.00608353178094866,0.0146258515696024,-0.00371401845030663,-2.60883376234484e-05
0.00856563004878221,0.0167468311344616,-0.00279378506340432,-0.000149459575510356
0.0123898535269472,0.0180962493350949,0.00130765610709156,-0.000145153039002462
0.0152510045001478,0.0192569693131769,0.00506782054464695,6.56292985102867e-05
0.0175914792404801,0.0197745388812225,0.00604634629738773,-5.23388281074301e-06
0.018510637275725,0.0191258081675646,0.00551878307493781,-0.00048882545947557
0.0184142558395964,0.0177794186321642,0.00545263982894127,-0.000989985168179094
0.0186791896032918,0.0201698833846067,0.00536097340655157,-0.00122788575025686
0.0172992834113274,0.0289382819532453,0.00188807433612224,-0.00122099981271588
0.0136438225966125,0.0375634130301965,-0.00224558825269154,-0.00106038337873495
0.0116500538603902,0.040066440262938,-0.00247718430128856,-0.000779870506978565
0.0116988956619888,0.0373284516833589,-0.0014624635837974,-0.000477034894130143
0.00840233733362749,0.0316708640366692,-0.00338716802203402,-0.000240121449812942
-0.000450093956663157,0.0215625761378438,-0.0100726279706045,-4.80355804582538e-05
-0.00779080463489086,0.00690886395387826,-0.0186963883229445,-4.50287444253478e-05
-0.00412904001465871,-0.00976409231088753,-0.0252460407998761,-0.000202931504591598
0.00770821276792089,-0.0239859686218052,-0.0316609793641457,-0.000224121559599043
0.0198135550533994,-0.0350035797656481,-0.0421724849880999,-0.000213832073272617
0.0280275400208664,-0.0467625344027128,-0.0545142089598122,-0.000389122659275515
0.0252006506191694,-0.0539866578287505,-0.0543275869845896,-0.000706568044021451
0.0109759518108138,-0.0479296662728797,-0.0317270051701163,-0.00061619703377915
0.0011171535712792,-0.0309926595693318,-0.0042224673652264,0.000465593113266162
0.0168123800292115,-0.0160811968667471,0.00587359292602861,0.00195372269584914
0.0548342690199535,-0.00929076378227864,0.000865159950510765,0.00276699762141071
0.0846462674217887,-0.00752326986118494,-0.0069712322771098,0.00227379356993405
0.0933026411930126,-0.00826232247527242,-0.0120793878082251,0.000627064222218279
0.0895760505328094,-0.00780228917165364,-0.0106851718147227,-0.00110711328628627
0.0633899181390494,-0.0118504328321978,0.000263370032248834,-0.00207732950773975
0.0064432266470406,-0.0306554994274542,0.0234707565461472,-0.00239626037636389
-0.0384546042548392,-0.0510684137095494,0.0513275147583206,-0.00215720075902246
-0.0289614386700675,-0.046185661186978,0.0614636588371082,-0.000972453687756205
0.0103649002686779,-0.0133067309263939,0.0448774703547418,0.00107053461030434
0.0305004186401907,0.0227380428087838,0.0176219996623548,0.00308357279092443
0.00479199796708089,0.0409292545223843,0.00216744107510239,0.00423816633903725
-0.0564752486597273,0.0451549127988756,0.000923497577597999,0.00440066877175937
-0.0946169125405878,0.0403093598579887,-0.00526720765710723,0.00380916887702254
-0.0678550250885932,0.0191625803220704,-0.0240845008297385,0.00273400303922445
-0.00919359563864358,-0.00770341089823153,-0.041723484995874,0.00134040460159032
0.0303627989847826,-0.0191622285835909,-0.0448116148963268,-8.55779134073514e-05
0.0409493247052181,-0.0134965122578724,-0.0332978200949351,-0.000890720784850839
0.0408606968260564,-0.00698114558456583,-0.0164652851975091,-0.00072612129679847
0.0426920501677818,-0.0121664126102925,-0.00394591280578743,-3.34878399774194e-05
0.0441247069732374,-0.0229904192247373,0.00268383212844476,0.000439302683842896
0.0411082129846913,-0.0280548630822379,0.0087831811188169,0.000193822105813186
0.0329080480191286,-0.0255064756867697,0.015451141787934,-0.000545818504775467
0.0218336144482201,-0.0202022012640176,0.0201873077801614,-0.00104023571412569
0.0133705929211904,-0.0147665282203589,0.0228173204556882,-0.00111188165412586
0.00886388875107915,-0.00769567496625701,0.0249487670806952,-0.00103741582876162
0.00436419121054599,-0.00119185298313957,0.0271988151786079,-0.000645463539929105
-0.00199762003476713,0.00325309731589523,0.0274140795159125,0.000116076179845539
-0.00757736900993395,0.00892449125075734,0.0251600943495463,0.000813355373901708
-0.0108547460703438,0.015145774376762,0.0238978267256763,0.00134907595243493
-0.0130381600666629,0.0190235940801958,0.0246392674460366,0.00189190045529187
-0.0149674382139824,0.0202993218668381,0.0232231449780464,0.00229516530133939
-0.0167809536723204,0.0210541087067133,0.0194494973809732,0.0022334323598226
-0.0170067654474277,0.0227441929464132,0.0163864125113895,0.00181567533930117
-0.0149441353693258,0.0236542367130957,0.013730230485811,0.00149758266426471
-0.0124287216948824,0.0239658317345965,0.0117294285644512,0.00143050741488955
-0.0123858540994224,0.0249164397817438,0.00959953121147543,0.0013497743893731
-0.0152856591856571,0.025714480665402,0.00659523672492399,0.000991463604272462
-0.0174313286138804,0.0263457165975964,0.00439412752595337,0.000448104112442096
-0.0170697751312954,0.0272904124342106,0.0042456128392602,-0.0001145916433751
-0.0155830680676647,0.0278713975592044,0.00564987138313017,-0.000695742338265857
-0.0125082147520684,0.0281135344366805,0.00813967742307495,-0.0013121461476862
-0.00959201479140302,0.0283236423124221,0.0104556788574567,-0.00187491672107735
-0.00782114655014726,0.0303146986243829,0.0110019389167345,-0.0021457227465137
-0.00509603217137221,0.0347486939092764,0.0114883175100636,-0.00202802670366871
-0.00333666688822613,0.0352913922417042,0.0120618683994364,-0.00171733226146955
-0.00290766248127797,0.0301092220678352,0.0110290420969297,-0.00152377142696824
-0.00207243872018071,0.0250243741316023,0.00885116387377883,-0.00149412872891764
-0.00187579803107601,0.0220126617933932,0.00639938699279397,-0.00139511912392175
-0.00278952955212165,0.0189953159523058,0.00383758338088472,-0.00131338113911546
-0.00386708417936924,0.0153796531718467,0.00212060928925468,-0.00144892113023188
-0.00364253121631554,0.0124498361900729,0.000252869788012553,-0.00159142443802961
-0.00152838260052352,0.010907350469173,-0.00192103993742489,-0.00146085087455736
-0.0009165515444646,0.00971004811543901,-0.0017686505682129,-0.00113379568489862
-0.00378144487168957,0.00861721553119444,-0.00131457887078904,-0.000855250839845094
-0.00724313792711296,0.00835660455001,-0.0032176799536758,-0.000692881875508752
-0.0088819088192298,0.00794633697288128,-0.00471053760272269,-0.000588243390843948
-0.00902139373952219,0.00820724198389285,-0.00414244098256371,-0.000596349810799067
-0.00900918772364861,0.00861780586663285,-0.00280303018058912,-0.000617580332733149
-0.00883543553233176,0.00821306208068717,-0.00157893854868808,-0.000468246347987245
-0.00650638059995841,0.00967245592828323,0.00129507951939873,-0.000429557817329385
-0.00219433085263677,0.0113029845505286,0.00602933863695829,-0.000671010283931853
0.00115925752447452,0.0118313230908082,0.00901114506420966,-0.000931322210265961
0.00216136000479526,0.0122645144635021,0.00958203853222867,-0.00116814655226334
0.00153308598139062,0.0117798225414638,0.00907950138743454,-0.00141642197856431
-0.000301702854132356,0.0117117765511653,0.00919942370368024,-0.00159465497877464
-0.00241438166634179,0.0123076724510633,0.011026399108895,-0.00170640051306983
-0.00450238342039155,0.0113726521702352,0.0110934124137661,-0.00177518455218697
-0.00626345673311091,0.00836781901516112,0.00827833622764974,-0.00172775390883909
-0.00525029318676772,0.00431548270877376,0.00599332500624824,-0.00133664599945735
-0.00280755135933721,0.000819327129462113,0.0054541516588138,-0.000756675473814444
-0.00380610580093789,-0.00252718649476402,0.0046142549983541,-0.000473331637060459
-0.00697822106583222,-0.00588175344319699,0.00227500274491551,-0.000585545460129377
-0.00734963410081285,-0.00573167660686232,0.00212816505691687,-0.00078577806162127
-0.00710791068754517,-0.00329000923154342,0.0055944044686866,-0.000705958054637994
-0.0086794520956661,-0.00200297128238091,0.0101739756153763,-0.000434625673224701
-0.0110402265071651,0.000562053277397783,0.0145579886709767,-0.000393376564333834
-0.017173891025516,0.00686402309387854,0.0162475919414122,-0.000702175936148308
-0.02403472408228,0.0136331430082882,0.0146796324018545,-0.000991597468739702
-0.0245847956500314,0.0209627301359236,0.0141473104839924,-0.00083002247369985
-0.0202337297855563,0.0365175876748111,0.0159264694248624,-0.000267074428423602
-0.0125278985731405,0.0566555547575971,0.0172320284263207,0.00047015814836029
-0.00526725130776007,0.0654488508369866,0.0171247461230267,0.00126339363022146
-0.00136390795647844,0.059763096298945,0.0177031031587849,0.00180199042626308
0.00288032808696706,0.0460556097245306,0.0175362662608864,0.00181733440140269
0.00587202045682563,0.025196097062669,0.0110075670545961,0.00137011199963132
0.00534599869788905,0.00213796190652182,-0.00232926716689166,0.000595660370398998
0.00237566831310107,-0.0153354171222594,-0.0171767605674144,-0.000360785182614014
-0.00114446557495391,-0.026146759504683,-0.0269206955522248,-0.0012311584101507
-0.00151260454943463,-0.0352877973808312,-0.0265677472864601,-0.00155515435728793
-0.000322674963697995,-0.0472216880062116,-0.0166304039215457,-0.000814001634394928
-0.00148364583677193,-0.0505401850223202,0.00360762589357977,0.000889810398233407
-0.00745084887642785,-0.0331842615808034,0.0297534539407609,0.00271001352220805
-0.0220440171667189,-0.00321269968786601,0.040389659816356,0.0040363699893491
-0.0381910201814103,0.0240438396082573,0.0245890703591934,0.00449665601533911
-0.0408725129633205,0.0378463992834823,-0.00125250551186734,0.00368817350396582
-0.0333927341170414,0.0415716332635171,-0.0138896246741453,0.00182922977780125
-0.0282289163183648,0.0466430057202128,-0.00614261172834175,-6.26804597352671e-05
-0.0258630831818233,0.0511141743428308,0.00430764240140959,-0.000910676586087009
-0.0232913517490211,0.0456972004285687,0.00355899458814643,-0.000786821837685025
-0.0207589756017207,0.0308731513986107,0.0057381542904897,-0.000534543124261739
-0.0162520490454189,0.0145121445749151,0.0111100726771466,-0.000284289851254889
-0.00571801062564591,0.00206518091513759,-0.0016406557595464,0.000152795331779177
0.00640186854152693,-0.00989844262439152,-0.0236343946961268,0.00034460283979343
0.0102878509173346,-0.0218984313110077,-0.0254232000832038,0.000126831583452318
0.00331214702369778,-0.0245326858167309,-0.00428837702910854,0.000202817036800568
-0.00776835200647412,-0.0172998065007396,0.0138629168708439,0.00104439439496244
-0.0145843516317034,-0.0129809133093289,0.0115900806818257,0.00208195034993834
-0.0148362239343693,-0.0199971142979712,-3.14444580238431e-05,0.00237046125894183
-0.0129347076975869,-0.030059759705747,0.00173123181123224,0.00186452302107541
-0.0135056173888947,-0.0290955636739818,0.0144606102363798,0.00142994178764948
-0.01663053734437,-0.0186653812519657,0.0129815871044976,0.00158058406039064
-0.0197662793694062,-0.00835599599650368,-0.00167112728531315,0.00193377757332613
-0.0210451128451131,-0.000578519405031487,-0.0118703342566186,0.0020419950291747
-0.0219178720661591,0.00223847466418185,-0.0186122154173942,0.00191791498812211
-0.0233229040012777,2.9544203447144e-05,-0.0242627961728486,0.00143112560393895
-0.0245560521219844,-0.0016566588663493,-0.0234767694779801,0.000406798174123677
-0.0261527699476142,-0.00293351867395983,-0.0188652667725473,-0.000703951560025478
-0.027511759472401,-0.00615996938776033,-0.0141276869517384,-0.0012703262754383
-0.0266336771111938,-0.00814103625119889,-0.00752758374022742,-0.00103647014231025
-0.0235919758678289,-0.00910255495418951,-0.000782067563408293,-0.000327898652896564
-0.0200138960094912,-0.0116797872353423,0.00223533728477112,0.00021908637467359
-0.0171098308979173,-0.0127411590111685,0.000426017639595218,0.000413238053784957
-0.0145353222035353,-0.012538335204055,-0.00233460334096263,0.000241853199442238
-0.0124153240388178,-0.0144971007350826,-0.00324534938438886,-0.000444028355477846
-0.012703072913508,-0.017216897911233,-0.00472061892636001,-0.00138329316430571
-0.0156241827540919,-0.0193938246366574,-0.00804033417798117,-0.00192543519312493
-0.0172624872422648,-0.0211740264748428,-0.0129601800975927,-0.00176019531114223
-0.0156498571010225,-0.0205026532196787,-0.0172690547121078,-0.00127907226265787
-0.0155830208188192,-0.0153026483504078,-0.0172190820238963,-0.000933281721784625
-0.0195208082608245,-0.00725567563194915,-0.0138854404853746,-0.000740342878588395
-0.0226616819555669,0.00176724382270779,-0.0120135232118059,-0.000609283148006982
-0.0230664365711552,0.00834886433736106,-0.0123663885824877,-0.000441664256107459
-0.0241502988994256,0.00875977154359348,-0.0115387282503093,-0.000335601743422049
-0.0261965995759407,0.00547634680691073,-0.0112379571774223,-0.00053913629410459
-0.0265291328625884,0.00146054203179997,-0.0134038984623708,-0.000816979877736121
-0.0248333405342976,-0.00375447735378815,-0.0155831994410863,-0.000779666209943451
-0.0217577710964781,-0.00860490725731984,-0.0164546068223887,-0.0005880488892216
-0.0198063694920935,-0.00885450494039508,-0.0147123451071328,-0.000491332930384656
-0.0208215834648056,-0.00494520917215356,-0.0105362821183969,-0.000367515531150345
-0.0213226157762899,-0.00285693720457643,-0.00640247039028608,-0.000258311742138678
-0.0186920899993607,-0.0065792541594666,-0.00537729422942197,-0.000500465554097379
-0.0147260030880292,-0.0139732990712324,-0.00493308777919932,-0.00110398553524948
-0.0131694172540273,-0.0193398334921722,-0.000895592941011149,-0.00161598912346503
-0.0127704385060537,-0.0163464522150906,0.0037713659776842,-0.00178887724770763
-0.0112765954547505,-0.00467231450224374,0.00550444690525573,-0.0018255808302433
-0.00985795149803047,0.00706240464346998,0.00498231545278278,-0.00179313084953492
-0.00839172456575563,0.014260454946712,0.00541645179589725,-0.00143257745546277
-0.00888182773199349,0.0180966726798974,0.00319205220590568,-0.000464177990398563
-0.0106549278888844,0.0176727344840364,-0.00845719376421237,0.000635805590236946
-0.0114058631931245,0.0178873644906494,-0.0205957317179439,0.000641146400575348
-0.0171732875168049,0.0229210364164803,-0.0231225096050539,-0.000690611926977949
-0.0285595844463462,0.0274312771282709,-0.0209957079486958,-0.00218837024692972
-0.0351379643900166,0.0267948331017831,-0.019102750857632,-0.00284745633048081
-0.0314732677006687,0.0213931566202908,-0.0153992768150255,-0.00264441356759342
-0.0248687754786033,0.0167468167501324,-0.0088831937632334,-0.00206112951156671
-0.0230081570842448,0.0146773586764269,-0.0050169495763245,-0.0012801121952474
-0.0212472166731145,0.00841607862507401,-0.00978466553230356,-0.000203220951395438
-0.0145241918704231,-0.0032891596325928,-0.0192973213779368,0.000888084360624068
-0.00787849977837764,-0.0164765099126275,-0.0211312574777636,0.00155566466214936
-0.0067625198487223,-0.0297796073018968,-0.0066285838727296,0.00174655750692752
-0.00951574601390489,-0.0382117198108827,0.0191888264563868,0.00178309159186247
-0.0142692986235737,-0.0338068485111331,0.0362196589281217,0.00188274396227072
-0.0169943548086187,-0.014554856026003,0.0341334048132806,0.00183696147195167
-0.0142498396538172,0.00654434342026342,0.0250005352864945,0.00148068552525394
-0.0110513046778607,0.0133381772386373,0.0173443613050361,0.000824643630415513
-0.0111785860663716,0.00913251034424525,0.0105490594200475,-0.000207162588087819
-0.0134622768974831,0.00422504544647746,0.00697114422919952,-0.0013783809949156
-0.0155857919170247,0.00288575342158915,0.00881282122796322,-0.00207141827495094
-0.0189723157436754,0.00985040665186073,0.0127276218020522,-0.00207339004280958
-0.0236419907292815,0.0226829201610802,0.0142394024873469,-0.00161117262144608
-0.0252655715859608,0.0318726514056425,0.0121514827523341,-0.000578591562833818
-0.0256834548578356,0.0303758561976926,0.00846987101273908,0.00101850459599431
-0.0241469123690724,0.0174146032171297,0.00468002531876757,0.00238939085198664
-0.0129447286340315,0.000568796789185831,-0.000306640883598506,0.0030596099324448
0.0044653221337511,-0.0177671996631399,-0.00647935436781395,0.003348020105037
0.0115524234492985,-0.0388679623286933,-0.0136132106967624,0.00341169971474687
-0.000362539172647361,-0.0519681963853269,-0.0206365851998948,0.00301603307180629
-0.0199008210502046,-0.0521212160893188,-0.025162416620137,0.00190321373902046
-0.026068428356202,-0.0480456703781698,-0.0251330025279594,0.000330168457843359
-0.00926658713691344,-0.0436585230566971,-0.0207492088028974,-0.000825308012878662
0.0132077970478425,-0.0393729996241468,-0.0140828655598433,-0.00108111629217096
0.0168053429961286,-0.0359312076470617,-0.00766986692908554,-0.000892371225067133
0.00551740340809727,-0.0295812828078549,-0.0050755629014599,-0.000845529814224979
-0.000799774620632562,-0.0181629267349154,-0.00385475617800547,-0.000956162246943464
0.0056149660790893,-0.00845911152605891,0.00109933276949739,-0.0008739370416482
0.0203276097361452,-0.00820923263975457,0.0070744028269903,-0.000551656113353978
0.0330103456468221,-0.0117677109771054,0.00819119673668033,-0.000339668912199843
0.0366800701913262,-0.00132281405693645,0.00642669512836187,-0.000158986543153769
0.0277354836587101,0.0319920611457288,0.00907349311247127,0.000616802065765274
0.00396379859886914,0.0707315493519713,0.0165353939201916,0.00203866567567238
-0.0262383355639864,0.0848946349622216,0.0191712022175589,0.00331822496632208
-0.0487900239572684,0.0635146792181452,0.0105842493070456,0.00363776167215899
-0.0522688718218884,0.0219950054795846,-0.00193428770109838,0.00279138856921271
-0.0361917693452423,-0.0136574424377068,-0.0109584906756165,0.00137665634219904
-0.0123944018502343,-0.0268944788478882,-0.0181585031716349,0.000138549188437302
0.010959903056043,-0.0232211564750073,-0.0242258124535999,-0.000518735423751462
0.0240546771570717,-0.0210779647045903,-0.0290915946823698,-0.000387195010128811
0.0204640677104166,-0.0253175894791084,-0.0304014434653088,0.000411796440292824
0.0120677467381021,-0.0233054796786692,-0.0246966922824201,0.00122325382009028
0.0117149728792227,-0.0121623520404743,-0.0168862063982721,0.00122405636470876
0.0174192757298049,-0.00286727549387869,-0.0120608299642117,0.00031647034412772
0.0218591727267565,-0.00015013195304114,-0.0107352405699266,-0.000958607449388197
0.0250640810093888,0.00115989817011359,-0.00986653632361567,-0.0020886638331937
0.0275724700932195,0.00503948228928063,-0.00622855399095079,-0.0025110974174502
0.026519969380048,0.0103782556730752,-0.00320728973260959,-0.00201790871191614
0.0235590215807948,0.0149216836193895,-0.00307674313610108,-0.00120014662799356
0.021560554378194,0.0182195596719679,-0.0026586017335957,-0.000588730427148282
0.0169083721212706,0.0204720393490876,-0.00151542924157647,-0.000165548277561019
0.00862956635495135,0.0217849509173443,-0.0012927143360576,0.000175934746097503
0.00382744548282332,0.0224122755057291,-0.00281144617522712,0.000366354226231736
0.00658761469380634,0.021362760061558,-0.00460160204555826,0.000334596561489377
0.0114024805882319,0.0191061627116555,-0.00413567808838766,0.00021435588927971
0.0105480846824668,0.0187918820005763,-0.00295538341478776,0.000284594589114095
0.00494294946297917,0.0192233988358734,-0.00355364354950201,0.000581557665259123
0.00237498652738544,0.0195915314876922,-0.00451092425989565,0.000861405383962856
0.00380847237313687,0.0214450420234754,-0.00500724293042141,0.000955500469225469
0.00366542914160569,0.0226947720491025,-0.00528747230938553,0.000771533859555052
0.00348117997260926,0.0223789834345415,-0.00483928626226595,0.00039147842716678
0.00759527672901323,0.021357072553461,-0.0040612534132718,-0.000124476785083508
0.0153648130648639,0.0193222302698361,-0.000704014995971519,-0.00067236295032663
0.0224518603643381,0.015822321113129,0.00446495711598998,-0.00108385868322337
0.0257365057780311,0.0133627409623104,0.00692555611779279,-0.00139402079582278
0.0279592496687729,0.0140630819486735,0.00755379965547268,-0.00148440544683733
0.0305948634290738,0.014763836809289,0.00939691398526962,-0.00122795462206761
0.0303522262296639,0.0117565093701774,0.0126463895337883,-0.000791105254195302
0.026916768765207,0.0068113125151065,0.0144423496624424,-0.000481557950125365
0.0236595163548355,0.0021590065515852,0.0114106534051329,-0.000426286830150916
0.0222146434708901,-0.00126926635808956,0.00576305999278299,-0.000454974497464353
0.02140614882142,-0.00243446166355752,0.00188052181589762,-0.000528845743926468
0.0211629949251928,-8.1794073734231e-05,0.00138333628538208,-0.000498635085101666
0.0215074269924647,0.00595934003547441,0.00327418354027308,2.38725079660703e-05
0.0214595915328105,0.00879614184140838,0.00508055187559936,0.000850735998225101
0.021071253306841,0.00751359100506729,0.00652447097278772,0.00145307806241111
0.0197211422438927,0.00847279588227761,0.00748637753563947,0.00147981812466527
0.0163172172705511,0.00902484113890312,0.00755734841371104,0.000704436408277286
0.0120972839641927,0.00705063204388185,0.00850563006983654,-0.000584425810082699
0.00858549276557631,0.00247623482007264,0.00849459611239516,-0.00166677975361362
0.00773190226596353,-0.00305865809608379,0.00751251171657755,-0.0020277623353514
0.0127850656045822,0.00183957820908941,0.00701714922203069,-0.00148880901008834
0.0218242580820056,0.0183325927735543,0.00230345180650677,-0.000545562835139438
0.0279813958746947,0.0309928499169409,-0.00466151292620495,2.09462005439827e-05
0.0294705114668629,0.0321019030182463,-0.00704927228838207,0.000163512070837829
0.0305017480531053,0.0278361043266604,-0.00437209273403492,-9.57682798834682e-06
0.029601141724821,0.0232298588684934,0.0011530990101628,-0.000427948277669702
0.025408006288436,0.0194980289440373,0.0106244086347204,-0.000647888992294761
0.0229918483236913,0.0164261937095929,0.0215772814891424,-0.000460453792807906
0.0229267448143786,0.0144049597319369,0.0255041488484441,-8.62424996363699e-05
0.0264384774412806,0.0150940668724083,0.0214296986128195,0.000318283800471819
0.0365834148602232,0.0159061387883984,0.0141158822629437,0.000445387659684597
0.0420339449776183,0.00886443629805242,0.00609253019419766,-0.000210802427327564
0.0359807086662577,-0.00726011976535577,0.0117064791724696,-0.00146690051586884
0.0343469973661846,-0.0183345800805259,0.0374196994868217,-0.00230799842277454
0.0453892913526177,-0.0179723735389808,0.0543094096614897,-0.00158428201816337
0.0561414387664,-0.0168611735130299,0.0398998725497592,0.000692513549571349
0.0555202817660956,-0.0175261327298266,0.0127133629857799,0.00290278038136098
0.0515729140508377,-0.00990260019261238,-0.00329732616451346,0.00353897420524731
0.059108014161914,0.00372503459271473,-0.0138703634524327,0.00269327638490814
0.0703710145858424,0.00389440432409352,-0.0280401839736819,0.00129520672543799
0.0482314499057599,-0.00997725591023964,-0.0331806700791859,-0.000192369576092648
-0.0207341010382169,-0.0146640884355167,-0.0176012136755854,-0.00120513720389601
-0.0765238837235142,-0.00773456098739111,0.00625708985996664,-0.00081454402858651
-0.0697282623656253,-0.00566186760853939,0.0174957531545653,0.000980060253738776
-0.0337182992438298,-0.00729389684383287,0.0116472401921757,0.0028684573422278
-0.00939179687268707,-0.00411842239989387,-0.000768007211497439,0.00315483462366506
0.00588514997457443,-0.000252673240377373,-0.00874706179314252,0.0013923291658636
0.024016154592917,-0.000808670801559795,-0.00926194973108629,-0.00104555138056913
0.0429785512149574,-0.00399496981991218,-0.00364292797407418,-0.00260761937059868
0.0549161308811614,-0.00906948887353017,0.0072182687271348,-0.00288083920643554
0.0544294390959483,-0.017177474343273,0.0202952207494927,-0.00233635522868977
0.0449514841049385,-0.0264400717609868,0.029122180112063,-0.00146729449344506
0.0343547323823786,-0.0360661917433638,0.0268587830696118,-0.000382324333838384
0.0283385572280905,-0.0427093425734508,0.011143271584907,0.000601095189804559
0.0280692507919603,-0.0439662936982078,-0.00964457512800157,0.00108808573741381
0.0268544405316972,-0.0443867660722762,-0.020259683220506,0.00128461451799226
0.0197127461203195,-0.0451731802983326,-0.0199046432686378,0.00130680014987115
0.0114217599392223,-0.0447318237172366,-0.0196392691792504,0.000998403261795917
0.00749002349641226,-0.0452104305644404,-0.0209385414246648,0.00056817641108525
0.00792363850250872,-0.0453996769437648,-0.0205706093679361,0.000398156498280101
0.00982275430745406,-0.0427061773306904,-0.0184001204561776,0.000584528812538439
0.0097448853535554,-0.0378548610497743,-0.013682012557321,0.000925573107814042
0.00622299571912901,-0.0317956708628063,-0.00936063426600364,0.00120968934490665
-6.2293374808797e-05,-0.0295639010726957,-0.00953773620482022,0.00114611791582505
-0.00566833401466202,-0.0305249593118706,-0.0094554790920737,0.000747249846213719
-0.00740299292022892,-0.0288136717287227,-0.00607126777909985,0.000453847597102236
-0.00720826115808219,-0.0220007966212987,-0.00233432747113425,0.000425647787141566
-0.00381419113405047,-0.0131544568066352,0.000537706540380219,0.000639159262146151
0.00422387320822435,-0.0117797749742889,3.34758799221367e-05,0.00102785023970695
0.00730329266198318,-0.0140113035513834,-0.00474057098254588,0.00115329951163263
0.00106733114669724,-0.0105045870342708,-0.00909574271924363,0.000740527474727446
-0.00557545031261714,-0.00730106412586792,-0.0106398393537818,0.000118280763796926
-0.00548095790315581,-0.00960062420815423,-0.0116818799830711,-0.000291522251061633
0.000644142556073816,-0.0149499807538282,-0.0129963453119421,-0.000398706762872021
0.00733988223133077,-0.0204751297143324,-0.0139244141776951,-0.000565696345635299
0.00916182958488338,-0.023502366726292,-0.0152686543619928,-0.00105177511395993
0.00644842802336212,-0.0232974649398883,-0.0172736548901836,-0.00158968260438025
0.00351058082519962,-0.0204841337360739,-0.0189357317860345,-0.00188360774060238
0.00147482276939982,-0.0158490487851695,-0.0189268792829952,-0.00185384770326892
-0.00244885766685489,-0.011822297230451,-0.0171772438859406,-0.00144816756909408
-0.00804346152874611,-0.00809706872642273,-0.0135569083762226,-0.000840915338353338
-0.0107328207438365,-0.00337567312938352,-0.00745371982358806,-0.000338215163650699
-0.0089617530743944,0.00278035346416828,-0.000495743278394036,8.07111937932339e-06
-0.00573372001625541,0.0124497810231972,0.00440997726684853,0.000184976306615052
-0.00342377994526039,0.0222435389467019,0.00710982207141768,0.00031327376632918
-0.000735768445325348,0.0248003807693229,0.00939860271436932,0.000572550974421548
0.00535849903205411,0.0192327122905404,0.0127222365899915,0.000599778517102813
0.00977564163729952,0.0115820328535878,0.0163214847009937,0.000162033556147017
0.00548910179888096,0.00770435376431512,0.0170321703141735,-0.000518009595191158
-0.00131011258961142,0.00769109570640655,0.0150119415373675,-0.001184752619004
-0.00351137459483216,0.00973214641376399,0.013034836725321,-0.00145206141519261
-0.00211332205874422,0.0141100471206785,0.0134936324419633,-0.00133983808455575
0.00136229773304861,0.0175307068277036,0.0152040036519791,-0.000978012913284453
0.00329407631527322,0.0181789956527434,0.0128811390573754,-0.000334734607673985
0.000282440583272241,0.0194253730134075,0.00707254592175532,0.000226990555981154
-0.00649889180090176,0.0243447275874046,0.00149393256360292,0.000546189796049862
-0.0155227400628227,0.0341016281933934,-0.00483220578069701,0.000639819578860924
-0.0222083270262905,0.0448037537499724,-0.00987295142226064,0.000335675607233818
-0.024745897026337,0.0492127671195664,-0.00872766385313124,-0.000124981119971476
-0.0261598285580477,0.0477398501873373,-0.0025831576168224,-0.000427278594889722
-0.0242210457815907,0.0480859532709415,0.00389013708494983,-0.000540099294810151
-0.018839248627492,0.0522207193444301,0.00885629400695602,-0.000540869543875472
-0.0151729463568243,0.0555252884266737,0.00979906199046538,-0.000701981507317391
-0.0133447769459873,0.0530278497125905,0.00437596511119388,-0.00107013899409781
-0.0091657680331987,0.041412029856154,-0.00105992248115337,-0.00156782141211558
-0.00253204188641157,0.0205522334400549,0.0031038603299474,-0.00216298833805682
0.00290818514216876,-0.00639386684958042,0.0158362875085734,-0.00260517597170498
0.00235735008139222,-0.0328916552974135,0.038748352516762,-0.00251845389782984
-0.00635549314098178,-0.0439056300229239,0.0646170993493384,-0.00154793942557274
-0.0126592468416958,-0.0308722108418449,0.0620704300993316,0.000162968065863655
-0.00525536183304307,-0.0141982575649361,0.0270019696683007,0.00175152517717005
0.00659213537952411,-0.0143380976546604,-0.00993007646929526,0.00233229365881413
0.00777401035309999,-0.0198932965425006,-0.0295166112154086,0.00171028098242599
-0.00303690746473705,-0.0160488863259212,-0.030216614599145,0.000493818442950096
-0.0203235928727226,-0.00776634438548714,-0.0122176258966305,-0.000409958327809076
-0.0365886307979057,0.000752441973245511,0.0125747314709611,-0.000625011823538181
-0.043314984070641,0.010497605112171,0.022449651430485,-0.000237960163500892
-0.0391209088905269,0.0173674525331065,0.0163038304282351,0.000495560868048057
-0.0296868902493761,0.0187142293735343,0.0099015255641337,0.00102047446656927
-0.0209191984024025,0.0168489682755786,0.00989680734851124,0.00107043411214405
-0.0127882541159123,0.0152586571814901,0.0115127534087279,0.000647753905630153
-0.00479445553607064,0.0144712852058528,0.0112141827043201,-3.24690841592996e-05
0.000446240974280657,0.011812684710885,0.0106908422964046,-0.000502074401697568
0.00274838802184108,0.00318112492265467,0.0115194800417264,-0.000737135312382462
-4.23653848886426e-05,-0.0124176299690235,0.0129034367043794,-0.00101571663185594
-0.00587673343081904,-0.0286984182465997,0.0157021154533627,-0.00142693995281677
-0.00910408258314555,-0.0364442618871357,0.0215649868907661,-0.00158571994714866
-0.0120090284047218,-0.0320284250361392,0.0290643243687096,-0.00119681160327491
-0.0159763952282196,-0.020860183606185,0.0346410748864492,-0.000339667347445061
-0.0159094148995771,-0.0126737514419228,0.0331955783770712,0.00100637405917844
-0.00800486420427005,-0.0128142258269977,0.0231848460283798,0.00267102931686314
0.00514057436328477,-0.0202259433990555,0.00802521161596267,0.00384605908161421
0.0127443923422022,-0.0291629437219744,-0.00673666220696294,0.0037315328158358
0.0116570536432428,-0.0351365758627551,-0.016031212384121,0.00260002729211359
0.0104257374142822,-0.0410104507186946,-0.0210850349921992,0.0015230932855942
0.00772261353165528,-0.0452258413299044,-0.0226542373299289,0.00106805755412602
-0.000390880519799918,-0.0423520450448933,-0.0185955710736707,0.000657705488099919
-0.0092114338517957,-0.0358626110563916,-0.0120298259500163,-5.53484263935413e-05
-0.0155920790436948,-0.0301158365163338,-0.00792423399779642,-0.000691956169095529
-0.0184836919297141,-0.0191705134977962,-0.00472484374485881,-0.0011260561158284
-0.0162603232710896,-0.00214703486292544,0.000363884435496131,-0.0012066972407477
-0.00830471660391326,0.00318766858441224,0.00462744121641363,-0.000778184750783351
0.00273027836964711,-0.0110121737797159,0.00590625941407543,-0.000212088112264922
0.00994041320961809,-0.0266031080051019,0.00625335049224472,9.45424553184622e-05
0.0131493954867461,-0.0317883916293411,0.00838119899373787,0.000143917267580417
0.0167487431157905,-0.0306848937281243,0.0103135506820199,0.000118551306889077
0.0159388803696429,-0.0290691761115373,0.00902976662572265,0.000196749448669272
0.00768816985101427,-0.0270930246910368,0.00653806937447401,0.00033309737397001
-0.00151914883504067,-0.0198139074031562,0.00559296671867449,0.000485995496579588
-0.00676916725900657,-0.00931544423447402,0.00527197332516863,0.000655062283281181
-0.00970595692365292,0.00254949965834279,0.00340352085903764,0.000841840458378555
-0.0123693959632922,0.0168087849596897,0.000380545993771287,0.00120704913111436
-0.0113839155935083,0.0262676511487208,-0.00215414179805689,0.00172196951494033
-0.00381839390134448,0.0234674624888753,-0.00525536531610791,0.00217311348622766
0.0074850781305485,0.0123015327924217,-0.0103589815722098,0.00216659867862506
0.0156556467123937,0.00316813866890102,-0.0151380311071967,0.00149054655246476
0.0152588619079515,-0.001116174082452,-0.0186346769725539,0.000498278392083933
0.00831986830358306,-0.00398050960117233,-0.0220663570314451,-0.00037240188789615
0.00175294533257486,-0.0046977657098891,-0.023019303016175,-0.000768117950684682
-0.000945622973182176,-0.00063575420725456,-0.0212826442627637,-0.000668222175570041
-0.000969258977641732,0.00714046610044801,-0.0188396434697888,-0.000548314073662649
0.000156908429338375,0.0139438999867292,-0.0135154555166419,-0.000841519586329974
0.000871296270445718,0.0163497631358653,-0.00222159748981583,-0.00133306852615858
-0.000944709651552076,0.0156926859837104,0.0126266677975593,-0.00151017026099549
-0.00422580405904861,0.0162910449124153,0.020212976419941,-0.00120906562396931
-0.00410009970410915,0.0193045121278083,0.0144584684379577,-0.000679336318545974
0.000616135851221259,0.0199789195694158,0.00298279978880917,-0.00032961025206904
0.00471832008433995,0.0118119307207241,-0.00721699623502411,-0.000187020086698291
0.00361512927364721,-0.00210270920889039,-0.0153889514481172,-0.000401739152889521
-0.00103434049112599,-0.0113929376867737,-0.0172184951353771,-0.00106929617940894
-0.00477746680365152,-0.0155517675424124,-0.0107489677516029,-0.00159106841244044
-0.00707613648821897,-0.0168527513306232,-0.00190814918306915,-0.00163750695993314
-0.0109053155852499,-0.0126310821625866,0.00667547153403623,-0.00121544875140421
-0.0159335848587795,-0.00185477597535568,0.00903190353944784,-0.000138085925549704
-0.0177984223873596,0.0122837830423481,-0.00175677883772542,0.00147195019572499
-0.0159118185748969,0.0235081072664114,-0.0168681414323037,0.00274480747893201
-0.0129651798875521,0.0243837454662753,-0.0265807301357868,0.00268009383738198
-0.0103604212001578,0.0130801940450576,-0.0310762547701859,0.00131847159464251
-0.00929077538225493,-0.00118023339514506,-0.0321111678173757,-0.000436278607569246
-0.00588487787806702,-0.00931722697062448,-0.0260743928483486,-0.00190015504771174
0.00900631404477784,-0.0125926861164066,-0.010265167327725,-0.00232940170546742
0.0349853383095523,-0.0183911706197262,0.00662980318438414,-0.00118016686074569
0.0559930881159389,-0.0324369292412127,0.0142693109968099,0.000737091783633459
0.0594351455557018,-0.0554765193722156,0.00991136800370026,0.00193925161919189
0.0480073132856278,-0.0781468406747292,0.00539221317802722,0.00149183309796923
0.0347831273003735,-0.0855882232121091,0.0107599119240528,-0.00025781117523089
0.0324232253400166,-0.0757858904624788,0.00985240769565648,-0.00192280751580575
0.03549515291439,-0.0578947971968732,-0.00402167545924386,-0.0027071543336846
0.0315044744421351,-0.0347979851069714,-0.013934838423452,-0.00279740904176825
0.0207039917679171,-0.00344012854567934,-0.0136622817710652,-0.00245706243726146
0.00743711098803031,0.0299921387922453,-0.00894815204848103,-0.00176323710321025
-0.00277388076718366,0.0418371342112609,-0.00717461526025506,-0.000762375720942052
-0.00822014396423875,0.0173716894956454,-0.0101532753731387,7.39929640513632e-05
-0.0186834975649375,-0.0175550885352081,-0.0111453738003766,0.000434679506889969
-0.0347450605778486,-0.0267297480149182,-0.00911869560138413,0.000630114115683536
-0.0477993465979287,-0.00893964792611908,-0.00618215682818725,0.000744428376777418
-0.0531710405629251,0.014231668250042,-0.00116956434940957,0.000998111318367351
-0.0462781038905355,0.0256404600502857,0.0015925182177012,0.0016886061974556
-0.0300317141377837,0.0162943515813877,-0.000680329906890586,0.00254783353696156
-0.0125417263922879,-0.00699112099394776,-0.00250259088828757,0.00300695748207488
0.00752510910375488,-0.0226519541679322,-0.000669237921007707,0.00251903313833573
0.0335747973265028,-0.0214681352966575,0.000568860733647404,0.00126331248440931
0.0540505320924947,-0.0173546802948625,-0.00251883655243539,0.000139648214021626
0.0533031475710708,-0.022304175452475,-0.0067005147881849,-0.000459310162111331
0.0372640897452906,-0.027093735947792,-0.00762573248957482,-0.000995349530613969
0.0280544715640286,-0.0214763180030491,-0.00523912949775736,-0.0016327574284405
0.0314526988303723,-0.0136247962249903,-0.00242715020089904,-0.00188486753142729
0.0362769700606931,-0.0113310115553742,-0.000755533434348112,-0.00163268536032055
0.0379881586559471,-0.00824703968595763,0.00101243865013309,-0.00129613264503032
0.0385853886564192,0.00140062694420408,0.0035918903859807,-0.0010129632225048
0.0375267969937696,0.0106993116988096,0.00574118474437465,-0.00048036178536004
0.0313140739993446,0.0139635038530093,0.0058161960625406,0.000355290261378391
0.0185386637197699,0.0165094104101004,0.00390241199373306,0.00122326203037529
0.00359471072779941,0.0200641697836272,0.00123224828434623,0.00168908515707219
-0.0119757471325479,0.022709725201485,-0.000774838587460545,0.00144824687583722
-0.0322685263515859,0.0258604482166961,-0.00156216772872312,0.000859626757047856
-0.0496901036367511,0.0275131693651555,-0.000504363606253205,0.000296090913027559
-0.0496243605869829,0.0257403709404206,0.000391775049384177,-3.70556775894264e-05
-0.0352287355031409,0.0242513153634217,-0.00271219654671307,9.91977968585384e-05
-0.020456681723771,0.0269344004870463,-0.00520624311692134,0.000428962081410005
-0.00923450851804255,0.0326064189487032,-0.0022190963066966,0.000627941397440693
-0.000398349821182069,0.0362277915863523,0.00224731918190038,0.000671700313681587
0.00566714614520125,0.036434781225284,0.00616174522830502,0.000474948194891848
0.0103055216019392,0.0333131099762196,0.00907064249481121,8.88100321490057e-05
0.0138471736881756,0.0279525128771278,0.00966093676325932,-0.00043314109356442
0.0158268211309686,0.0242678463373089,0.00993147622383108,-0.000986332929328759
0.0162701666304959,0.0224064849874597,0.00993044531088162,-0.00124131274519299
0.0161732223009619,0.0216512483576463,0.00877626837105452,-0.00118165039416923
0.016728110780908,0.0204700877709818,0.00791319310775778,-0.00100094793444591
0.0169767415860522,0.0165921078370914,0.00683164622939101,-0.000735137982197925
0.0154186785342941,0.0127213714812972,0.00449686458656555,-0.000460367760698601
0.0114805832140398,0.0104705542097708,0.00215172263523053,-0.000260810607682588
0.00711051605649867,0.00842912282325304,-0.000123352056050779,-0.000115529257859545
0.00480351800314433,0.0100397152734593,-0.00483496257071467,-2.24508327438424e-06
0.00310552743037374,0.0159437312795914,-0.0120261013399245,0.000165064768192173
0.000649811836910385,0.0207267895757496,-0.017773310532941,0.000376294185611504
0.000589590207358667,0.023306724324472,-0.0206465684370017,0.000612339878033721
0.00385806678732217,0.0246446268644848,-0.0226929178496117,0.00087229483115447
0.00861216608467099,0.0243968684464615,-0.0243346105743176,0.000830359462373999
0.0133682238035539,0.0232776775810972,-0.0247204224198801,0.000377095550461548
0.0194857476924239,0.0238824686112843,-0.0228730041112109,-3.07841771310343e-05
0.0299943166412084,0.0240150643116936,-0.0168714324478838,-0.0002869291090414
0.0400289942098997,0.0177171070178341,-0.0098242883436283,-0.000726261026612023
0.0452338287444705,0.00517781929179341,-0.00646352982879657,-0.00125491852711411
0.0472087484513151,-0.009650992359351,-0.00137542851520504,-0.00172382880392492
0.0445719957892168,-0.0203926296818786,0.014365561904108,-0.00215689805115169
0.0385537532234416,-0.0190035995647083,0.0305554434310625,-0.0022605614283158
0.0348907744458651,-0.0109277449679359,0.0279628930092437,-0.00193041411849277
0.0341511914763488,-0.00449288320389462,0.0155930576490419,-0.00154417957890418
0.0218547631495866,0.00396008068620346,0.015361430425384,-0.00122858003607137
-0.028893836404344,0.00995054973069576,0.0272920670528768,-0.000598194550508399
-0.107045436267174,0.00474777408113437,0.037013962309632,0.000638187226923282
-0.144915383831977,-0.00662913413503258,0.0342699764723339,0.00215010825760602
-0.107277106101853,-0.0144583060363751,0.0188814005704595,0.00334345220610936
-0.0385317551077997,-0.0134167454444968,-0.00633264912762393,0.00399062585371169
0.00738780872943792,-0.00340140996459381,-0.0395314813414687,0.00371617620873519
0.023636912655471,0.0106515288705116,-0.0610190555570208,0.00216496277517327
0.026811995417315,0.0217863901818104,-0.0535938748318616,0.000385154319048841
0.0236547708423401,0.0221643076951351,-0.0362377018944048,-0.000335116862538573
0.0178740330452397,0.0168608909490576,-0.0249811069904667,-0.000388167646171414
0.0178565298708659,0.0169788799067108,-0.014104148103792,-0.000916320495558726
0.0243160890126456,0.0156213162338762,-0.00211857900351096,-0.00205104952596666
0.0268831990372185,0.00815827964773907,0.0103055475155396,-0.00319164632750052
0.0158114352823402,0.00358878343621208,0.0227405463558974,-0.00398225121713854
-0.00625495223358854,0.00364662378334419,0.032517564737822,-0.00392505978635605
-0.0174007103368876,-0.00195009651741119,0.0390140273638097,-0.00274823388747717
-0.0027810249401,-0.0202204629505033,0.0426650612040422,-0.00116322171925726
0.0199247614546092,-0.0405085014479959,0.0474671650389615,0.000262962181839287
0.0230399922406007,-0.0467699097145772,0.0508954270183388,0.0017974215073591
0.00623627282047382,-0.0385967681442668,0.0435328059292759,0.0034193320701599
-0.00685145260040662,-0.0290542967219172,0.0252774430485346,0.00433586829665475
-0.00779869388175876,-0.0246028652420117,0.0041862059441542,0.00401692278992838
-0.00717145509939723,-0.0209207152399055,-0.0116012221813932,0.00289722779182558
-0.0127074578686923,-0.0138948721802502,-0.0199569092973988,0.0017293992513316
-0.0216389388589874,-0.00533171489726757,-0.0236845479660433,0.000907405068185471
-0.028674459034411,-0.00129635110894826,-0.0268376236672349,0.000607105881815833
-0.0345504944080164,-0.00394036619366916,-0.0295848293838556,0.000601130285503745
-0.0370813514185285,-0.0104700150150929,-0.0271160399778019,0.0003948146845141
-0.0334423272547952,-0.0183001659633738,-0.019993119392611,0.000129590929042499
-0.0276144769328206,-0.0257403299906379,-0.0131337688781452,-2.57165888935414e-05
-0.0213871243631657,-0.0289869515984823,-0.00810766223473256,-0.000354895282140566
-0.0130337171006368,-0.0278491770795377,-0.00452112360622845,-0.000777106253739304
-0.00554606511813598,-0.0251441377389759,-0.000801644149522471,-0.00098980745884099
-0.00228019658588672,-0.0239516434278428,0.00213803061203721,-0.00104298505501012
0.00212674627135462,-0.0268233160118971,0.000976705667426598,-0.00118428772012811
0.0111674255681836,-0.0291218776576171,-0.000253651273120024,-0.00124148420654657
0.0201400938907088,-0.0276446741857207,0.00325028996129739,-0.000872112013658151
0.0240016262357567,-0.0242551948291787,0.00786014967869891,-0.000265443610915085
0.0229131131903778,-0.0213863273496799,0.0104763828743509,0.000305533580288608
0.0206653598940402,-0.0164371485602878,0.00869127127171524,0.000778848512134657
0.0168065090919009,-0.00290221059201793,0.00445592001887287,0.00104355638676885
0.00925665236263551,0.0109083234043704,0.00682735307715525,0.00114564123262176
-0.000823673468787367,0.0125890807587349,0.0138962006113111,0.00121816343312669
-0.00900812844126938,0.00763021822983018,0.0148299807474582,0.00126821540495285
-0.0115687713477371,0.00583449276935979,0.00828085277962588,0.00128675321441142
-0.0107864858333044,0.00420893270663177,0.000935185343581744,0.00120301671617549
-0.00786257140224069,-0.00213871370722964,-0.00379374910837649,0.000879174897051733
-0.00329616301949631,-0.0086778876163468,-0.00591697094526519,0.000293226503436352
-0.00212937333290577,-0.0111712575325758,-0.00626554926084484,-0.000314358950133389
-0.00445912439604192,-0.00989879219413835,-0.00688494938740879,-0.000678597731560517
-0.00357189771784831,-0.00619289887175494,-0.00625547078463106,-0.000789118058248982
0.00199445090441078,-0.00307496460856897,-0.00355675270660274,-0.00081444475179614
0.00672997578670142,-0.00149249480088804,-0.000971298581874622,-0.00102442068255162
0.00644246099964146,-0.000433638111786955,0.00138680399057122,-0.0014505998357643
0.00373757861801573,0.000184091314122605,0.00464913993633462,-0.00176996880034371
0.00254682109800923,0.00126745222337485,0.00741845529099463,-0.00158350578605256
0.00191828201290993,0.00337537004345838,0.00668438658631509,-0.000865453817155292
0.00158410457696341,0.00658619024895978,0.00600185024068037,-0.000190607571085502
0.00107181476429115,0.0119894099668625,0.00751032863850068,1.57747220720834e-05
0.000316193505301024,0.0241803839652368,0.00343024239232033,-0.00025019251776221
0.00210203559306385,0.0395430935679196,-0.00913857992217156,-0.000752979741165112
0.00517924161706907,0.0434002312225311,-0.0190877292040179,-0.00110969195748125
0.00409331879535099,0.0340214031874301,-0.0145051549329159,-0.00104258396620528
-0.00466914907957696,0.0241386105476106,-0.00107935921244846,-0.000435065665166668
-0.0191761493405644,0.0213435519423389,0.00730259681643015,0.000161082222392274
-0.0321050441183394,0.0223810305344492,0.0123531099090667,6.05323615488008e-05
-0.0366620742371546,0.0215884106498022,0.018110480247018,-0.000539129290295576
-0.0314876898516548,0.0180075110133512,0.020714104102307,-0.00110532096290351
-0.0205196796809787,0.0118313822390225,0.0208054085650813,-0.0014083809690211
-0.012047548723238,0.000269689512112713,0.0221659645451246,-0.00164952772599818
-0.00996003774800585,-0.0123091777368218,0.0335449662242382,-0.00187959468943954
-0.00799803012337011,-0.00965546523086096,0.0589194386664688,-0.00158305568634235
-0.00118538329706334,0.0113330500207168,0.0712541469197032,-0.000186880250633632
0.00522811839474361,0.0304059596959427,0.0449434014746131,0.00195374543945853
0.00553086408609308,0.0284829069575936,-3.46284967180921e-05,0.00320941657689471
0.00339741780905856,0.00781540268611884,-0.0345431149870729,0.00253381451303883
0.00492064487438159,-0.0117583340534749,-0.0514101775511006,0.000846393475715719
0.00815770828017267,-0.018956658809097,-0.0549858656562956,-0.000318045793593261
0.00268163704345857,-0.0196394478648954,-0.053467851312562,-0.000564060242355343
-0.0116278855505581,-0.0192330773785019,-0.0501129901776098,-0.000354979626875104
-0.0186227960610862,-0.0183517532980309,-0.0422937687120157,-1.1848641083218e-05
-0.0115132221916836,-0.0173315445950268,-0.0299099259372357,0.000331457688948808
-0.00239266666066716,-0.0147334687029042,-0.0176270941422046,0.000551424745772157
-0.00555379861579565,-0.0108439090521069,-0.00934617615587436,0.000604092524018595
-0.0236382777855012,-0.00756630535182762,-0.00523761979180144,0.000454894366037485
-0.0453446012163486,-0.00169478517372872,-0.00432214193183972,-1.74839273504308e-05
-0.0516491722649752,0.0124688929962485,-0.00454742751720957,-0.00066970864670651
-0.038417555964361,0.0238100534174632,-0.00157724869405031,-0.000958383935372353
-0.0246450442681912,0.0129989930112259,0.000635364200070727,-0.000556806704783437
-0.0231009455344452,-0.0110132322464912,-0.00581972604622723,0.000158710856082746
-0.0251343958873884,-0.0298369352996958,-0.0169605980771388,0.000731513209195426
-0.0196720946830903,-0.0421514323863129,-0.024818607346506,0.00105742036962513
-0.00879841040355452,-0.046915281125485,-0.0244173992116347,0.001240341163768
-0.00333005631238717,-0.0402627135766611,-0.0189055302267804,0.00148563210572444
-0.00636861476452864,-0.0260489433749246,-0.0160457677094876,0.00160565716522561
-0.0106169953751019,-0.00972924285790854,-0.0153144304140486,0.00142495506552424
-0.0111385441918331,0.00859144143887091,-0.0135730016459805,0.00126980978073943
-0.00845019667050869,0.022627351698399,-0.0107850352511634,0.00125222266103071
-0.00662888501628362,0.0204558707020752,-0.00811177759590146,0.00113861054041251
-0.00834572143972229,0.00711012513247187,-0.00787281142858348,0.000925611390939276
-0.0123966393640569,0.00320736591237349,-0.00916662233587886,0.000830531871170453
-0.0175620414979518,0.0131058715618938,-0.0087926143164154,0.000837655815789614
-0.0221011960834013,0.0168454267325156,-0.0100646151471633,0.000895929762681174
-0.0238703099720131,0.00463466044314317,-0.0143720119672469,0.00107865530907101
-0.0235143222322294,-0.00814228361798557,-0.0167762271395946,0.00112598814250754
-0.0240785577164296,-0.0103559006566619,-0.0160363030521626,0.000801974848062295
-0.0255598733336173,-0.00707225529308952,-0.0154650028166487,0.000457356874833524
-0.0253974297461991,-0.00285443834877787,-0.0159553533806375,0.000387889002840218
-0.0240285550490809,0.000756771138102491,-0.013747413676979,0.000417617887114165
-0.0230826583224615,0.00194448079356411,-0.01005356955949,0.00023460916335931
-0.021923095686637,0.00379681147198983,-0.00830511096631437,-0.000267065175323098
-0.018410523363137,0.00913670082093088,-0.0044707653684704,-0.000655883482708495
-0.0134824007890424,0.0144382443248247,0.00252339394089886,-0.000681318611061233
-0.0103272244117098,0.0182746939653024,0.00845905129389881,-0.000716790784743887
-0.00973869212401101,0.0214559172280657,0.0115332220301194,-0.000891837670999095
-0.00942007829805674,0.0232591175036823,0.0120365761186953,-0.00105077565274664
-0.00785991202878596,0.0252060154914011,0.0119773429958891,-0.00117701909720208
-0.0068548090249105,0.0280750114764344,0.0122329159606747,-0.00122013119274823
-0.00751617921149165,0.02961569469421,0.0127351967184604,-0.0011186067255463
-0.00910951072729014,0.0286171701533387,0.0121628593860413,-0.000991112509333242
-0.00897137661273829,0.0275266606994053,0.0109364043526189,-0.00085727989859235
-0.00805243104204488,0.0282757408061368,0.011663769744799,-0.000621230914159444
-0.00923681714856468,0.028276748196852,0.012477250911755,-0.000379246646927522
-0.0103015125697235,0.0268687973352965,0.010110797494267,-0.000229388613081065
-0.00953943681180674,0.0266858644975391,0.00687236297309652,-0.000139589267694936
-0.00912312358712306,0.0255735974813754,0.00587308621622341,-7.85742334027513e-05
-0.00888343559651044,0.0228322397161341,0.00604419436850435,-0.000120632266798896
-0.00757739495650645,0.0206788827869041,0.00660740699486842,-0.000327729853971322
-0.00910347119448728,0.0188910239773378,0.00704545389179387,-0.000652032034323294
-0.0120675847934919,0.0187704166449016,0.00682586845672353,-0.000971975741142194
-0.00773954673781284,0.0202850059399502,0.00745315986929863,-0.00104025815250161
0.00536159110246661,0.0213553026056135,0.00979510342095163,-0.000911876245213184
0.0195567518394421,0.0220898157609071,0.0126092604976652,-0.000986786045414878
0.0266005554360613,0.0225362974292187,0.0133808912074282,-0.00130843605168273
0.0263623427000642,0.0218589708731968,0.0130722403522939,-0.00160691964095045
0.0247543621346256,0.0199546416245222,0.0131663223696659,-0.00178998161721325
0.0234470318147244,0.0154210506391674,0.011026926764376,-0.00191672599389024
0.019366018185744,0.00985918477764503,0.00754554349018841,-0.00193315541011452
0.0134562282188406,0.00908880122409901,0.00528430624917444,-0.00185402602992308
0.0126734398667079,0.0124775003065669,0.00412898899480997,-0.00171011889084625
0.0137566991700919,0.0118348218946691,0.00293325818214836,-0.0012711596258253
-0.0012701115322176,0.00725825290624788,0.00432532385049204,-0.000587553828415839
-0.0365945666872398,0.00367458828721986,0.00814010134715775,9.18112007784672e-05
-0.0624668653999136,-0.00132843531974039,0.0076485312844621,0.000930857343166906
-0.0528131841349475,-0.00749118620330014,0.00232903734577856,0.00185853705794806
-0.0220211170882754,-0.00923082484324437,-0.00219234929022701,0.00226299908390135
0.0029794613315436,-0.00672607751532923,-0.00234413690647455,0.00200064159633503
0.0149989759706327,-0.00335599922699212,-5.06405981847043e-05,0.00145871234485446
0.0189857112129169,-0.000289865989085807,0.000481453341014054,0.000733584448658306
0.0191642738441927,0.00140618631332113,-0.00119998143252419,-0.00010122050366741
0.0193738985841541,0.00246034149071938,-0.00108600647092942,-0.000702816952131031
0.0223418081944637,0.00359157443821247,0.00315158133408331,-0.000952058603651789
0.0272731677392142,0.00373898030584924,0.00761881102237175,-0.000883896150391202
0.0300762783689888,0.00290817034227733,0.00900146465381715,-0.000665892191018563
0.0271440222791382,0.00139384313034282,0.0087448791110849,-0.00049851234846931
0.0205777171253086,-0.000300287457065442,0.00881188373223906,-0.000361878676700231
0.0149484728218692,-0.000167423527806973,0.010363465684665,-6.50210520052766e-05
0.00931773634333632,0.000629357682661445,0.0111181858301395,0.000683504230505653
0.00222128803718834,-0.000714390231823489,0.00957714766114845,0.00152384050625792
-0.00375234296457104,-0.00326571951001638,0.00774674315544563,0.00180709192779004
-0.00661560924722423,-0.00495151047148388,0.00623631214195137,0.00167209407600673
-0.00680133883358718,-0.00469427114820089,0.00579870959031857,0.00146083957587409
-0.00475992343390396,-0.00256489280523551,0.00566911590289891,0.00117892172409766
-0.00266555941209761,-0.000976050715019156,0.00342952704254374,0.000956012497183041
-0.00192130151814112,0.00101336764121933,0.000402703585664344,0.00102954337243396
-0.00241216410154809,0.00517009262090172,-0.00193620464281876,0.00132938412706214
-0.00387191561393297,0.00705614478041547,-0.0038501980459824,0.00152866013167639
-0.00269853044754553,0.00354765132347112,-0.00588668125972268,0.00148327217230553
-0.000350695120962204,-0.00218449541722186,-0.00801548616893305,0.0012839417852457
5.9897699369827e-05,-0.00579473709156607,-0.0076261548795184,0.000984811409509334
0.00129860796106213,-0.00581357539831259,-0.00410905941839019,0.000758653550332484
0.00346368319862645,-0.00419564051763899,-0.000679985499759041,0.000670607785753628
0.00654634295792062,-0.0027056044802614,0.00238902784438547,0.000506310791896058
0.0103584210059318,-0.00169836858360689,0.0053652295871112,0.00026381405769895
0.0125640199239465,-0.0015257692819105,0.00701493179602215,6.90900915123779e-05
0.0138920445249058,-0.001766725858098,0.00985528568795482,-0.000167669173797645
0.0142821113168313,-0.00189302758516048,0.0141278007149363,-0.00054388169417203
0.0148019957220244,-0.00174885037185712,0.0163336354380287,-0.000862038035787284
0.0165555212550469,-0.00139719183688615,0.0156206544989722,-0.000872299725757046
0.0159406633096966,-0.00116755812637616,0.0162822041531759,-0.000742733175455443
0.011651202987657,-0.000396705920266731,0.0194304756682203,-0.000628240725812701
0.00707247206209337,0.00578318141968128,0.0169487643289682,-0.000264784370944952
0.00432674053261177,0.0181633364372979,0.0082407919379447,0.000407761981772452
0.00366981538177088,0.0288106531495996,0.00338331335387427,0.000964119237368528
0.00370414278347198,0.0314570690596631,0.00282284849021679,0.000997846430060006
0.00286234663981301,0.0276369734682528,0.000258848600926896,0.000500524503706096
0.00158758069547088,0.0224512761780567,-0.00501722595737625,-0.000277952369678549
0.00228493011693756,0.017849414743848,-0.00975882521151745,-0.000939682732209054
0.00362456830322263,0.0115052695765191,-0.0121376399558725,-0.00119831093795508
0.00250700295922847,0.00291264347540687,-0.0141774164274095,-0.0010136311005062
0.0024947529535747,-0.00623024180070772,-0.0212868160565046,-0.000509896640851993
0.00698220622653636,-0.0146295794421159,-0.0304157772518864,-0.000166862456944718
0.0139727043917084,-0.0194022758644945,-0.0291381176052044,-0.000602545578716707
0.0182080726629167,-0.0174293258844088,-0.0124290240777895,-0.00177468427325921
0.0169647989614432,-0.00858499568040635,0.0130968516367152,-0.00229901149622536
0.0159800696467086,0.00365590630650135,0.0284411352157299,-0.000954839529612337
0.0183637792611107,0.0139638839706465,0.0201749323761863,0.000992614659540635
0.0189340844426125,0.0178063146094409,-0.00223277760537967,0.00157568189556882
0.0183212068416375,0.0144056814510418,-0.0200392523026597,0.000697120302436306
0.0190338992478864,0.00660633627528213,-0.0246363295420012,-0.000907565031982024
0.0191069427977181,-0.000278785120832937,-0.0192140095838697,-0.0024797142696058
0.019007940348133,-0.00619760503073158,-0.00921232798794843,-0.00320272728143997
0.0180074432097139,-0.0171242091584834,0.00317213747751591,-0.00300031712628217
0.0143838047772738,-0.0337056787392501,0.0155392478609341,-0.00241954177623775
0.0113038451876673,-0.0452305308566808,0.0245424276106518,-0.00165143888943836
0.0114975870226239,-0.0392036472878094,0.0286837132628847,-0.000668228321098865
0.0132324198893578,-0.0187290691897728,0.0209209417886278,0.000345995733880794
0.00830878927219439,-0.000451651164818392,0.000839210793413502,0.00112699122953746
-0.00623738443348078,0.00674268613909944,-0.0156739734986226,0.00132995747250879
-0.0166505471119245,0.00941537185534502,-0.0193866861026738,0.000935887849529667
-0.0138770639849773,0.0135698024709534,-0.0159487761613224,0.000444398956253851
-0.00573251351874813,0.014818082178769,-0.0133728681615451,0.000144313470319911
-0.00038575048229934,0.00985583034438053,-0.012549700104506,-0.000141296892181867
0.00505472929460884,-0.0026820854017002,-0.0125935543212451,-0.000621999969059934
0.0145493168086135,-0.0221876475593655,-0.00982332823785233,-0.00132087773962214
0.0206781327661918,-0.0410386969138325,-0.00111845856598772,-0.00192086370830272
0.0185103769706497,-0.0570020847024814,0.00267322637179324,-0.00226824898408926
0.0154956705153427,-0.0693440248431346,-0.0051913081355319,-0.00262337102898053
0.0208631162145752,-0.0732091678254307,-0.0135790376229255,-0.00302283896694649
0.0333784018727721,-0.0681019242997362,-0.0135156335743303,-0.00302240906182698
0.0431582881341315,-0.0633071223917248,-0.0122126278121725,-0.00195590411240858
0.0481267855494912,-0.0760449365392945,-0.0141680130025089,0.00015886458475173
0.0538624908766432,-0.101619780247909,-0.0153630720149202,0.0022751493752883
0.0685939332738402,-0.116456127584775,-0.0201606049704239,0.0034605117209676
0.0767315242508684,-0.110349010972122,-0.0326278703484498,0.0034506021739283
0.040181527404943,-0.0863222006464188,-0.0408996123194118,0.00253441308006958
-0.0264123285627198,-0.0642930976661506,-0.0395303861262519,0.00185251957667737
-0.0607678620108992,-0.0574350271187364,-0.0414552701535958,0.00235067675457849
-0.0521959663900059,-0.0465910580939817,-0.0483424553911134,0.00359540806601068
-0.051724810582072,-0.0156161864931142,-0.0493936466083478,0.00448713914319453
-0.0800280292150907,0.0169822775431511,-0.0437185707555375,0.00431977139359408
-0.0886051801797022,0.0228136432093395,-0.0350331366006788,0.00337086217727144
-0.0460536785049438,0.00242205412698533,-0.0250147688061542,0.00232764308592125
0.0118336935253122,-0.0203577449558783,-0.0135117922474665,0.000791629870764095
0.0514023009277893,-0.034308964541798,-0.00164746701588783,-0.00198151574450552
0.0710466374297794,-0.0391571628819029,0.00870312823901002,-0.00514215385850484
0.0668373372153373,-0.0312249474539426,0.0250285245591596,-0.00701984452559789
0.0339776448269766,-0.0160414636778778,0.0488806121420286,-0.0067324368267715
-0.00782194371541742,0.00344593102334571,0.0675225767435861,-0.00437626639337346
-0.0250901629128955,0.0262498688503614,0.0685050934379038,-0.000850846365154849
-0.00745107350528496,0.0286536893907666,0.043918890472425,0.00258379911645348
0.0176020321357638,-7.75664500361761e-06,0.00315737132763302,0.00494596047089183
0.0215937705714305,-0.0318379567042904,-0.0292163846671468,0.00584662018840488
0.00686034117947402,-0.0462879484432149,-0.0432280698115338,0.00512712388736421
-0.00914064518951233,-0.0471966028652163,-0.0450865021017509,0.00332879005445824
-0.0155902635009804,-0.0410598378576274,-0.0420101656494762,0.0018621641772267
-0.0169921372952389,-0.0302141670977735,-0.0377945351540986,0.00137657116705654
-0.020854125358719,-0.0182342654192826,-0.0333484278874005,0.00150689473764354
-0.0263937042101164,-0.00660289141758207,-0.0288622905962687,0.00170771468254159
-0.02971174944717,0.00511914859297734,-0.0229349869785004,0.00184251381237957
-0.0292765993376946,0.0163205914148432,-0.0139320314853837,0.00200319104554533
-0.0251219630667603,0.0290176974812724,-0.00346335180068563,0.00204875494272618
-0.0148544602906813,0.0402572173708341,0.00542244605132265,0.0019911245627345
-0.00427495672962278,0.0434120871700309,0.0112123947018784,0.00187814923180023
-0.000246325661837851,0.0418277778743393,0.0158415163941009,0.00148159615722728
0.000595021467531185,0.0417489046331663,0.0207815276270759,0.000685998999050608
-0.00101790672803459,0.0428622841838999,0.0238735306502983,-0.000232440191702386
-0.00420572245836015,0.0443245271488686,0.0250933506982782,-0.000976864974052741
-0.00491750956831376,0.0472949813361276,0.0269169698151591,-0.0014492320182802
-0.00465655106026389,0.0504818789170826,0.0288352647622915,-0.00150098693068979
-0.0062318919964334,0.0517746346491631,0.0287074819561565,-0.00114953507160768
-0.0102468240727174,0.0514686036643823,0.0270990432002577,-0.000750381562155597
-0.0175953245418215,0.0504249753512743,0.0256986292972928,-0.000657714516448614
-0.0237565877974181,0.0492778384170593,0.0246248203529007,-0.000697320483326042
-0.0232723663332242,0.0476483327151886,0.0240249678951485,-0.000466669245453438
-0.0192392448429947,0.0456586175209107,0.0231877447999644,-0.000119427882188896
-0.0168387894379356,0.0431674263272401,0.0201275965307659,9.13282059259929e-05
-0.0174386486985761,0.0405633614166253,0.0163729258511808,0.000122235331703429
-0.0204129305719425,0.0376430088246705,0.0134408870090153,4.24278388082766e-05
-0.0216426327862296,0.032839513058107,0.0111458322377429,-3.57078594064165e-05
-0.0163582372913792,0.0280496430774042,0.010515407452361,-0.000117466226280322
-0.00661329843902351,0.0253343604336313,0.0112570299575299,-0.000216001610124818
0.00155866217352144,0.0274094124438432,0.0132490759354319,-0.000488761486359999
0.00713536068136183,0.0378425214144667,0.0150315765968469,-0.000983299490069547
0.0111031709666845,0.0523086995167575,0.0118459460832837,-0.00146832176188215
0.0105090312112163,0.0642123748785143,0.00569960140512685,-0.00184804068346182
0.00464113204576123,0.0702495916328244,0.00337994572495067,-0.00200834521661685
-0.0027545317807058,0.0682242871792027,0.00467012099407682,-0.00192057228082226
-0.010346189184636,0.0618622589510911,0.00496811561806469,-0.001895297398625
-0.0159969732887121,0.0575413335476192,0.00299068122460765,-0.00193416452290365
-0.0166731667379879,0.0535388568619772,0.00251904772865874,-0.00165267837201562
-0.0149776609894905,0.0433109521904004,0.00445746759584099,-0.00101957495809767
-0.0144718285110219,0.0265000542933896,0.00248867266234678,-0.000319823650601418
-0.0161119158213057,0.00535096880918746,-0.00155384470971838,9.66528649049441e-05
-0.0173496357414275,-0.020608950545785,0.00441180670497613,-5.93043823598842e-06
-0.017151246001977,-0.044929233533467,0.025872831766995,-0.00039271780343417
-0.0190087603529408,-0.0502975367657003,0.0479735302904318,-0.000548506254125442
-0.0239324050041004,-0.0320003507526212,0.0455416752225529,-0.000118147496194471
-0.0263666268456853,-0.0125688398101595,0.0191777326009901,0.000646846408500814
-0.0161103220528377,-0.00723528359304962,-0.00560191690507468,0.000975364864844948
0.00620917521346723,-0.00680188017502808,-0.012325229345462,0.000565026953050907
0.0260180925650457,-0.00307030803782975,-0.00761812036031422,0.000162480442950343
0.0301657783058553,0.00619237031999043,-0.00527355760456852,0.000249195296234418
0.0199306733623533,0.0187110255320043,-0.00751275512932295,0.000151282164800803
0.0109552186313476,0.0260640693026362,-0.00837950821980786,-0.000589495916255716
0.00919728956989488,0.0262787744854329,-0.00400714705999537,-0.00151721821212572
0.00825172934191851,0.0234996851229506,0.00289888132087932,-0.0021087214058758
0.0074962883773902,0.0194771835901604,0.00724818682594256,-0.00223985077160476
0.00769566281091653,0.0156201352255742,0.00919798962724519,-0.00199989697071016
0.00637403587520983,0.0112904467299528,0.011936813221319,-0.00165874641812865
0.00197739761971735,0.00622610263400717,0.0142799286454351,-0.00124574128855075
-0.00331366228702026,0.00216811450989545,0.0134261188359694,-0.000669637092622378
-0.00532484632957262,-0.00234472344577675,0.0111631304204524,-0.00013266610538097
-0.00553856342978081,-0.00723110004045539,0.0103746755601559,0.000424547074280915
-0.00651873860121002,-0.0106190903495675,0.0102251205688802,0.00101988206228183
-0.00628733822240483,-0.0122488310542365,0.00855403169798216,0.00146800678397985
-0.00314021758177007,-0.0108347442194961,0.00617062443982668,0.00186874492351712
0.00191045623653746,-0.0064063976091951,0.00490657720412449,0.00217874363020868
0.0080952596208425,-0.00475503800439699,0.00510389066587258,0.00232082410102143
0.0127423170792938,-0.00978705978515778,0.00422502214165488,0.00233656755187058
0.0140384330417525,-0.0150044710805786,0.00166906043087332,0.00202340542437152
0.0161674175800211,-0.0163950178253105,0.00209228316562131,0.00152295115449418
0.0201838191259018,-0.0166648147307052,0.00567249988467598,0.000993889856839796
0.0214892493459849,-0.0169624031771697,0.00806372985106259,0.000268085039820725
0.0144611351116561,-0.0190400962837311,0.00701923170648007,-0.000393817604227996
-0.00128515658025494,-0.0217893306396598,0.0054603147982335,-0.000807408629946797
-0.014383123143836,-0.0217174332125389,0.00714613919648719,-0.00105447860389714
-0.0175248838869107,-0.021956214736238,0.0100391375301563,-0.00111803722004881
-0.0159373899450235,-0.0263229292832504,0.012863690487856,-0.000945110013848566
-0.00798989835762186,-0.0290341839653832,0.0143778384416866,-0.000424894414032973
0.00674051891949957,-0.0263119543969986,0.00912988650516319,0.000200770370713954
0.0187412029218303,-0.028371115320861,-0.00231649441626349,0.000392304349470305
0.0251995950192018,-0.0408597014586717,-0.0141588224256996,8.72597118435965e-05
0.0285506407638644,-0.0473487326931875,-0.0240294902297064,-0.000460458580137013
0.0257301923386945,-0.0392390345709534,-0.0291989391069209,-0.00110485514099887
0.0163432098911357,-0.0303874028330767,-0.0268536397742038,-0.0016134009940214
0.0115189244135504,-0.0246653177591019,-0.0208809551219238,-0.00186437500088483
0.0151555108330181,-0.0165728362902531,-0.0156137206248165,-0.00177690645185891
0.0145802041222876,-0.00828515753522478,-0.0111268296843195,-0.00143608859943235
0.00874425077935076,-0.00609420304281588,-0.00792763777599061,-0.00123713044286506
0.00802871255707436,-0.00952242346348189,-0.00423145830464838,-0.00115432098272563
0.00526579188683455,-0.00989534394625707,0.000817049752581581,-0.00110878294342062
-0.00435411907198346,0.000546457850207523,0.00356372741024148,-0.00142201047361991
-0.00787677292903649,0.020567039657803,0.00732989612630161,-0.00187894415878566
-0.00283641736782844,0.0503160067704925,0.0222240837407718,-0.00182335052062496
5.14971713259571e-05,0.079672542113139,0.0443858851034703,-0.00103695514271863
-0.000494289918980914,0.07500947609199,0.0587274099281271,0.000498691374068803
0.00305259025349403,0.0398193584519802,0.0569766634708548,0.00277556265093099
0.0102546334772477,0.00712753968331241,0.0369643985137286,0.00532787604479259
0.00665893883295878,-0.0195991651797097,0.00887777296402457,0.00712263385426248
-0.0205868481281092,-0.0437534232566091,-0.0109412376297367,0.0070579132962017
-0.0528929196184066,-0.0540994108901833,-0.02281351714801,0.00490663861283894
-0.0577733406611924,-0.0477870772983898,-0.0333773351932018,0.00158899900320363
-0.0371024376244786,-0.0311090892408597,-0.0417665028008923,-0.00159530109365976
-0.0109946022401344,-0.0107065696464745,-0.045907511763616,-0.00368247056004958
0.0102380931080695,0.00232249953109647,-0.0453881831295803,-0.0045490704651835
0.0204429758731814,0.00531265578762871,-0.0389854748844112,-0.00465972833515043
0.0175834472817415,0.00573069178688746,-0.0267792538754841,-0.00445974108253642
0.00610418985997776,0.00812619763399972,-0.0146319972150252,-0.00406539634122953
-0.00503555342448647,0.0107833054798059,-0.00589538042061949,-0.00323872167869032
-0.0126137313877825,0.0136225720859838,0.00145565490964212,-0.0020714075791111
-0.0216740266869857,0.0180969914388961,0.00857568739380133,-0.000613780204652298
-0.0322004001924668,0.020516705487742,0.014997038084413,0.00114583859679341
-0.0352604685229701,0.0188616580653975,0.0177639268027561,0.00239873679242255
-0.0287520963752126,0.0136888085572766,0.0159288094036168,0.00255041361704122
-0.0191975697837511,0.00610003572215591,0.0142569417891151,0.00207252597898171
-0.00939525798732731,0.000551818125335076,0.0166437363415279,0.00167777759222759
-0.00457735379353694,-0.000354064462934799,0.0246527623580869,0.00187880759823961
-0.00788556820462634,0.00549648356656073,0.0312465333246244,0.00288517966607914
-0.0114939560462567,0.0172607419803844,0.0225801042178589,0.0042311650975117
-0.00956742974535709,0.0268793572310598,0.00421097523541204,0.00499509482695969
-0.00100767399629769,0.0305726029628883,-0.00704518967592219,0.00468707277478996
0.00980245923830933,0.027399777461868,-0.0112145114364781,0.00365050473607644
0.013548989184241,0.0184057397143466,-0.0150655755653163,0.00245387671161761
0.00773687092738825,0.0117242321734197,-0.017377673906732,0.00144075703906765
-0.000861176199791085,0.00914781799140733,-0.0163418856895657,0.000681280903317234
-0.00759607888222358,0.00443258183816926,-0.0152638487634138,5.43704328468233e-06
-0.0140009542775913,-0.00170314430121637,-0.0162350760759043,-0.000696217953589128
-0.0216421654093718,-0.00340625002586504,-0.0178885532165272,-0.00139804701781573
-0.0279149037666097,-0.00124868742055836,-0.0174850425963535,-0.0020881829029887
-0.0282698275393525,2.45532526692988e-05,-0.0143478897923418,-0.00245265942290808
-0.0252858894026599,0.00313675044526473,-0.00974884978597982,-0.00206743089992901
-0.0214723453952064,0.012992658308567,-0.00389325792840243,-0.00128923655771555
-0.0172676991777011,0.0224751169042297,0.000263974647141174,-0.000607824454096953
-0.0137127861517319,0.0215400670318623,0.00144726410391757,2.00420662425662e-05
-0.0101460236502626,0.0139387909018499,0.00188409881711717,0.000174755693775782
-0.00727832918190021,0.00836740149552081,0.00169239606789561,-0.000485810417119828
-0.00480007056203178,0.00450336332573578,0.00165065539849667,-0.00118246643881328
-0.00492240941397399,0.000939695053953681,0.00271849207299178,-0.0012658623170798
-0.00683851443885064,-0.00180818022913072,0.00345818785006006,-0.000951576826003465
-0.00459901480073218,-0.00395469532752463,0.00221821829964037,-0.000583527904045374
0.000166968414646564,-0.00393715539027776,-0.000508219852576852,-0.000399385929968695
0.000701086646773912,-0.00248835807507518,-0.0018475298627437,-0.000484972631082013
-0.00354445617846535,-0.00528429665346073,-0.00177180769453707,-0.00059000556202282
-0.00773250397610419,-0.0128637720834978,-0.0026486835612036,-0.000605202947631785
-0.00926432646705807,-0.0158816998121293,-0.00276650916516234,-0.000657461503045409
-0.00745263344448614,-0.0108911124888797,0.00012433660963094,-0.000506739426967549
-0.00565575420427081,-0.00573690925312823,0.00374468398324583,8.54633779674605e-05
-0.00567295489836778,-0.00368064528645799,0.00573083481662406,0.000767932640118579
-0.00421551286232099,-0.00206802130726056,0.00499916360323192,0.000997046862668905
0.00261468823225532,0.000190261158354617,0.00237398594313269,0.00058013913243477
0.0175902868121848,0.00251602341831746,0.000359534013770516,-0.000352830079340875
0.0336689457159209,0.00380876567214832,0.000248355658586285,-0.00141058542180447
0.040920536230012,0.00480803166800111,0.0027938153252829,-0.00215535191246747
0.0368211748043952,0.00476886569035968,0.00555237379520154,-0.00260275914529877
0.0251678992717309,0.00188891286141299,0.00653582137872855,-0.00278957865952924
0.0128177106613753,-0.00132882924645947,0.0078089061401745,-0.00268496526995867
0.00173726529099521,-0.000712971939082537,0.0091157838080207,-0.00242577384366885
-0.00860327601920324,0.00242011198778746,0.00976331841718588,-0.00205621168884646
-0.0165152271228657,0.00251024521600287,0.00967084964863475,-0.00158562913149928
-0.0187310547177846,0.000253971539311506,0.0099933417252825,-0.00095141541364285
-0.014184844055767,-0.000784324472581698,0.0121726848339278,-0.000268918401128042
-0.0105525328530819,0.00104171198564486,0.00915747855523884,0.000191326384395873
-0.0138138381309099,0.0113444052879897,-0.00191047295269783,0.000316530971439688
-0.0190538954239218,0.0290517866227165,-0.00783185721482501,0.000290404793894073
-0.0204560933876437,0.0404315174989426,-0.00281968328877957,0.00024790983422896
-0.0168576964584608,0.0387510245806137,0.000241472467927758,-0.000155790937561985
-0.00719174403791333,0.0324515549139398,-0.00523592303663768,-0.00079584768417696
0.00596519222761065,0.024588969569915,-0.0127701998562637,-0.000999076712854604
0.0181752287523905,0.00668041711541043,-0.0174271348642006,-0.000604824660729632
0.0290826181240137,-0.0195045737086446,-0.0220812428868438,9.34056958208517e-05
0.0367914599435265,-0.0455769427530862,-0.030952214955019,0.000427306318789836
0.0378104166533763,-0.0792671847245109,-0.0441601506747745,-0.000577928770888398
0.0370934807754855,-0.125290701798,-0.0462598627846195,-0.00300569337292736
0.0406092489793292,-0.158376233625341,-0.0143134556096017,-0.00521567682352489
0.0357713717275477,-0.151086277964614,0.0381428469819527,-0.0049865947377298
0.0142354224000957,-0.10371295696823,0.0781649387462402,-0.00150419165144879
-0.00851999088764684,-0.028201650642727,0.0917497993300082,0.00395751831414847
-0.0247498684753485,0.0511322413923524,0.0712079401267095,0.00912656686205488
-0.0386413469879867,0.0978293113644157,0.0244278161764411,0.0118030567360896
-0.0475488563604425,0.104035792181216,-0.0179105746309375,0.0106256326364678
-0.0458618874643428,0.0945692679492178,-0.0371064116706457,0.0063308528217433
-0.0283560408863083,0.0850594442370322,-0.0380822157738589,0.00134249235910837
-0.000608929222436438,0.0637218151926167,-0.0324220549214207,-0.00240132460544666
0.0210377562030647,0.0213471648207136,-0.0272415416161894,-0.00418591893108247
0.0283594909550302,-0.0243967109996316,-0.0223746112146725,-0.00424004781645811
0.0253031721476245,-0.0526951238533462,-0.0173732136237068,-0.00351670484747615
0.0171888693661253,-0.0595704271418533,-0.01379546371802,-0.00259566863359507
0.00705187227607281,-0.0528435525921134,-0.00920451094969932,-0.00158621555078008
-0.00119832765920213,-0.0442420710686249,-0.00310398466774066,-0.000779117900881433
-0.00399777628102588,-0.0366947718577125,0.00101703093370317,-0.000232131112891931
-0.00257280657347566,-0.0287344929399219,0.00167891269330885,0.000208513276117076
-0.00129868023503643,-0.0233466002318274,0.00202397964162359,0.000642916163081661
-0.0013091735025908,-0.0195069842024739,0.00419131906378952,0.00112316458681305
-0.00223776878473688,-0.015471955157915,0.00421511643836882,0.00161873857024027
-0.00273690435081288,-0.0121950984901721,0.00264022685617433,0.00203091950824147
-0.00257024748230413,-0.00767659321746317,0.00336381749053403,0.00221157719291742
-0.00386124027112259,-0.00303519059965593,0.00437570952532434,0.00229906195885606
-0.00610924249212664,-0.000996196995953071,0.00348003983280432,0.00242296764695133
-0.00867700268495477,0.000172917601909153,0.00269052218493106,0.00240275198971003
-0.00996656991362042,0.00214435162162591,0.0026997069565544,0.00225111775624675
-0.008950982612879,0.00595191818117296,0.00201869363801169,0.00202948901372597
-0.00932294869796321,0.00897538390704852,0.000381794659625186,0.0016797024768618
-0.0121594729993017,0.00778346386618443,-0.00200888498574461,0.00122642101041623
-0.0143952151848542,0.00643094529323395,-0.00426509855410948,0.000708236110329684
-0.0144899529253973,0.00736906405430628,-0.00540705704830292,0.000307303038849212
-0.0145629138980671,0.00768245734765581,-0.00606897638582752,8.85576409869112e-05
-0.0140081578747978,0.00747652406926833,-0.00748998583039986,-0.000167568013592771
-0.0133019755995647,0.00720222888752174,-0.0102996167584053,-0.000467120456432374
-0.0149742233192039,0.00664113807153914,-0.0109728323035772,-0.000687732678638288
-0.0144084475428842,0.00784969935479992,-0.00721853510331801,-0.000759259906223998
-0.010092490332829,0.0106845486484154,-0.00200334598431283,-0.00072843976084305
-0.0064245723942905,0.0127666806187784,0.00199178144695903,-0.000875725048210629
-0.00411719033882549,0.0116269815901719,0.00388195754291917,-0.0012536006649488
-0.00178828009709553,0.00930095555872088,0.00479528362488106,-0.00170096579345353
0.000246438759885,0.00996085124233018,0.00587579863390277,-0.00203355674026438
0.00116023277732966,0.00975142469474899,0.0063024243395657,-0.00205219331618675
0.0013559516415152,0.00749863639203299,0.00537296445646021,-0.00176444516000787
0.00144835850034987,0.007179548232214,0.00413316717850267,-0.00126678378421164
-2.61778654236447e-05,0.00717583405948917,0.0033875650292272,-0.000854914777176309
-0.00260357704168057,0.00570095981306982,0.0022229896887347,-0.00067601263240816
-0.00374712188586428,0.00424832919802993,-0.000269253473499691,-0.000485425100840189
-0.00425155451807509,0.00315800025191418,-0.00276832936731292,-0.000339729090233629
-0.00424705180149673,0.00121813970242958,-0.00340972724748255,-0.000347200153542744
-0.00399734456069897,-0.000870366412217189,-0.00345770356867663,-0.000305789169312931
-0.00520530117554996,-0.00153172294845409,-0.00434647101545313,-0.000281111418315967
-0.0073770060234412,-0.00130814741597263,-0.00539551066800264,-0.000459090144813558
-0.00919077645430709,0.000730981058397199,-0.00539922808229948,-0.000625984552046582
-0.00914029964624392,0.00559717803491563,-0.00302103247988441,-0.000580724109706854
-0.00916635203249186,0.00799783175227269,0.000200911058943168,-0.000382994332871908
-0.00940629300001775,0.0079960489831591,0.00227258510768665,-8.65562171544031e-05
-0.00590560179983099,0.0103148864277251,0.00387738677694125,5.7171801413705e-05
-0.000624169753054586,0.0117354005842922,0.00571323370124181,-0.000160223486967821
0.00304049384672918,0.0113951551130206,0.00656886908588341,-0.000630785087410726
0.00488711144430997,0.0120164295403117,0.00680588727450147,-0.00118322331142154
0.0043224031084869,0.0111256675224275,0.00744072459181834,-0.0015607955312274
0.00310948592160519,0.00770033760860738,0.00637385813778275,-0.00164783558246901
0.00319819157422091,0.00423140756342533,0.00245969583401697,-0.0015340286963205
0.00327524585106542,0.00112408417603167,7.16746699155613e-05,-0.00152523921200648
0.00174019511537028,-0.00335670140067412,0.00133993672160864,-0.00151791211948173
-0.00118449254370303,-0.00965849057937927,0.00431661836148831,-0.000976826130928005
-0.00261844785899116,-0.014956299602766,0.00753915820039462,7.25784250609401e-05
-0.00241272684558411,-0.0177505852662783,0.00492745178423304,0.00120467327090924
-0.0031380400422476,-0.0171222703137511,-0.00353760973509196,0.0018197087991662
-0.00328753833116708,-0.0116047261639964,-0.00802906389078547,0.00157211586467832
-0.00221868884721241,-0.00385950066223724,-0.00583123669488038,0.000710333561891307
-0.00347397392649267,0.00157113952539638,-0.00155981384686908,-9.24598587315265e-05
-0.00646492923977736,0.00216650102022719,0.00120734945012682,-0.000286900662373635
-0.0077100576523786,-0.000383697971247113,-0.00129622926344027,9.96635357938878e-06
-0.00565874431717161,-0.00100929212901605,-0.00478757550279913,0.000535740135326927
-0.000438245888840168,0.000848966895370971,-0.00284800117242356,0.00100514659208127
0.00447423911040793,0.0028257696929466,0.00237202488323778,0.00104493884821134
0.00684825210771681,0.00457601383042105,0.00794027933991741,0.000684141486043956
0.00698390112393312,0.00508729495846406,0.00960352105131632,0.000216671658583505
0.00667967509390572,0.00407571001537207,0.00920282476762244,-8.94112625430396e-05
0.00749227806624643,0.00513539758890584,0.00943129180940151,-5.84092627549382e-05
0.00751558087135929,0.00962346739580519,0.00597336492330298,0.000204700891533305
0.00688243364186847,0.0118781319377872,0.00143818063099929,0.00037377317847335
0.00675607551183237,0.00968825105793349,-4.55283049459552e-05,0.000384100315420121
0.00683587599775456,0.00706461833365795,-0.00118326151777635,0.000551384560337466
0.00669768001665837,0.00569837728512328,-0.0044861929546147,0.000940271069323923
0.00432714034895209,0.00410529349503718,-0.00828684199166712,0.0012143156584915
0.00168601104584767,0.00328960562283379,-0.0125446076392299,0.00121046433774607
0.00627097997679303,0.0057228312160398,-0.0179578888741228,0.00118936253537926
0.0174777063906201,0.0056931769006086,-0.0231640644711231,0.00126761281236481
0.0247855077856742,-0.000703832399112085,-0.0282240156995207,0.00122933074819631
0.0237353725815028,-0.00482433308755533,-0.0321423170514336,0.00107641525583686
0.019242734351505,-0.00175722226249986,-0.0288955441130362,0.000946736896927393
0.0155818428354678,0.00273675473303921,-0.0179922258171955,0.000924272967097842
0.0136795185472322,0.00431167765891486,-0.0158929765274924,0.00113763098834233
0.0144217849015953,0.00266947034262895,-0.0258496664600647,0.00128959378463125
0.0177483008817679,-0.0022736786621947,-0.030845521949627,0.000876718863139697
0.0220965192008788,-0.00608591900283307,-0.0288099293224058,4.09265905105889e-05
0.0189950772724802,-0.00610261093211815,-0.0259217911681076,-0.000973949183183797
-0.00476224695405325,-0.00696440038681959,-0.0179606028711092,-0.00206297312815834
-0.0349606494924878,-0.0141871295473738,-0.000119158143088542,-0.00258965441921543
-0.0355502638300287,-0.0277642359570808,0.0210133962476787,-0.00192807506635445
-0.00441565248244296,-0.0361977122027325,0.0369837131826557,-0.000309074705705668
0.0266403834157435,-0.0276891372253377,0.0489424228264323,0.00148474289688519
0.0398450162295214,-0.00505947259632047,0.0485070906700376,0.00260583403278347
0.0441763349307336,0.0186330497446433,0.025605522017303,0.00237296926405737
0.0481681361601747,0.0319386630217622,-0.00261417540648953,0.000831307935097128
0.0474468921184181,0.0313347148501039,-0.0149804013803133,-0.00116326607213159
0.0388664026003053,0.0226735930424002,-0.00775442924198975,-0.00243019165716145
0.020304033504232,0.0141982361813847,0.00958218471918217,-0.00213075957480267
-0.0116755432161398,0.00874306878525711,0.0243166330981071,-0.000553194945555746
-0.0456519259425937,0.00217670133287122,0.0276719606058015,0.00126466874165516
-0.0537928311405156,-0.00999732978443051,0.0120211876563541,0.00246488205461696
-0.0278310073284839,-0.0228970532453777,-0.0120940481102117,0.00239220679846987
0.00910132399225824,-0.031811431047074,-0.0248875594904334,0.000996297644928244
0.0343885092325561,-0.0372862756065311,-0.0262900734599493,-0.000624807305820148
0.0390157599750573,-0.0380409465923833,-0.021257822675404,-0.00147824035517408
0.0270664364374561,-0.0325940336059921,-0.00772179350210222,-0.00167444758486128
0.0139564671562628,-0.0234593033136079,0.00770453465247875,-0.0014881189463102
0.0109107936317116,-0.0163151611193265,0.0149362105202779,-0.000826808307028257
0.0121841403969523,-0.0136624285106681,0.014583129341994,6.83921395894346e-06
0.011200068023715,-0.0130770244430737,0.00995624634054739,0.000296128435697693
0.0129370922068508,-0.0122287975607682,0.00697477075772365,-7.95145209744703e-05
0.0180935320295735,-0.0123006410019176,0.0110940885889766,-0.000565195235124029
0.0207157411135624,-0.0139049951547917,0.0173153859310599,-0.000697651677862368
0.0176808577449352,-0.0148725939058902,0.0201729072504727,-0.000449936283012348
0.00916506454793346,-0.0159931605794514,0.0199005087756436,-4.66403982171507e-05
0.0011529819186556,-0.0172356832909194,0.0190902097064047,0.00030457041051104
-0.00242922182257656,-0.016898881072746,0.0187082732731014,0.000473913012410036
-0.00925594287932911,-0.0171275490046962,0.0186048899435966,0.000522083878106444
-0.0225411731481955,-0.0183614534316734,0.017984495775082,0.000575559651595543
-0.0324593101646615,-0.0188834535351917,0.0141585100676902,0.00054773234552134
-0.0319761765390626,-0.0179091742912414,0.00862763833166718,0.000517772058741507
-0.0248746548249041,-0.0159702452920489,0.00439804290761305,0.000502924969076144
-0.0179064757678066,-0.014553805050948,0.00120626505807808,0.000327633701206819
-0.0120917984896927,-0.0134719376584988,-0.000651418756176901,9.96352786143092e-05
-0.0041159444922651,-0.0134588188221008,-0.00102926316707807,-0.000140993487643973
0.00646669812144866,-0.014558559843376,-0.000469638464052452,-0.000323256648806425
0.0200025578531133,-0.0148613326024744,0.000593615743744277,-0.000380366428216444
0.032874974340803,-0.0146890743996888,-0.000133600124583105,-0.000427957657886496
0.0359721409484698,-0.0131844907525744,-0.0019415428453461,-0.000482468636078024
0.0271679728895473,-0.00980985250196082,-0.00218579414353222,-0.000528572494945992
0.0114213301830526,-0.00604187860735848,-0.00346278021112573,-0.000567442513158473
-0.0021775369980741,-0.00251267918894257,-0.00657978126640974,-0.000605171782452768
-0.00683880531677075,0.00156511706978949,-0.00935017130301736,-0.000562515428677788
-0.00306018629507596,0.00437094037287702,-0.0112681441155179,-0.000372435058352546
0.00677592953407388,0.00408263052775907,-0.00947486351435408,-7.51771954558434e-05
0.0172871802320261,0.00616636470698419,-0.00589103301271145,0.000214258024945523
0.0215371922273616,0.00998495101710537,-0.00550477252305533,0.000417628203528257
0.0163913867090897,0.00904933773578515,-0.00690972330328476,0.000567046837508624
0.00688321510200313,0.0076918414581088,-0.00934348604128878,0.000605627788364547
0.000764187929597676,0.0112015576899224,-0.0120739581990079,0.000388271499496474
-0.00176397779515553,0.0162436341657326,-0.0125537412322637,5.48205235100848e-05
-0.000117175683719897,0.0197460296381918,-0.0135324363491264,-0.000261459303835748
0.012236741602667,0.0221218566139214,-0.0164245372380622,-0.000741008424509767
0.0344326017156947,0.0222998344346576,-0.0158488825160546,-0.00121063822537645
0.0574333670566131,0.0169156862861079,-0.0109234827184085,-0.00139557080808133
0.0726263056319511,0.00463639307364674,-0.00876770882309451,-0.00145196526203979
0.0753980473446742,-0.0107307225305446,-0.0115802094127183,-0.00161590993912073
0.0698623536784918,-0.0199844006961123,-0.0141784466128187,-0.00185505752445931
0.0585564802279008,-0.0206064539624151,-0.0119733161420394,-0.00204279292967701
0.0391943014336724,-0.0204303302313228,-0.00201153882252585,-0.00235930819049766
0.021869801927286,-0.0219313757734531,0.0149375019644328,-0.00248065697573132
0.0232312275368191,-0.019322317326115,0.0238218074837351,-0.00151418231718169
0.0326461706622947,-0.0140371036495102,0.00900712363163653,0.000219695402435216
0.0121538267757105,-0.0150757285995127,-0.0141977444630639,0.00128340713194303
-0.0430132109658313,-0.0203956310824744,-0.0215001287714242,0.000993577605066824
-0.0816295210676149,-0.0146261179036391,-0.0123810447224651,0.000134325128857269
-0.0687376089492245,0.0176187723276082,0.000914166382479979,0.000257895145566055
-0.031938087420887,0.0722734916388735,0.00770409434789618,0.00201659245536894
-0.00584869279214435,0.114779502754256,0.00243805218534262,0.00416040552205792
0.00817361731714135,0.108969821868162,-0.00889864870905169,0.00502183452102027
0.0193189968576902,0.0583303987930873,-0.0121990552393368,0.00426134310752311
0.0382852674044495,0.000897631962828466,-0.00638432952058993,0.00252745259917938
0.0590566648155,-0.0317027611465588,-0.00754956457463806,0.00059065567702551
0.0636630038376853,-0.039631213255252,-0.019090578626155,-0.000825504891726746
0.0567629951879582,-0.0419701614325819,-0.0269848834945564,-0.00141134111338327
0.0508691692195365,-0.0467709435223372,-0.0252908236512256,-0.00166920682832666
0.0475168340255234,-0.0495340206637401,-0.0109896190326716,-0.00230283149543409
0.0436482334761624,-0.0460120491581573,0.0132638845185483,-0.00319989459472794
0.0358612972517957,-0.0335490918761842,0.0263467907967984,-0.00356623927846952
0.0239384464882303,-0.0152693679393007,0.0196220338454717,-0.00302764807932842
0.0124934866961849,-0.000245200724070624,0.0065727652026261,-0.00196931006177879
0.0035710748580062,0.00779322791989749,-0.00299335151433205,-0.000827632154528125
-0.00610165275255981,0.0119090399298365,-0.00570338484283776,0.000155520573820796
-0.0176119698234175,0.012577695363586,-0.000430278574204867,0.000884710172434275
-0.0282869771923124,0.0122053400418925,0.00946848666529894,0.00175658298308162
-0.035670784420166,0.0151425723534684,0.0147427135805533,0.00292505343026743
-0.0383136720570677,0.0213204320196635,0.00825538983651998,0.00386814776976955
-0.0354318068262341,0.0265157847929434,-0.00614191405064489,0.00435045150968011
-0.0282780280440643,0.0218703939587286,-0.0206776082185091,0.00429283768297622
-0.0216145736728519,0.0062993341240386,-0.0296151176382206,0.00359938233616349
-0.0186732894973467,-0.00633599319804549,-0.0296729683800754,0.00250015516776098
-0.0196094567528296,-0.00878830453398454,-0.0253418313024033,0.00127387271367483
-0.0208093370266686,-0.00825772058411379,-0.0208004245969441,0.000261010537449394
-0.0162415434098849,-0.00964208488388875,-0.0145293893902068,-0.000355622184335364
-0.00724995852858496,-0.0106764480911042,-0.00779773497275414,-0.000856649379817997
-0.000541163240396516,-0.0100829294898666,-0.0028265127468203,-0.00138081234457268
0.0015475281295793,-0.00879492901471476,0.000638771563496277,-0.00164468955312032
0.00355681244902003,-0.00683320979172719,0.00345400644839701,-0.0015127037176662
0.00719142102390575,-0.00526276016433738,0.00518350593844592,-0.00126993388720667
0.00639132524385396,-0.00411046122482153,0.0058738435197301,-0.00113741140211042
0.0023027318544025,-0.00173244153411363,0.00668808923372698,-0.00106664204521107
0.000707522662381424,0.000811442683357026,0.00666188241974894,-0.00101900321089776
-0.00504208928693342,0.00343126627148703,0.0053900217400359,-0.000919183273003886
-0.0192724626199608,0.0103395831946936,0.00435741427983683,-0.000784965657795876
-0.0274029714848772,0.0227207734753738,0.0053188580297917,-0.000637431996848206
-0.02062371997301,0.0335591599877994,0.00820336490385589,-0.000233061143834012
-0.0104790286178124,0.0362145492118942,0.0114784514967046,0.000551937135772442
-0.00848777137524605,0.0333726560126792,0.0124206015267222,0.00128623328534818
-0.0149261308007271,0.0260476885878917,0.00550058224580262,0.00121675046028763
-0.024839176374534,0.0157299164623035,-0.0065050427871437,5.63104050531967e-05
-0.0327417232466976,0.0112323756278342,-0.014254673703121,-0.0016274915766923
-0.0307056786906266,0.0122993437925642,-0.0160111533353286,-0.00292919941025051
-0.0177875098719664,0.0100023293477851,-0.0168994151393498,-0.00340043720189635
0.000475749593326073,0.00178040869609044,-0.0187909696683168,-0.00315661718049675
0.0192325806999224,-0.00540429378474978,-0.021890155372266,-0.00232720310399421
0.0307399389997984,-0.00267878446753982,-0.0290064448885749,-0.00134719661291024
0.0313533545907555,0.00715297489430594,-0.0377307221923171,-0.000982026016009013
0.0265138049070196,0.0148923275880664,-0.0436555103375256,-0.00107294084535315
0.0239106419520919,0.0232308228801758,-0.0461631734597027,-0.0011694124271574
0.0242320955763066,0.0347930529127642,-0.0481289124908425,-0.00152273504906487
0.0279781024116116,0.0395237712223337,-0.0576733559732977,-0.0021508349186512
0.0418506122343828,0.0327728879729873,-0.0691098454445543,-0.00279766583410688
0.0498750163355384,0.0227877951535669,-0.0670514161125726,-0.00312017138326735
0.0291205247715344,0.0171964602069443,-0.0571332265802412,-0.00255292698331862
-0.00034516539098553,0.0136105390654416,-0.043176957824294,-0.00114000754576477
-0.0133810694278993,0.00413439041447856,-0.0117194667087628,0.000542403373539262
-0.0130670947004483,-0.0140526826529711,0.0372409405445255,0.00218750014439728
-0.00820002958007299,-0.0317512468359398,0.0830933338979112,0.00388349175556577
-0.0170657403972929,-0.0399373592514562,0.104185485471007,0.00527075005586196
-0.0542139870823075,-0.036900027324281,0.095614694607495,0.00501290179122721
-0.0996109846704343,-0.0195221198778107,0.0637141659817966,0.00281244224267547
-0.111918706381152,0.000623577489006391,0.0167197750773748,0.000239720197391807
-0.0799382676365074,0.0136396219611907,-0.0237146256082279,-0.00137691874769593
-0.0398864208535385,0.0253467506253151,-0.0397849188253379,-0.00174359950458462
-0.0135244112680306,0.0306523131775419,-0.0405261738072762,-0.00128497878670782
0.00518381481996118,0.0266648404988047,-0.0393363634930926,-0.000879251240783999
0.0217174080967373,0.0210247697922961,-0.0362646527730411,-0.00106606530045807
0.0446074504533937,0.0189250457296395,-0.0294210685408113,-0.00171548968931562
0.0647236799692271,0.0171639145555059,-0.0205662059830438,-0.00226206660435615
0.0629246626245942,0.00770274846628554,-0.0106959552469952,-0.00217245683405812
0.0411659443105158,-0.00511446938829465,0.000833621249371733,-0.00141118979548631
0.0144563475209984,-0.012164466760742,0.00973665788322931,-0.0002068600058107
-0.00348609006832125,-0.0125186507370946,0.0119616266454243,0.0011571310986169
-0.0107766063025165,-0.0098223920761057,0.0122774258845798,0.00232839551346014
-0.0170172181105237,-0.00885779457042896,0.0139391189075047,0.00303441106909374
-0.0265775199037943,-0.00990722521973271,0.01638171029379,0.00323777970224548
-0.0345780780864114,-0.010445594221477,0.019669313703961,0.0031548496263874
-0.0380161928663679,-0.0101518551572554,0.0231121454797959,0.00293717467602859
-0.0394929627848091,-0.0113690244919176,0.0258900531821141,0.00275271177398987
-0.0379106440714458,-0.0142764994590091,0.0270523777990838,0.0027474226643002
-0.0310072893229919,-0.0153062992179132,0.0261935009972319,0.00279036737483954
-0.0254204824940918,-0.0143423937076536,0.0261515211841107,0.00268974304896705
-0.0283928250710247,-0.0124330074374695,0.0284189497043638,0.0024114643612058
-0.0344956950253235,-0.00857844718190456,0.0306723299854734,0.00202357748937817
-0.0348984535361645,-0.00535992306278263,0.0330230417241767,0.00156093806233385
-0.0303771034274793,-0.00402142248910938,0.0361126594627322,0.0010350629471285
-0.0261152532424151,-0.0021413314056657,0.0377673042062819,0.000457742461665834
-0.0243982747027267,-0.000149377413578409,0.0380678310176353,-7.82018371917298e-05
-0.0222601795840395,0.00083769050328825,0.0377294046258738,-0.000498001624819694
-0.0179913289309325,0.00235710713409857,0.0367909307130687,-0.000837831325294185
-0.0159269145238488,0.00385150787800037,0.0345255690930959,-0.00104747726578009
-0.016605153358052,0.00393733497548524,0.0300152267124871,-0.0010697167632447
-0.0163755754902622,0.00333074477623467,0.0247520408147443,-0.000953570406970486
-0.0147805848521175,0.00351956964772846,0.0215801249169576,-0.000742773530551089
-0.0137120271373668,0.00500637272148158,0.0206626507720076,-0.000456612264406389
-0.0139859355566194,0.00542666649340821,0.0182356429827046,-0.000191391875208862
-0.0147525533622667,0.00481554157330097,0.0135739703862642,-0.000110597354408448
-0.0155235025807582,0.0049063408745939,0.00959896732801574,-0.000170888468414659
-0.0165726570163902,0.00466442026511214,0.00708733028854519,-0.000238107355721864
-0.0173612067484276,0.00440518419755375,0.00557158670771096,-0.000311913470156993
-0.0168378681974248,0.00489575499806348,0.00452126232247117,-0.00032599775973004
-0.0168849923558258,0.00411176130529703,0.00162528504522988,-0.000205209970379195
-0.0174543010505967,0.0033924353291986,-0.00141935778094662,-6.14557922115667e-05
-0.0159784075637818,0.00570572778609865,-0.00140648985212886,9.40697198109262e-06
-0.0125546381641049,0.00981111970858628,0.000841250019501933,-4.15712556609176e-05
-0.0099001219150027,0.0158379793839753,0.0030186192984694,-0.000253896325528483
-0.0101243979886355,0.0252030547243205,0.00184486713152248,-0.000665406929549699
-0.00983948971493122,0.0320264463623223,-0.000696624098552425,-0.00122617175272998
-0.00802979813257455,0.0315397723009586,0.000492183574023057,-0.00164885971213406
-0.00823980265252493,0.0281431448777313,0.00246798292666711,-0.00187357353951828
-0.00850706421900845,0.0262404604945933,0.00219511899570303,-0.00189458340396984
-0.00699812886695512,0.0235594069000571,0.00175357410582366,-0.00167792071360156
-0.00596513130388088,0.0169221017821765,0.000452716918628946,-0.0015165092913465
-0.00591246675376318,0.00870139269656819,-0.00257047340006468,-0.0014138897288263
-0.00610560941619042,0.000336677543955721,-0.0053970742899168,-0.00123553722794798
-0.00574645794647075,-0.010980711331726,-0.00637326046100679,-0.00115609239492032
-0.00485176304502339,-0.0245059171150864,-0.000718912978212322,-0.00109847748668474
-0.00493764818965632,-0.0321693027330349,0.0162854284227669,-0.000948816565782836
-0.00714777895923088,-0.026916215729457,0.0311232374416108,-0.000568171272607096
-0.00996439724599031,-0.0140981354385201,0.023911602488534,0.000479071877434567
-0.0111647638128079,-0.00561883176936556,0.000953035951906045,0.00181187058050831
-0.013512767253922,-0.00321786890030711,-0.0172268514217844,0.002322022525557
-0.0240023780774338,-0.000381358470491557,-0.0223945731389117,0.00154439139646606
-0.0379390201936996,0.00630461195251185,-0.0198026404508154,0.000131144332636646
-0.0385851189729313,0.0121244638948416,-0.0183508621876741,-0.000879228973533238
-0.0236718402771905,0.0139370256240147,-0.0204600523161481,-0.00121294689602552
-0.00829806357619279,0.0180002787738596,-0.0191034944113002,-0.00122376724331773
-0.00378272409937335,0.0224628528391218,-0.00903930211265096,-0.000945483348513591
-0.00595618862662489,0.0181356576212823,8.88336086359628e-05,-0.000144926795749066
-0.00447525889845575,0.00810026449814641,-0.00267697596731181,0.000834900308937628
0.00155262102218642,0.00018131696417913,-0.0132260294173362,0.00117213277462461
0.00841495181617963,-0.00677670249939944,-0.0198314777742733,0.000521660470298271
0.0122173137661146,-0.0169666267996697,-0.0168890290005281,-0.000654805863859217
0.00901424901951468,-0.0273563190263049,-0.00543963282920782,-0.0014572303525741
0.00115510762917408,-0.0274423471850388,0.0080407864201509,-0.00126651000294268
-0.00748222873749111,-0.00929781439694611,0.017837362766678,-0.000314026863471561
-0.0155587536558625,0.0218865144320921,0.0284658614239869,0.000900227794971211
-0.0189652130852191,0.04145275160859,0.0375624253768139,0.00217097903777701
-0.0163681400810756,0.0292105108995536,0.0315209387299361,0.00330168418752175
-0.0135960359239984,0.00180929705414087,0.0112258580165658,0.00376935560057591
-0.0122964391746464,-0.0151021546375032,-0.00755231592484829,0.00314731084266224
-0.00978235087084968,-0.0201983569765604,-0.0184776681783153,0.00180076961345385
-0.00665294001829268,-0.02005343507077,-0.0231023252451784,0.000443201886195082
-0.0051608465684426,-0.0170200092511757,-0.021868864482963,-0.000374907491113756
-0.00463441712071157,-0.0137457438678146,-0.0176293405455783,-0.000433317403927683
-0.00198470184221354,-0.0107749719136113,-0.0120293707556193,-0.000201020288379761
0.000677537270153124,-0.00754096606840921,-0.0066702993385107,-0.000112801259788196
0.000270848388842428,-0.00450566063994657,-0.00266986102788741,-9.19536789726028e-05
-0.0011821522251156,-0.00172800925739949,0.00106986526832222,-0.000148586599568806
-0.00265501450230319,0.00222663141528471,0.00340294150806125,-0.000284041278739583
-0.00390746675237329,0.0065447826203151,0.00493459584373596,-0.000322369793787513
-0.00437487146887097,0.00957142758072347,0.00613553714857825,-3.58090336991569e-05
-0.00437840220373612,0.0135691194382675,0.00665721301515675,0.000571678133986934
-0.00440753765934036,0.0170869594601933,0.00696857788557798,0.00123809478873987
-0.00653165620147694,0.0156849912447048,0.00555215019754884,0.00161647845867263
-0.0100551095980553,0.0113324904784948,0.00528541854887707,0.00146479856194978
-0.0110766012873171,0.0086940528553836,0.00652614398056672,0.000933833130453705
-0.00954738736394473,0.00740347647129892,0.00501396747556263,0.000306543669489922
-0.00632731195257372,0.0061345677797205,0.00206085149160224,4.00047957387225e-06
-0.00239959885020736,0.00573257728045934,0.000121154354425487,0.000184971212369155
-0.000878521719482175,0.00674348086447438,-0.00057933686839962,0.000456731531269761
-0.00151433543743144,0.00764445890259362,-0.000665196040971209,0.000606191587409343
-0.00180760572389289,0.00678246429056239,-0.000759232146741242,0.00062819198681517
-0.000649944953556498,0.00853052445732239,0.000641706699640535,0.000417489965347365
0.0022424798864795,0.0138157218666982,0.00743145282709524,0.000102921262769143
0.0053865351901185,0.0175082258266207,0.0185786674114364,-0.000273098314634082
0.00618025594057351,0.0209707408493283,0.0263888303982025,-0.000877456660552553
0.00430840952298705,0.0281709792454509,0.0270900895552973,-0.00134800637169634
0.00178997780098148,0.0387593026198183,0.0261974611844725,-0.0015140793649058
0.00334104131492774,0.047878049436451,0.0286083951114184,-0.0016495666037771
0.0120764844344792,0.0539337455589741,0.0297861711051409,-0.00171613114180842
0.0212067791002035,0.061000905105732,0.0233447410742083,-0.00169328888978463
0.024144536810941,0.0681439341807145,0.0108342782045476,-0.00161016784774315
0.0238233776307092,0.0712107945526755,0.00322942905010231,-0.00148900259423139
0.0242505645136863,0.0683113068965172,0.00386416589805325,-0.00142184159846874
0.0251847518977725,0.0587731057432024,0.00117817869293878,-0.00123898673833338
0.0272078489666461,0.0442013898619759,-0.0085126820363842,-0.00103109455166351
0.0290265563250143,0.0238446287200282,-0.0145376588089028,-0.00107872254822684
0.0251498614213182,-0.00296214150938509,-0.014383055462431,-0.00124661322051517
0.0136652989109619,-0.030038578174673,-0.0112990847427259,-0.0013855143839776
-0.00817500063138946,-0.0523436526424565,-0.00511864803409782,-0.00126963318734445
-0.0359534475547722,-0.0676137975089456,-0.00240939380447497,-0.000798365361648691
-0.0446311101300562,-0.0703700635098228,-0.00765154284440994,-0.000150262173953121
-0.0232598523349479,-0.0585828674585202,-0.0207857831724818,0.000624534057858873
-0.00284251314972957,-0.0419518620860134,-0.0391373814797893,0.0011220401160386
-0.0154831081607989,-0.0343380430756563,-0.0502373758979619,0.000827518813269363
-0.047239193967436,-0.0412570943918372,-0.0428562281822223,-4.97190979925077e-05
-0.0575033383135271,-0.050246021991571,-0.0237565445435708,-0.000484037814947907
-0.0404072265608014,-0.0432710677613868,-0.00690359706930235,0.000514749857424601
-0.0233623287405972,-0.0243999029795674,0.00602394390922487,0.002558482272743
-0.00988927287340612,-0.00802327063952138,0.015646958065337,0.00423451249977795
0.021233760977017,0.0019185495495426,0.017185228469142,0.0043304757932869
0.0705645766526561,0.00129289825564692,0.0105737076818803,0.00268263922141326
0.100381175139478,-0.0102581333338715,0.00533796562237992,0.000227966576879138
0.0761177918843318,-0.0172972571425799,0.00984699051341992,-0.00199128455930805
0.0169888706849898,-0.00980025333478847,0.0203490211168057,-0.00338095271992144
-0.0326753532589961,0.00661296384945259,0.0316904626273296,-0.00366535769225036
-0.0556299767415249,0.0276253544563901,0.0369387268535518,-0.00282331091343246
-0.0564565619651716,0.0551418109642375,0.0267638655653424,-0.00129775441321462
-0.0418887048874905,0.0728279686684188,0.00337043137637166,0.000165923461887554
-0.0159207539084992,0.0467855948641438,-0.0198258819527535,0.00094534833578603
0.0137818496285309,-0.0134364607746979,-0.0315355319984037,0.000590411675511708
0.0342161496261047,-0.0611718517740993,-0.0354206403340783,-0.000532283906266522
0.0393111372941011,-0.0814491803741464,-0.0398211945771003,-0.00106144087569308
0.0290806034963556,-0.0872681427870439,-0.0448548317081478,-0.000236083243157089
0.0118633964764081,-0.0877025500610128,-0.0502639280242633,0.00116594834756663
0.00496147484916282,-0.0867487404065088,-0.0529609649220168,0.00190517098842706
0.00860828604891941,-0.0856795383687339,-0.0453974144423109,0.00193210820532814
0.00967092331323124,-0.0827108926735071,-0.0277923921709771,0.00213174735795917
0.00580643949185305,-0.0803670467269579,-0.0052107072036029,0.00283119524951168
0.00271702675381909,-0.0780036347232233,0.00770988889709755,0.00373719372059216
0.00207802107437582,-0.0654895687463538,0.00145988262853058,0.00426894519060825
0.000232516886678434,-0.0390461251527831,-0.0040595506215013,0.00371514513087393
-0.00088173228621076,-0.00339034437753191,0.00550916328389718,0.0023633983276836
0.000681844080543052,0.0359405477687697,0.0193251429477499,0.00139528310582532
-0.00230188212690738,0.0631580017288303,0.0244743853778862,0.00106905055729271
-0.0129985447649561,0.0548449388299638,0.0192156081599433,0.000696791373968217
-0.0157568776474428,0.0195764756104376,0.0132049402088135,7.2158116112509e-05
0.000471499030657363,-0.00901339032598417,0.01230074545008,-0.000332535316213597
0.0151707951682213,-0.0184882566573251,0.0129133174974876,-0.000352773409190483
0.0122376555300233,-0.0158354882366989,0.0114280629869581,-0.000292159708303858
0.00658555600347301,-0.00814619393409302,0.00570450732611238,-0.000284079531079022
0.0103516808809241,0.000457132577385397,-0.0016786714610295,-0.000364746839617228
0.0188071724015929,0.0091341534338462,-0.00520815301157029,-0.00058515319526965
0.0263560359750603,0.0166595691365553,-0.0040880922056144,-0.000918961190934303
0.0309186204387657,0.0205390420760879,-0.000463626210895431,-0.00117717692364724
0.0303586901005274,0.021036154649809,0.00198208812341144,-0.00129674869393372
0.0253720722619317,0.0202974586654216,0.00320928762077793,-0.00150047560526453
0.0208299675621686,0.0194884653582604,0.00590344968427293,-0.00171246790358987
0.018099767689179,0.0185264828092512,0.00770190291222481,-0.00182228543487858
0.015714673310055,0.0182779072617381,0.00708591152779586,-0.0020286364569578
0.0130091881170175,0.0186689662631562,0.00720232243486716,-0.00217716592689871
0.0105463111067987,0.0175162203810526,0.00888945446803166,-0.0019247578534942
0.010681945346409,0.0142075016878474,0.00865537203082647,-0.00128532571540244
0.0137276680204341,0.0103222280486516,0.00652714483318216,-0.000551569313443052
0.0145534304033363,0.00803409583361771,0.00555031416695432,-7.71237371021702e-05
0.00902126748848177,0.00813415748156552,0.00464830011738256,0.000141121301647467
0.00175614673696476,0.00874992788415573,0.00264947133842246,0.000128417248604107
0.000777681399672358,0.00849149412148096,0.00157297865328243,-0.000224331635427983
0.00449282568682706,0.00696314345004233,0.00167075832710131,-0.000682337985684601
0.00822460710198528,0.00479046776011887,0.00238816309851705,-0.000945040896189124
0.0113794114721231,0.00211652141446594,0.00440738846674449,-0.000982329052596267
0.0104377150043701,0.00175994467681374,0.00703501138831492,-0.00095209256755508
0.00468976174429052,0.0068664435884756,0.00925310381418281,-0.00103095835774862
-0.00217065422766899,0.0119676413343817,0.0124841728649126,-0.00117140975948732
-0.00705639910532556,0.0143388764659613,0.0159468206894167,-0.00140869733653113
-0.00767221277858935,0.0170459698338616,0.0175398855521343,-0.0018886722848952
-0.00591518028392329,0.0180821392778949,0.0178220957349505,-0.00231181016289213
-0.00490990935397038,0.0168342447655143,0.0166090024376718,-0.00257446178421204
-0.00728641658995433,0.0189891235483685,0.0127720648666148,-0.00266510490739134
-0.0132694662350681,0.0266468138858002,0.0035023852122393,-0.00238752765653157
-0.0160956116377945,0.0335253607785137,-0.010282495256137,-0.00205887416615282
-0.0118022748152086,0.0288622433213028,-0.0176961558225989,-0.00181256549868671
-0.00609410363822167,0.00949803606387718,-0.0114984791171241,-0.00126738889324467
-0.0039471420032935,-0.0114241086447488,0.00100594334623864,-0.000209327795677439
-0.00312640379086476,-0.023741336855861,0.00328308776346088,0.00104687351246723
0.00188402530508512,-0.0284032277442353,-0.00885667017481775,0.00168511072124787
0.0120538536180739,-0.0296656624388995,-0.0235701827395631,0.00119478042179569
0.0203631081997211,-0.0351682197531677,-0.0341932921274851,-1.432901910917e-05
0.0216053681221316,-0.0441564758098661,-0.0341475546879134,-0.00113756549357065
0.0182252855600239,-0.0527733978366895,-0.0180067826367565,-0.0017322683724605
0.0143057029040923,-0.0574850652803517,0.00979582526101727,-0.00167746434853639
