0.0230219285505118,-0.00509551907538174,0.00629357215064434,-0.000585966952082094
0.0450741362473682,-0.00353517850592311,0.00148775410793065,-0.000805948179426131
0.0521486249924747,-0.00941450202715637,-0.00573940019788337,-0.0012805814290819
0.035142298924791,-0.0218081135052698,-0.00572357843117258,-0.00184593164236229
0.00782482714053019,-0.0354389803074036,-0.00147722074360019,-0.00227316582151194
-0.0158881498516693,-0.042404077912519,0.00177103211661975,-0.00219572252285419
-0.0326405108108911,-0.0410317271370286,0.00426726998447528,-0.0015712512299971
-0.0372048821599665,-0.0358183250707219,0.007268920584876,-0.000969081846476898
-0.0315274240929725,-0.028542240228156,0.0113769898799258,-0.000817883107186652
-0.0246822167119566,-0.0216377833627627,0.0147969479208574,-0.00112342505501744
-0.0164568928110194,-0.018352900740635,0.0153071551803605,-0.00173282466115969
-0.00661704280756533,-0.0203836871943617,0.0113028409273889,-0.00225077999438891
0.000524784368848615,-0.0294022152985215,0.00346738075289993,-0.00245783240623311
0.00541260510549398,-0.0367193218918569,-0.00160633204215654,-0.00230077729273443
0.0106197710583626,-0.0275102682461358,-0.0011583847448935,-0.00163582205182236
0.0168920287853162,-0.00312558740655314,0.000813753316657437,-0.000812899558408909
0.0235166028798101,0.0161452795623015,0.00201005232256411,-0.000303629739838236
0.0292646447875826,0.013327719675347,0.00233354516519928,-8.33840674642938e-06
0.0342698191204921,-0.00368308031368565,0.000467976057873546,0.000189577816124876
0.0382867459168153,-0.0120204788477365,-0.00400648818118391,0.000386589562219647
0.0401136925089178,-0.00567511197674462,-0.00909489935835484,0.0010683817776304
0.036201358938268,-0.000421780447941052,-0.0135018735819506,0.00231299068639792
0.0245849881386137,-0.0040007491650544,-0.0145124718184757,0.00321541433507336
0.0120837821129756,-0.00618573202502682,-0.0111234060453712,0.00283336632849185
0.00221001285451185,-0.00151452956648031,-0.00712907134106569,0.00120559953090356
-0.0062378293436797,-0.000607129061119325,-0.00465114932554768,-0.000701866894643122
-0.0101772766625014,-0.00959449795234673,-0.00185970485440901,-0.00173747993316986
-0.0100702901969325,-0.0233736492405074,0.00236686409836256,-0.00151857530247808
-0.00597732702306359,-0.0340866990313252,0.00713635320438938,-0.000858663776145255
-0.00122000942783523,-0.0340333923014248,0.0110571960953498,-0.000751671904808793
-0.00280751843159685,-0.0241882571307663,0.0127309399842274,-0.00125986393060279
-0.000602385235731793,-0.0120736955997311,0.0107128636820903,-0.00164371645908844
0.0122127506279086,-0.00277717084672676,0.00696710211471625,-0.00109139789001803
0.022035285507001,0.00162128220512113,0.00555816832335542,0.000280853797661935
0.0226696736410553,0.000859827847765688,0.00358326586080124,0.00160471829856383
0.020830626568682,-0.000784786206052195,-0.00131902197407246,0.00262285701788699
0.0182376046872423,0.00141009173854611,-0.0048908111812672,0.00358585118940144
0.0110238805880654,0.00520511975186116,-0.00500650340765843,0.00405400312896257
0.00565261306764677,0.00812861434931683,-0.00361003563376508,0.00342147668261372
0.0089105794210121,0.0122241916205786,-0.00463902240792899,0.00211741144278626
0.0149489112827672,0.0187421728600892,-0.00771915183690713,0.000869301097350132
0.019800153364825,0.0262359408575938,-0.00805284119790221,3.90299977411893e-05
0.0191998626432095,0.0276978429205775,-0.00924903244121802,-0.000139259571135989
0.0142157167513036,0.0150306923676328,-0.0169880376126017,0.000403800931446331
0.0128882661200634,-0.00570435346160853,-0.0270094602158813,0.00181747512887258
0.0100658586578998,-0.0121953552444778,-0.0234362320841484,0.00375658903746829
0.00136607978013927,-0.00218322925116379,-0.00402539741216985,0.00436368339848866
-0.0074622339288948,-0.0017173813355547,0.0062116382391048,0.00217605342567146
-0.0140063627026696,-0.0137488515123279,0.00120225078852229,-0.00104696527686584
-0.013798911991397,-0.014955035979016,0.00284318449721484,-0.00254235219999651
-0.00379886732295543,-0.00174128565859418,0.0168071586807647,-0.00298364834885309
0.00596293162737042,0.00838411166954482,0.0237857816732936,-0.00431117760993256
0.00643035929625146,0.010604585176998,0.0174894467428778,-0.00526031742495636
0.00174663393650759,0.0124114357743352,0.0121650622139172,-0.00380542648644651
-0.00162187441349034,0.0186520301397226,0.0134357638376934,-0.000885465035533233
-0.00528756526927712,0.0297764210762075,0.0161631938598243,0.00115836514072182
-0.0131725494236397,0.0402746774415853,0.0166372815028463,0.00165253693561083
-0.0229353255916681,0.0435770099164864,0.013615666015437,0.0015431356803868
-0.0293348849671156,0.0360710689458751,0.0108018418813298,0.00149012866090227
-0.0262891697640561,0.02158277150804,0.0114531430307953,0.00146192651828766
-0.0127605070437495,0.00568033961930866,0.0111480747601885,0.00137465885559912
0.00214319121213338,-0.0106681766474507,0.00919112421963205,0.00125956642248741
0.0103969519822581,-0.0197523915057326,0.00785749946961467,0.000989328781628528
0.00821808891140737,-0.0162241015475257,0.00647018131889637,0.000194529311962849
-0.00431049932996438,-0.0105600606049956,0.00453435302220624,-0.000997581504042553
-0.0160374705737813,-0.00757315313647857,0.000671248241505933,-0.00194619452894441
-0.013803336082311,-0.00207426361777472,-0.00391939108130177,-0.00244162511401107
-0.00324104261243429,0.00099597289569717,-0.00636800155878463,-0.00273360034579731
0.00289124295961219,-0.00437344905879689,-0.00560724635827466,-0.00314298577564314
0.00583156130565345,-0.0144561300608864,-0.00280712361629489,-0.00370394608126348
0.00941567160986552,-0.0217990652247978,0.00070202876798109,-0.00410061895882872
0.00900509219098435,-0.0144042347128339,0.00547927369765737,-0.00403051077510422
-0.00137652499470943,0.00771040332275232,0.0109168041883344,-0.00338497394793715
-0.0172520943271621,0.0208405929106578,0.0164047463715104,-0.00224539279934482
-0.0236454741507702,0.0134662402849702,0.018610349864445,-0.000900227865188114
-0.0138348356589874,0.00413463704765352,0.0160274601295079,0.000278426474124866
0.000482395849571429,0.00579156122486241,0.0147919179921155,0.00118662125697535
0.00331503900395872,0.00907557554723411,0.0162057521514233,0.00184731149919542
-0.00772958804389531,0.00833252041725371,0.018448544735832,0.00233075547934291
-0.0200274935359035,0.00953178140611259,0.0232019328412427,0.00276221621959241
-0.0228044462117915,0.00975420064298235,0.0259822299058423,0.00274792258603079
-0.0160942319497295,-0.00362082613326439,0.01939892565096,0.00186734984239387
-0.00745775047186092,-0.0264811986276749,0.00347425680869736,0.000346983128597394
-0.00698562640745387,-0.0332581232267503,-0.0191863360931276,-0.00120122748051572
-0.0154704736012039,-0.0128143543778568,-0.0398050516002564,-0.00179756887169449
-0.0256106536761773,0.0155355097796848,-0.039276846773623,-0.00127829121018325
-0.0292677538267007,0.0255536016379011,-0.017714138056057,-0.00106887201366366
-0.0222721965515785,0.00656174874578429,0.00034609338388588,-0.00175723180477237
-0.0143043178983559,-0.01927851631529,0.00713601285034558,-0.00217301834975221
-0.0149503652228626,-0.0227804585363798,0.0119163148865846,-0.00177257341671292
-0.0190171459160801,-0.0105695769579457,0.0164436329929031,-0.00112720751280805
-0.0204942512451188,-0.00310309316016621,0.0203474754624094,-0.000639751096861097
-0.0184243861351589,-0.00279686674208566,0.0224096239127347,-0.000386916330695076
-0.0104057755428221,-0.005480627712616,0.017446780672487,-0.000196998600651716
0.00168372049297922,-0.0142777735495106,0.00786737264440365,0.000359048438969038
0.0122607706633352,-0.0303202955406404,0.00254432343780744,0.00151892347526261
0.0163964197579938,-0.0535285799106686,-0.00467547878540864,0.00318874252429938
0.0107193157187073,-0.0771733373693493,-0.0226734606117642,0.00539723528889926
0.00914212031916499,-0.0770385326451471,-0.0325461662444723,0.00773312285137585
0.022988929660516,-0.0498906526946059,-0.0180945886156586,0.00812175905657268
0.0309584123611561,-0.0250417925532149,0.00183981607209924,0.00524399595856402
0.0173084618981582,-0.0139087382992559,0.00761006472220544,0.00108902159134455
-0.00177856556529361,-0.00558806381512284,0.00285231765787033,-0.00177431009200094
-0.011696054391028,0.00293859870658869,-0.00384316989070803,-0.00297512496279444
-0.0159304578013248,0.00715073817600104,-0.00791256873837911,-0.00344028938178386
-0.0201145622765627,0.00561005967666881,-0.00880966276577546,-0.00373197420446095
-0.0193500933557785,0.00640418834923503,-0.0136040663004726,-0.00370365058239762
-0.00871889191901401,0.0144308628751046,-0.0196153851225487,-0.00286275946620984
0.00354897790204482,0.0151470174886278,-0.0132479761024398,-0.00123300508458221
0.00995139488031565,-0.00127390682649818,0.000512500943931408,0.000366175123660992
0.0129249509192223,-0.0214569981933957,0.00752440349581883,0.00149464717168908
0.0139772696038267,-0.0322077959917218,0.00554448137362018,0.00242128430317968
0.0118190434186799,-0.033172166077115,0.00133675435231487,0.00317161543323348
0.00800607772730254,-0.0276693111779235,0.0030205651055438,0.00349989650315054
0.0048366980176574,-0.0203724987756615,0.0108845444125347,0.00340420265549456
0.00408606109604994,-0.0163768703286617,0.0162160023770111,0.00268636767456245
0.00671550468201336,-0.0147628067088164,0.0101654795021112,0.00106586772900875
0.00894687218591826,-0.0116788894318227,-0.00252155797956075,-0.000592700198136537
0.00664954788974897,-0.00446822940376665,-0.00950269267999745,-0.00138819042392573
0.00241598549716236,0.00773749368453628,-0.00685772418885621,-0.00174693301002379
0.00144879791793159,0.0185523335284884,0.000155668545254347,-0.00197864497266314
0.00368710233090174,0.0188032240447969,0.00420846525891753,-0.00181487091829779
0.00380262865993699,0.00962659770510218,0.00294905438178142,-0.00112319745966117
0.00204971946736141,0.00239388928364166,-0.0021160660320315,-0.000129651070479089
0.00456126840055987,0.00153370078621372,-0.0080772121279169,0.000912646564573967
0.0121356343739952,-0.00453530604645981,-0.0102446189913287,0.00193565190987335
0.0216551061386643,-0.022678033405302,-0.00533864360951884,0.00248815187014574
0.0303103985252101,-0.0380043883214825,0.00380654652621186,0.00200972199293267
0.0339953524427965,-0.0390425894333386,0.0107550847336408,0.000595829920165872
0.0315026167962652,-0.0325374086198834,0.0123450081087397,-0.000903880172694895
0.0280705388543998,-0.0248991378157754,0.0106834930464093,-0.00155232601650679
0.0278723345323788,-0.0189268841317864,0.00971200350643044,-0.0012790631210554
0.0273360570497236,-0.0171266142114834,0.0107637585456135,-0.000725066638135737
0.0226939330356464,-0.0162540275310933,0.0123624000001788,-0.000469056913851159
0.0151246966464482,-0.00993472605345517,0.0128744647705825,-0.000627529566290918
0.00630764325384587,0.00158868391757345,0.0155659267258069,-0.000797290042674971
-0.00214130880774935,0.011126583801817,0.0176598098282304,-0.000704564121571586
-0.00796613237748075,0.0124592765092196,0.0110499808206653,-0.000453148541700151
-0.010020638722756,0.00993767565350686,0.00164592407630957,4.48797373102326e-05
-0.0101671982045989,0.0137534754777245,-0.00357314414998901,0.000756434739573466
-0.0112553838991274,0.0168639773693078,-0.004102401598096,0.00162536418432884
-0.0143760206491724,0.01007883046457,0.00157382988390773,0.00262541961672813
-0.018916734492302,0.00121177978358788,0.00668015390944434,0.00300487674098252
-0.0275514730069532,-0.00444668338689703,0.003002024134029,0.00221850792830426
-0.0419695050577576,-0.00449824724616297,-0.00745907798714899,0.000676888561665928
-0.0498605994437904,0.00382213508654686,-0.0149658717705683,-0.000800374579961385
-0.0398556735563708,0.00897387540702135,-0.0135066366850063,-0.00192826248330826
-0.0171521254420508,0.00243672766030064,-0.00816651651634065,-0.0029669692937467
0.00939167959623748,-0.00369960727041231,-0.00406572352053098,-0.00349746372995056
0.0251348811969828,-0.00200340127020004,0.00126976957545267,-0.00292606883007931
0.0194821730532372,0.000979305139955625,0.0131931373677762,-0.00169007032390293
0.00707373431431142,0.00243600068055057,0.0256971670796443,-0.000770429214483008
0.00276632945593838,0.00793556748830274,0.0267725038018651,-0.000494552711665702
0.00533402362324938,0.018546729344797,0.0199720411289158,-0.000205575218686582
0.0123032848788817,0.0223241804733976,0.016135783163983,0.00040009657000418
0.0176352193706592,0.011893072542257,0.0133742685671288,0.000927249434662129
0.0122948580893393,-0.00136250348690491,0.00710741158153433,0.00150112330159332
-0.00145227092211035,-0.0053847943891218,0.000702650539522884,0.00234083472224374
-0.0149637003569443,-0.000722823722790665,-0.0017998840013575,0.0028987032470218
-0.0233192968453151,0.0067533275256054,-0.000258482933475232,0.00229194507793725
-0.023628027023342,0.0123811975732983,0.00143935379925445,0.000568419450823102
-0.0190408139650315,0.0140978732228009,-0.00112912268979558,-0.00109271019053242
-0.0148809449329319,0.0118697689498513,-0.00793731326545956,-0.00168196559875552
-0.0121034391866199,0.00642300955387839,-0.0142602804614383,-0.00129650863189286
-0.012843136495703,0.000769706312096059,-0.0155028075625685,-0.000682663183645951
-0.0151299870168266,-0.00108796526833707,-0.0126001487827439,2.40996706704458e-05
-0.0153715558146359,0.00219274588368277,-0.00966086200618431,0.000661584977257
-0.0144218937273042,0.00637589356429521,-0.00708395705277095,0.000438934405140645
-0.0108792348109463,0.00859759508342706,-0.00552468476374955,-0.000637284016675854
-0.00636192357790217,0.00723853543405593,-0.00611874384975872,-0.00171081373777017
-0.00741714416857087,-0.00488616091709966,-0.00490907850298833,-0.00226597242797992
-0.013608819031602,-0.020116996507348,0.00102359322825079,-0.00218657469780995
-0.0190051054669388,-0.0199216278788823,0.0078720486682724,-0.00159122578796533
-0.0189430921736255,-0.00662017749830097,0.00885592602511722,-0.000854677826985476
-0.0136222712151016,0.00215281822831642,0.00474627019829762,-8.80643307278799e-05
-0.00595768996406138,0.000594444971314417,0.00248276504629739,0.000747479285648345
0.0049519751347282,-0.000184697989156525,0.00257605154878355,0.00132499946891805
0.0185523922924226,0.00555413698661064,0.0017446190978918,0.00127064470615466
0.0314716839878983,0.0117801157297693,-0.00233747057609179,0.000747154715154301
0.038549257979337,0.0179600409800055,-0.00720522883713602,0.000319045432378854
0.0351317905632364,0.0248966907280391,-0.00760146721367372,0.000211394017058569
0.0254054863402923,0.028437659938545,-0.00400909266326999,4.50078550083443e-05
0.0184259017820711,0.0251155057105212,0.000724706374576644,-0.000373640864356747
0.0165697818981493,0.0156065719234595,0.00334139394001859,-0.000535952942985294
0.0170569289380189,0.00483374827098061,-3.14483069939584e-06,4.19249962395779e-05
0.0193256605412923,4.6952776821034e-05,-0.00571172984890613,0.00140159140279127
0.0198497857730363,0.00454260903503608,-0.00796705608999377,0.00291218914667018
0.0104536168356161,0.0140182252986263,-0.00588519832931142,0.00329279028709758
-0.00689290999945275,0.023863135940947,-0.00103141620005032,0.00192155932704211
-0.0191877956544892,0.0263624995930722,0.000307433456616348,-0.000357922627824957
-0.02018586628973,0.0199417117531252,-0.00449872824341547,-0.00210032417056428
-0.0168578492583449,0.0155933489072451,-0.00973228697241082,-0.00250402702504275
-0.0173052168735902,0.0132653745248037,-0.010750301683695,-0.0017733081232551
-0.0189134136038166,0.00337996599788123,-0.00620189871585434,-0.000424622939726516
-0.0173876311008852,-0.00936996916425413,-0.000280667162424533,0.00117792842416031
-0.0157517545922202,-0.0152299871705027,-0.000232178927989581,0.0022190259804267
-0.0165540844504506,-0.0169195137483955,-0.00371448181702823,0.0021762946956934
-0.0175726584308603,-0.0181044436791609,-0.00574334481793545,0.00185472721301294
-0.0149630420651754,-0.0115851258742287,-0.00770125187955987,0.00173775918400353
-0.00911345350323815,0.00491777785663885,-0.00799099847189668,0.00127840643517501
-0.00246504965047582,0.0200612113101787,-0.00556759942813931,0.000134034333376698
0.00491503303619364,0.0257049799419527,-0.00544667774428451,-0.00124568900804336
0.0112534172819333,0.0209865994359774,-0.00930124620006888,-0.0021803049556748
0.0131488330833351,0.00934481797471929,-0.0148893865049175,-0.00247884755052353
0.0110640146134078,-0.00137236665558134,-0.015856915574414,-0.00212077754253368
0.00920087639493845,-0.00543092135274918,-0.00934252456442428,-0.00135481490117477
0.00773708961179827,-0.00130933767120534,-0.00160617292568687,-0.000610539440482256
0.00191628198886433,0.00648006557067124,0.00411692425076908,4.7694953691974e-05
-0.00853777606245652,0.00572379438715998,0.00385161548523391,0.000608119906369389
-0.0159706790042729,-0.0078228204981524,-0.00463590081611875,0.00142448866250561
-0.0189996964702287,-0.0201505531693059,-0.0127255929402239,0.0030346958151768
-0.0249068938957775,-0.0181271266934501,-0.00956573242436061,0.00468173485573372
-0.0310666258450314,-0.000787727351012762,0.00641985656271818,0.00430452779468116
-0.0314903793191812,0.0194826254877438,0.0207454379583996,0.000970815192521013
-0.0301646272333077,0.0296975506724263,0.0196873034170123,-0.00297985564352083
-0.0265798521486069,0.0326116112645179,0.0103787052741353,-0.00467064414045825
-0.0190260235978418,0.0322174687815889,0.0039984184440267,-0.00429815772853495
-0.0123097486900705,0.0317922704901971,0.00126323131771654,-0.00334421125074552
-0.00622343292130902,0.027668730134675,0.00118946864924022,-0.00219471456359563
-0.00229420902815582,0.0105036672260237,0.00170109944426896,-0.000863038443803336
-0.00857004496219941,-0.0104944893263529,0.00263040513876511,0.000251469312295474
-0.0187577379716393,-0.0229098751938986,0.00551686893771655,0.000685926077463996
-0.0169485219775145,-0.0281403717895067,0.00726967898915003,0.000536013507646386
-0.00558257663514417,-0.0301194137692137,0.00674004656070454,0.000317605655898664
0.00038093141289137,-0.0280307917256306,0.00584931794407811,0.000134119123854846
-0.00359317845355568,-0.0202579036735355,0.00537428801222906,-0.000248893043598166
-0.00610580099648173,-0.000757530018289114,0.00332629638615488,-0.00105359397778568
0.00196961694969443,0.0319166907717163,-0.00157847296064511,-0.00208375309138168
0.0156246796315836,0.0527936444360578,-0.00644839413437989,-0.00268175803349013
0.0231214312239646,0.0428860848195251,-0.00903812814771897,-0.00253204314256605
0.0205444111363235,0.0233081158585078,-0.0149825687236677,-0.00195135379270382
0.0147211390836589,0.0171941270980697,-0.024793790514214,-0.00108349781220987
0.00739131277255784,0.0176092753753853,-0.0236952320221497,0.00046170522387815
-0.00379603244225876,0.014798688378222,-0.00903951776273277,0.00217194983994753
-0.0160603279592178,0.0110561086438652,0.00630288735916091,0.00271715567493426
-0.0209846698304885,0.00491360332949047,0.0154999833636308,0.00179322047250814
-0.0139722003814666,-0.0029190138388592,0.0188612006022662,0.000125410205019601
-0.00473547925509826,-0.00353245372473362,0.0188237717301027,-0.00132768651361182
-0.00178774957994933,0.00306887285744475,0.0169276467963104,-0.00210276691834613
0.000363371367350705,0.00926297838411049,0.0140285363338903,-0.00229027391428741
0.0067262274943317,0.0127380085425335,0.0105273768128328,-0.001831577067156
0.0127840536511149,0.0119730682912947,0.00503136861074765,-0.000845275876058809
0.0166925343262664,0.000666894242276003,-0.00266999269491189,0.000136026261097215
0.0228672364314857,-0.0182276275582234,-0.00951598780266734,0.000944457862088479
0.0301058216295121,-0.0220580658362146,-0.0111687570221773,0.00168156325195724
0.0342880757256145,0.000471936691744966,-0.00696518918592376,0.00214211224290994
0.033263695353307,0.0327504800229634,-0.00339489335767921,0.00211652967944486
0.0257250909485483,0.0543942361850914,-0.0028205058434958,0.00172794181802221
0.0148867915750369,0.061746105780002,-0.000908476063323815,0.00141434730433963
0.00694800291817539,0.0639849490660494,0.000361921844512648,0.00124322100395666
0.00385490445539252,0.0632947241243066,-0.000995570204526806,0.000883658500957331
0.00224876867846637,0.0583101785125788,-0.00247390249691508,0.000190870612955208
0.00174070991945249,0.0528805831018682,-0.0030712065840596,-0.000727587460532555
0.00374764558722208,0.0489709513443049,-0.00299906238626025,-0.0013974410380391
0.00722619005846606,0.0477703985756467,-0.00389275761419583,-0.00138386402790694
0.00944944602263217,0.0499018701537602,-0.00464695243030613,-0.000885466924841233
0.0068096482741627,0.0525941732398839,-0.00155412600431816,-0.000404450810214646
-0.00427876614315708,0.0543359719339745,0.00280147003034856,-9.9134095251251e-05
-0.0219087137541823,0.055992042011205,0.00373524770761124,3.99099624481547e-05
-0.0353989627950987,0.0572457585830801,0.00217188524806283,-2.20796301493456e-05
-0.0323039380600749,0.0541854064464165,-0.00223764756823735,7.33239406666411e-05
-0.0118086544085624,0.0397810604315212,-0.0132431058773293,0.000715760818330035
0.0117098403774646,0.00491733066044434,-0.0256004490825355,0.00175527316626236
0.0245744840966689,-0.0458610209634692,-0.0265884153381194,0.00288973999820897
0.0259077348447489,-0.0846263934002018,-0.0166689474973564,0.00378873917907348
0.0202631543245611,-0.0963235480007415,-0.00490460342771239,0.00413005653833807
0.0103337332606398,-0.089031186781642,0.00501741603390336,0.00382712754042628
0.00427134168378166,-0.0697524833465032,0.0106418800873797,0.00290097107353103
0.00338981537570465,-0.0427848693711249,0.00970849311343256,0.00142055371562323
-0.00119219029582502,-0.0125177483605585,0.00419584270943194,-0.000246839811033746
-0.00784675781047813,0.0130536922881157,0.00162837606707962,-0.00180852494705273
-0.0108982476308152,0.0259890815843555,0.0047476471503303,-0.00332619019475637
-0.00685780388625413,0.0293363715873044,0.0119536873352345,-0.00461041129876535
0.00658825021623177,0.0300882039508533,0.0221909117325507,-0.00553987414754052
0.0252691469958869,0.0235767282352977,0.0250151122338829,-0.00597913548091093
0.0437031318445529,0.0093044884406669,0.0169411205182669,-0.00507596225746244
0.0492367778457938,-0.00139090938845013,0.00918555632715074,-0.00253767741746385
0.0340995551348477,-0.00840695350232904,0.0051201528709939,0.000688875463058263
0.0144694981353047,-0.0158241313952848,0.0011718134003484,0.00356499538046898
0.00392385426977492,-0.0186544008798472,-0.00390490752140415,0.00544070006646142
-0.00196795628656034,-0.0181860469503265,-0.008112130093031,0.005830211059954
-0.00731577935539635,-0.0198139488220551,-0.00379410109314949,0.00471281725796415
-0.00995024203752621,-0.0204657459696845,0.00620285485301407,0.00256042746532693
-0.012132868821645,-0.015609323370728,0.00814153528746972,0.000111369353205929
-0.019447701221305,-0.00309535429535831,0.00372191600153144,-0.00169755007028737
-0.0266141172544377,0.00918899218101621,0.000346956705097557,-0.00248064719493989
-0.0210753625927449,0.0157012422966235,-0.00347541266964437,-0.00230844848735758
-0.00236662120902069,0.0231809150223061,-0.00756766908899413,-0.00142480259965759
0.0160401017532252,0.0227456155538313,-0.010725200425786,-0.00037912762979999
0.0249137751791034,0.00659825999761658,-0.0109714660242925,0.000238081872787531
0.0253993131261483,-0.012898936618974,-0.00504603411263776,-4.20581408799772e-06
0.0225199192470571,-0.0289535460151637,0.000748981444002525,-0.000866784069473442
0.0244825283054603,-0.042023716770029,-0.00115519409110582,-0.00150447614265356
0.0349125638936871,-0.0543757113090209,-0.00812044695936772,-0.00131708011702538
0.0456663237196091,-0.0640026210376279,-0.00867799223807088,-0.000655581391234201
0.0417608280949974,-0.0553097609239267,0.00135142139934017,-0.000780302786055936
0.0200311681438849,-0.0247211365083342,0.010420554286071,-0.00210438930785026
-0.0086087018756708,0.00890003961754315,0.0136153610276226,-0.00300277002423059
-0.0338245548855867,0.0280383118607304,0.0120792841943141,-0.00214952762995989
-0.0398986130392098,0.025947036433194,0.0043507931690548,-0.000255367024544926
-0.0210812948851889,0.01273114368733,-0.00544302224644887,0.00168190568235092
0.00548061959858355,0.00207776227393407,-0.0109109102828973,0.00322818565171896
0.0294590750447376,-0.0110748167141364,-0.015124328739149,0.00377029350336826
0.0470607804737109,-0.026312356169548,-0.0244588335463117,0.00322778526189692
0.0478980623048729,-0.0276344282304666,-0.030026206446622,0.0024016362548855
0.0339629263909478,-0.0143389086765719,-0.0218986928636066,0.00147753130953154
0.0159109391861001,0.00030419405821476,-0.00934050055958446,-3.23045560002137e-05
0.00111956077505809,0.0102103883914547,-0.00165678658175246,-0.0017178799287717
-0.00585465408144257,0.0161069689431359,0.00487644399730253,-0.00264040548979746
-0.00921770281467446,0.0198666425606436,0.0126102833182032,-0.00298331093229916
-0.0127534059110852,0.0244961536486775,0.0170608952386665,-0.00341778250456009
-0.0137734745168213,0.0305337622759793,0.01325442212146,-0.00352184728524459
-0.0126369406383006,0.0348634010914301,0.00448132437830847,-0.00236488014143892
-0.0166466350461186,0.0361675075662847,0.000256316613815755,-7.75056430960324e-05
-0.029241603137431,0.0351436060836619,0.00065740391685894,0.00223276574256873
-0.0437364077458908,0.0323429763116418,-0.00167447505713688,0.00388639172814805
-0.0514286459483449,0.0289934857824608,-0.0081110513820324,0.00482510797399189
-0.0450990211364649,0.0216122134028778,-0.014609375287243,0.00496740872104125
-0.0234733320881533,0.00312896181594154,-0.0182342160678008,0.00441061427200964
0.00591761200441654,-0.0238252272042008,-0.0197579038645399,0.00340883566886125
0.0307829265048451,-0.0450083528396526,-0.0211755759700821,0.00189954019189692
0.0414708882371573,-0.0461649907956523,-0.02255659123243,-3.84277468884319e-05
0.0378899713715562,-0.0281496891069561,-0.0164466689899983,-0.00205211802754589
0.0271724974320508,-0.0114125522659363,-0.00551767176878272,-0.00453346196978741
0.0159979011634946,-0.0118907491982737,-0.0059871791895671,-0.00721233595739824
0.0098464202587104,-0.0160867327230623,-0.00450049093692279,-0.00778866402692602
0.0139541232551586,-0.00913175504619753,0.0134918925421955,-0.00576859750212403
0.0243099270773034,-0.00206966072733792,0.0256925611630382,-0.0034805170214765
0.0279299933466923,-0.00439667027650514,0.0212367717186276,-0.00155550621201831
0.0168232532358879,-0.00974379547244707,0.0144857664819279,0.000941447779351816
-0.00425966273668536,-0.013147888351979,0.0133323089689389,0.00359154540948593
-0.0227700580508509,-0.0166966576583918,0.0123857987200608,0.0053141019442064
-0.0337125197260574,-0.0215084707471352,0.0057910114946038,0.00542554008474489
-0.0428473766829931,-0.0246708208898401,-0.00125650990008235,0.00390166427141864
-0.0506005033176374,-0.0206742977302148,-0.000352228720134414,0.0016746841431681
-0.0500347902631067,-0.00911395552189414,0.00490850557416299,-0.000161830500931646
-0.0401016043796866,0.000976160389014082,0.00450146190497001,-0.00127452534987786
-0.0260410778834853,0.00855250553357591,-0.00598166172550511,-0.00193908427902451
-0.0105006642665059,0.0193210969598337,-0.0181889470204537,-0.00212908087049052
0.00368027589013318,0.0253361645243558,-0.0204389081149303,-0.00165045628061104
0.0125051651837161,0.0209380285593955,-0.0156621496130354,-0.000634169206208288
0.0164234072627814,0.0119044268706404,-0.0111568829543567,0.00069851368055819
0.0154113649947462,0.00273669727565842,-0.00657540240076783,0.00205119755245258
0.0100719433716715,-0.00225262986812402,-0.0006969046466659,0.0028716756201623
0.00321152634505236,-0.000676110333051852,0.00526833359346032,0.00239508783351815
-0.0039179498086337,0.00424446932026799,0.00894932979528023,0.000367171234523823
-0.00731953302565139,0.00672924789471738,0.00582938412720918,-0.00238806114927585
-0.00447548695352893,0.00801102272886719,-0.00350164025282341,-0.00410633610765933
-0.000775883224824128,0.00874692877923709,-0.010646835410031,-0.00374886831757525
-0.00197146614701877,0.00229363780823293,-0.0119036343099461,-0.00220087365837389
-0.00639842355266754,-0.00675423283949204,-0.00999023433850497,-0.000705083328352689
-0.00736283467273366,-0.00507461665193243,-0.00260614272710724,0.000331580134048398
-0.00457295885004528,0.00715839638728832,0.0110327859588331,0.00049697952452918
-0.00165220638829947,0.0156829452538058,0.0186824527863183,-0.000409689543137233
0.00215705185950281,0.0134928642146276,0.0143781085259512,-0.00114659565098687
0.00553696557067057,0.00669387140655654,0.00744646562597679,-0.00045629155703197
0.00552289772489164,0.000117894926823146,0.00363945121630637,0.00115516747254084
0.00261244676078996,-0.00411021745682648,0.000121641084467595,0.00249026133473455
-0.000650363950292016,-0.00641757702081737,-0.00342684618435198,0.0031488075094495
-0.00306930690574413,-0.00981445174654117,-0.00401978656061776,0.00326369724070275
-0.00419054419542245,-0.0141608750853931,-0.00265545696127814,0.00284786912626403
-0.00210012828135768,-0.0176708741498605,0.000650791263727926,0.00199857774621751
0.000450485057622508,-0.0183395136277178,0.005327622065577,0.000813827157977388
-0.00451570996909744,-0.0161018461109614,0.0064937972499656,-0.000559779201156447
-0.018811091094737,-0.0159105520447772,0.00353907886039101,-0.00126924490913515
-0.0313453920665686,-0.0193949070369397,-9.01782653743577e-05,-0.000701466136502868
-0.0308668420663523,-0.0222807609938598,-0.00212144954402085,0.000377258978005808
-0.0215968325414659,-0.0233012420682734,-0.00283035920148252,0.00101502089217783
-0.0130865785830898,-0.0168595301800102,-0.00178727242577164,0.00113040535910604
-0.00956881166811733,-0.00238097482783663,0.00328363931557825,0.00103956906706366
-0.01154386909895,0.0120845102374063,0.00817842838633244,0.000803523732175001
-0.0136474418857028,0.0281303880488467,0.00685417482848646,0.000325504430342897
-0.0116634521269496,0.0407613824995752,0.00238108718501764,-0.000195266689758851
-0.00830809396322837,0.0379946972566029,-0.00248318106560532,-0.000732825397632976
-0.00522024813579123,0.0242772618805084,-0.0106891873966359,-0.00131570868216154
-0.00268047600048376,0.00797952416314862,-0.0173689171897643,-0.00145410709331765
-0.00232088024521122,-0.0104219922924592,-0.0145488478485587,-0.00106093220728664
-0.00386494026588117,-0.024984361630727,-0.00702198970978453,-0.000644849235342545
-0.00485860295253337,-0.0307697903246033,-0.00167468854385943,-0.000328647986655419
-0.00352736573574997,-0.0308333890930391,0.00216069436397393,5.07267536524884e-05
-0.00237528233107998,-0.0272040264652548,0.00630747820970301,0.000497820586900864
-0.0039306114073103,-0.0216877632799915,0.00933388580710131,0.000891350450517763
-0.00526683629853413,-0.0168765326999551,0.00846565445952506,0.00107340043791199
-0.00484842419270111,-0.0141737581033795,0.00487364300790877,0.00118230095680429
-0.0048842222717081,-0.0152953859496212,0.00113504694213202,0.00134542253423057
-0.00665410995108929,-0.0200786946905864,-0.0018489087896636,0.0013784037512365
-0.00759654211898061,-0.0236288914872185,-0.00106291240195852,0.00120868216134968
-0.00608753305058036,-0.0296981777058125,0.00425008188896866,0.000826475297786252
-0.00763406054330429,-0.0407845204158758,0.00957912293145396,0.000127813202490073
-0.0146991352473191,-0.0432302105268842,0.0125411128552626,-0.000737697962118498
-0.0244801820986438,-0.0355445276168475,0.0136899012398925,-0.00146692759308773
-0.0335517449933736,-0.0247075864013848,0.0124477828973999,-0.00201461263207963
-0.037384921705206,-0.00934961777222418,0.00798669032600302,-0.00221303682209246
-0.0345610153734766,0.00409586474564798,0.0032340241271519,-0.00197158852724564
-0.0246248120728085,0.010145027829543,0.0030522993077702,-0.00164876379764594
-0.0104896686560838,0.0132892806941854,0.00831077139709639,-0.00153554191797149
-0.00116396377260585,0.0174257957890903,0.0138874755192493,-0.00147146678677487
-0.00101331255476943,0.0224773811751357,0.0128517121596945,-0.0011590710512528
-0.00660155090076884,0.0252604653660711,0.00288587515736622,-0.000336475697432121
-0.0102463466509892,0.03034924874862,-0.00757529055163051,0.00143399218653179
-0.00699710127874648,0.0445685727632308,-0.0111371125112771,0.00369803658011896
-0.00110132502906121,0.0569730271409074,-0.0144433307087772,0.00489654963101507
0.00201597412665042,0.050645458610776,-0.0194524896672152,0.00428677836881841
0.00493663174499543,0.0281311120085826,-0.02063166426817,0.00235980232226132
0.00867855755535566,0.00747722053252194,-0.0185982688099262,-0.000240904822664089
0.00755655600514101,-0.00492029675959001,-0.0136397779059326,-0.00268171669775991
0.000887068411287934,-0.0163933849161089,-0.00477312405473541,-0.00407056030648737
-0.0062686118233234,-0.0290446822919307,0.0037133593436922,-0.00438107754328145
-0.00810585499399267,-0.0379457198501489,0.00658696654595153,-0.00420840375216833
-0.0045483872970011,-0.0317949343322706,0.00531774926825395,-0.00360373665696516
0.000645899812557446,-0.00671359256404258,0.00464797073276451,-0.00217813733634415
0.00859372792426251,0.0218208377487472,0.00607813945701244,-1.06681112171233e-05
0.0176087778330589,0.0394343608315467,0.00838485603470657,0.00218871058960106
0.0197507010464341,0.0476054197243669,0.011147815700191,0.00349419469861095
0.0129661899055151,0.0534898575379317,0.0146242422365284,0.00341681311451638
0.0064315905043183,0.0568007905068886,0.015176888600291,0.00226954351310929
0.00872721724458494,0.0505091164455809,0.0105101408078397,0.00100667611521948
0.0189655674759591,0.0370666828368743,0.00471608619872102,0.00021798504355711
0.0300797998980886,0.0291135248119727,0.00165867316866802,-0.000300975530053876
0.0329698806594129,0.0263944543354606,-8.64716657342066e-05,-0.000853431260707659
0.0263990184653774,0.0216772007254942,-0.00105956824338364,-0.00116626961655404
0.0179341545489476,0.0146077972017033,0.00120855321163986,-0.000745609092397889
0.0119657361414592,0.00607478941361693,0.0039885419475797,7.26027361135227e-05
0.006547696677182,-0.00221106187429907,0.00401174361785522,0.000716415387633095
-0.00186698602523551,-0.00823399852985807,0.00142874418678608,0.00108486158970914
-0.0135910436085054,-0.0141152539270702,-0.00346201638832094,0.00114647160462084
-0.0267908192672125,-0.0183886682240562,-0.00878067384739516,0.0011406591284666
-0.0323200878635316,-0.0133751752386428,-0.0108743652656488,0.00134139603746047
-0.022792313438196,-0.00142919385755975,-0.00699923260307757,0.00144026896871812
-0.00732096410193624,0.00603064412918639,0.000493089914128237,0.00108560959687565
0.00670619474361012,0.00668230710469327,0.0082118599833207,0.000158364483202599
0.0179309622693142,0.00879110687541956,0.0141365804353428,-0.001261450880957
0.0219775049818425,0.0149444717526982,0.0164385471720895,-0.00272974747762766
0.0192819411539446,0.0206661671494973,0.0146223258823741,-0.00374748488548697
0.0133649249555242,0.0248841734656294,0.00978646538647809,-0.0038048394306839
0.00600446917965256,0.0258334840661477,0.00652028427602889,-0.00258555928469588
0.000695736480437286,0.0232602946015514,0.00657164651255273,-0.000663957614987042
0.000388102851885574,0.0203239759209908,0.00705614366401319,0.000763748700430529
0.00342167543297949,0.0123273496641776,0.00648018017061687,0.00101339097284433
0.00463969086114934,-0.00113352383030213,0.00679029386091848,0.000382255725821928
0.0024315402282391,-0.0116177000930525,0.0100995567175978,-0.000274594574892436
-0.000846044779999717,-0.0163368092028943,0.0131882230492853,-0.000309198359590503
-0.0079397661643286,-0.0178019346449276,0.0129570424888323,5.8425938626672e-05
-0.0175941285690859,-0.0155354829057495,0.00653148343361405,0.00024562860747677
-0.0166519983464331,-0.00710723129445912,-0.00907193951879225,0.000307580413066234
-0.00206527412079088,-0.00660084970102038,-0.0258972430525942,0.000770059256934095
0.0114525312776313,-0.0296339656466811,-0.0314269235737814,0.00173405106376818
0.0130090449042448,-0.0576135519118993,-0.0221497697654361,0.00238319582046604
0.00840787842203211,-0.0626045454025861,-0.0061870936699011,0.00185096443642392
0.0106426181237451,-0.0468999787678566,0.00563325682270049,0.000227289225261934
0.0189790877680894,-0.031005629008849,0.0106493760256425,-0.00172526190135468
0.0175419999535062,-0.0212403387608107,0.0126473934016171,-0.00310428542343332
-0.00156619284544819,-0.00733877843673444,0.0168633782547706,-0.00352811926111073
-0.028799839570149,0.0105866767279899,0.0183951873595405,-0.00346943917183255
-0.0490517886250364,0.0203323930440328,0.00848495775354717,-0.0031002966976145
-0.054636771741338,0.0192651218000254,-0.00453892605701246,-0.0018571532914792
-0.0494964946903498,0.00790535029646807,-0.0080073761229672,3.60303229791454e-05
-0.042220096493887,-0.0145745370777968,-0.00282852928755842,0.00145395858625544
-0.035193732434848,-0.0315512830287125,0.00276291492640811,0.00215630769386854
-0.0235905912192261,-0.0323541965378163,0.00313353570558812,0.00268377221868979
-0.00770480656315679,-0.0294839183875069,0.000298611168949911,0.00296255426049701
0.00592442663225508,-0.0289276426292007,-0.00154915652013915,0.00239713539754947
0.0156752266703548,-0.02963981485427,-0.00489571119401961,0.000746277898768969
0.0242101907268291,-0.0385575006547297,-0.0120854539599479,-0.00128079332548904
0.0302023443775523,-0.0519272158676006,-0.0178270366026891,-0.00240293419606275
0.0304314084043495,-0.0485669718172679,-0.0171059750243684,-0.001960765003822
0.0273686099486917,-0.0273924344284089,-0.0124176513437069,-0.000759008339852099
0.0256737371849921,-0.0108547732036795,-0.00727285970258568,-0.000221541120919253
0.0282703847343811,-0.0110247074714499,-0.00189501183355571,-0.000646704625049939
0.0332928581883658,-0.021271139366376,0.00321311559925408,-0.00116803316285329
0.0323792666024804,-0.0242066804840742,0.00685598245717093,-0.00113249831722727
0.0196238921601773,-0.0168769739203361,0.00835215233780862,-0.000597337251442059
-0.00135909669448397,-0.0158311079417233,0.00776939539326117,0.000237335328888703
-0.0170343369707739,-0.0238696196615348,0.00560504764797149,0.00114519774019903
-0.016334476505574,-0.029644416479455,0.00174832113673009,0.00188459807000039
-0.0014212080235755,-0.0300120071244721,-0.00431274924782024,0.00243211195208411
0.016218948893571,-0.0287360448496878,-0.00966046230148574,0.00294532688773835
0.0237165515329843,-0.0264935018920466,-0.0113293752433859,0.00320074277746237
0.0179411476541429,-0.0220216843233481,-0.012947408652928,0.00273840063992588
0.00450955509288861,-0.017312075846755,-0.0153659664823628,0.00189312601473322
-0.00564845762313621,-0.0159717632362073,-0.0103179150846629,0.00140089607075994
-0.00116732440764621,-0.0163778827334765,0.00296509339566039,0.00117624756623038
0.0118112720349632,-0.01257415904004,0.0121872905093962,0.000492674810835912
0.00939792358303234,-0.00399576063552585,0.010954742319828,-0.000728644198477392
-0.0160456160329573,0.00247993400557554,0.00274686220479058,-0.00187024268801773
-0.03740680049327,0.00663619908930963,-0.0114901821372959,-0.00210200755149044
-0.0305225320902454,0.0133387113554971,-0.0251117770480305,-0.00101767429300855
-0.00842490973323984,0.0177569497723396,-0.0259627337019508,0.000680475857240021
0.0069888054940891,0.0177894314819715,-0.0165945849145496,0.00188226563946734
0.017212873546755,0.0144408803102754,-0.00554220948170282,0.00184435829868178
0.0272699325947538,0.00517524418783885,0.00439796035054336,0.000779569037874136
0.0320521762280135,-0.00590067026999919,0.0112978309993112,-0.000261284752420766
0.0282755445695156,-0.010400584745128,0.0140906814244816,-0.000381378728897888
0.0165682615520175,-0.00688253331272371,0.0110480919031559,0.000686666077174081
0.0032119318805012,-0.00103248510281949,0.00255820979307694,0.0022586293532434
-0.00369816532223143,0.0043133021591834,-0.006384945283983,0.00302769123551635
-0.00203703016499145,0.00845577227340494,-0.0116882561288176,0.00239160017084593
0.00501834124453251,0.00893169826560569,-0.014200882773128,0.000798441195833311
0.009450645621223,0.00627695811710432,-0.0161954024486231,-0.00113264069426517
0.00518511116867667,0.00437908693485087,-0.012698571667199,-0.00280543178570388
-0.00534983906214817,0.00422745764874086,0.000294125094655217,-0.00360682169539505
-0.011379387029787,0.00350746416199004,0.0146258832008132,-0.00353770804288744
-0.00309413445495571,0.000999196971487667,0.0192064188380192,-0.00278768657827185
0.0120564344976714,-0.00123386520350666,0.0131203671974407,-0.00126474216231633
0.0164790680077372,-0.00208224989135679,0.00506876455143328,0.000978196948947008
0.00738564137378,-0.000981941129145108,0.000885943085746091,0.00353145806847428
-0.00401482059239098,0.00429065315080661,0.000595931683403609,0.00542823727551987
-0.0102577176835487,0.0109972885832966,0.00197448858641157,0.00577134437253202
-0.0110856351180703,0.0161736328631508,0.00151499538754577,0.00450344222194911
-0.0109238028277357,0.0217845664190087,-0.000796262933414178,0.00217214207686947
-0.014357020038022,0.026926769560803,-0.0047014275540881,-0.000310575592674258
-0.019104453827943,0.0324260480688369,-0.00960299329168611,-0.0020461255523299
-0.0200944950410542,0.0410089310894969,-0.016141195188566,-0.00286429655131176
-0.0181815769946229,0.0481622215013477,-0.0226531494527235,-0.00282020896761902
-0.0159493550624513,0.0509616183338035,-0.018084133344366,-0.00186745335813887
-0.0123064759127952,0.0500578919387757,-0.00477466052326421,-0.000838757061220045
-0.00798195847805768,0.0436624987704979,0.00364600749239175,-0.000854373030635551
-0.00494583474819732,0.0330381618677565,0.00617018713754444,-0.0017951205578505
-0.00322710259155198,0.0257684056117452,0.00612243035251182,-0.00250320769506439
-0.000461685696765433,0.0244680323409119,0.00353552779479581,-0.00219465424306163
0.00260758887203045,0.0211294441605658,0.000927108924820135,-0.000645333254047742
0.00144737493825276,0.0106492976638205,0.000700461332610983,0.00170648464907283
-0.000596232906796784,0.00293881008220569,0.00237510517923018,0.00301459060599941
-0.000290369376228068,0.00545213024592977,8.24664070417677e-05,0.00193503211115489
0.000567551188497188,0.00749156018667328,-0.00720213823941191,-0.00042484141945226
0.000491624649834212,0.00228209877415467,-0.00939380174697669,-0.00210733789494549
0.000498549320280773,-0.0110634719251757,-0.00408199362286204,-0.00260391952900798
0.00423024294901241,-0.0324532126330146,0.00369393491576004,-0.00257632679568911
0.00819712320842654,-0.0445600356076731,0.0107703225119103,-0.00238855991762363
0.0109878113102918,-0.03470106213385,0.0152550613522939,-0.00191394271649933
0.0176435889989119,-0.0155696492431842,0.0153466105857321,-0.00116084437004002
0.0236839860734491,-0.003201857801191,0.0101859346337942,-0.000290350835518665
0.0263707491967046,0.000443502034709206,0.00493660238096246,0.000749692034722098
0.0279614879636433,0.0072802946822314,0.00519278309371337,0.00178725812854277
0.0242756512151322,0.0244485685911252,0.00837352239519414,0.00224153488952863
0.0162913588112371,0.0386682425560835,0.0107067676892274,0.00183366375562267
0.0115857971449463,0.0394970915417488,0.0130010410468168,0.000819456765738531
0.0132176293736822,0.0336592736977725,0.0155640781689908,-0.000458198675343595
0.0167970931817918,0.0230274506708692,0.0166732684497491,-0.00171731373580903
0.0136154095319783,0.0063772473373058,0.0120126683588674,-0.00283131589094385
0.00446464481709775,0.000293368198563175,-0.000199055117837823,-0.00353549266979292
-0.00136496971082538,0.015289408034882,-0.0126031978431054,-0.00302200971736043
-0.00459669419824493,0.0343001238466221,-0.0161284627511326,-0.000894480991422729
-0.0139192688019535,0.0408088327075258,-0.011660659790366,0.00201020564170412
-0.0357411931312495,0.0349556630676167,-0.00466234457221388,0.00414372433172762
-0.0619325247384829,0.0247606481574352,0.00338665233352491,0.00442321135451561
-0.0698543292093452,0.013883268353151,0.00969516197192867,0.00292011244407579
-0.0499867079276368,0.00243768048650031,0.0127411279299757,0.000483088242548088
-0.0155296952743631,-0.0104839219928774,0.0129404778616603,-0.00193876660412587
0.0138053833076497,-0.0293744108536899,0.0073221895546661,-0.00369644503127252
0.0318676539870087,-0.0441866293122623,-0.00253128659764306,-0.00421818197329236
0.0438539139777609,-0.0348275884608913,-0.010807203519236,-0.00301227694916603
0.0515672334652964,-0.0133756659402733,-0.0137929045211727,-0.000581839223108709
0.0559948427714831,-0.0108023758545913,-0.0103460212694226,0.00166653621854784
0.0588033631291371,-0.0233753066968766,-0.00450941915765584,0.00288536353623767
0.0616934135236198,-0.025180651467409,-0.00104735769961889,0.00320106248339384
0.0593386959088894,-0.0114029259677041,-0.000358411218235981,0.00267048159817015
0.0433338142739855,0.00378358176072801,0.00215585589252854,0.00103825777392785
0.0149619708060785,0.00981535621758114,0.00883201716313977,-0.00132603001884423
-0.0189785533565413,0.00637738094895737,0.0152138964881617,-0.00340996753663224
-0.047850420127327,-0.00122598632256524,0.0192579944543082,-0.00414828348488822
-0.0575774729946972,-0.00992658798303897,0.0202238704153439,-0.00302741895293582
-0.0450284483628125,-0.0173899127669478,0.0126418912722952,-0.000400371798466089
-0.025140403322124,-0.0185072200551466,-0.00344660937280103,0.00309290201828363
-0.0119546285832465,-0.0178568958627794,-0.0200504031205878,0.00656752927546415
-0.00577481526953279,-0.0222738970789881,-0.0274786430265308,0.00870086001424091
-0.00357538446905434,-0.0211050842890754,-0.021200458938598,0.00830009493608681
-0.00523695326822802,-0.00928909749883485,-0.00988783936636087,0.00530230283559582
-0.0064417108870233,0.000415517642942599,-0.00443763516029713,0.000822944852412978
-0.000132580626669933,-0.00112695492918731,-0.00226796323687806,-0.00429040793754013
0.00992003192927494,-0.0130861854019575,0.00198037729840588,-0.00929910816323619
0.0124478935527274,-0.0271301168318622,0.00129356276160427,-0.01219861069852
0.00358834469974417,-0.0314523064807236,-0.00546045128181932,-0.0109332759770588
-0.00870900828615243,-0.0211532651623232,-0.00707654392446566,-0.00568273710753681
-0.0134393484205851,-0.0050553014681306,-0.00116847478990483,0.000873013850381802
-0.0134541107606306,0.00550482148248838,0.00724433095884201,0.00560414405593505
-0.0142924981327829,0.00972541523689311,0.0173914426324387,0.00709374056707477
-0.0101663109833789,0.00595286749366022,0.023136589881193,0.00573096073062548
-0.00112081467769037,-0.00601689645092082,0.0160219406289781,0.00312811333418326
0.00340272976639408,-0.0115029398732465,0.00398133851020354,0.0009402570673309
0.00130587935864746,-0.00233677028227251,-0.00472868820870682,-0.000660124899518006
0.000838414769283021,0.0111223625415139,-0.0173029983797844,-0.00199990746312598
0.0035574289438161,0.0209247093539163,-0.0354813977221222,-0.00249643744166179
0.00248923833888137,0.0241443838274657,-0.0474511629907832,-0.0015894671995011
0.000193106304449919,0.0139863105522776,-0.0456327766784346,0.000135562268513441
0.0044873667791875,-0.0033008322400391,-0.0351425663604741,0.00143940563902772
0.0134022523204603,-0.0138316037015415,-0.023578141924572,0.00163647208389853
0.0149764002770281,-0.0193631699711287,-0.0128439334652098,0.000862381699285813
0.000294981251230571,-0.0267774472315205,-0.00317998549720677,-0.000416788003889615
-0.0211315509858267,-0.0352442754985435,0.00286354433445682,-0.00168861165281494
-0.0281320820534876,-0.0366373082458551,0.00453636633145383,-0.00250838249877017
-0.0186394197590107,-0.02568205994132,0.00444609564230414,-0.00294202725652355
-0.0120298785343283,-0.00879598829558985,0.00365874019534757,-0.00346291689985167
-0.0160668785728339,0.0047481810610368,0.00465551841275772,-0.00390331624587128
-0.0214583464847262,0.0113252261267758,0.00683458418950718,-0.00356285199739157
-0.0195910941973244,0.0106067679899134,0.00516299494711717,-0.00236613122015459
-0.0137793981019271,0.00518554506091152,0.00254712425058619,-0.000920791251180478
-0.0136584862088181,0.00219726797121678,0.00128818289180475,0.00019214376292752
-0.0163500160736345,0.0058762775873401,-0.000298307172690283,0.000607977028488926
-0.0128459613101708,0.0109460791647552,-0.000164101075223405,0.000368595128953439
-0.00528261061792375,0.0136353855492303,0.00121908517920656,6.63212403912856e-05
0.00147147066652098,0.0188073072770868,0.000313588188229576,0.000301671250161701
0.00340004850475269,0.0247791332284752,-0.00202153471391464,0.00115230699093584
-0.00039686369066301,0.023553210256311,-0.00248945553960802,0.0023373597604504
-0.00286194946266529,0.0133244833573486,-0.00179492764047476,0.00320539457193654
-0.000977044177082064,-0.0020021370989481,-0.000163301844798843,0.00311195967766028
0.00586162128807331,-0.0173101449046135,0.00181590009492182,0.00216852653219533
0.0191456003470782,-0.028232772191443,-0.000352734932182791,0.000732819954911409
0.0323488812844292,-0.0316631241730672,-0.00658344850813502,-0.000846138498038629
0.0374333654634515,-0.0312232907429688,-0.0104704752977268,-0.00183577914930876
0.0310379963744434,-0.0324948850107859,-0.00767662106028767,-0.00164042821248813
0.0137838094611298,-0.0360408376020037,0.000453557164196131,-0.000665005822719297
-0.00594953174652483,-0.0352465129749542,0.00968312133656789,9.60716493673875e-05
-0.0209105035250791,-0.0233228683554131,0.0162760292997133,5.00667219853797e-05
-0.0298446494812924,-0.00826888124597387,0.0173503045584712,-0.000527186198389201
-0.0299546251476303,0.00125970108111845,0.0138452883681386,-0.000707459767584646
-0.0202892277414104,0.00635222416691235,0.0113592616954134,-0.000177365111323731
-0.00244860009041668,0.0111101848316246,0.0112026738100933,0.000547631716617933
0.0171363320293929,0.0210237319215618,0.00928980397601019,0.00152672224224189
0.024691546363387,0.0286055459103162,0.00491342539262895,0.00335449414755558
0.0216265321035585,0.0257350304075588,0.00328439994509823,0.00546277355420561
0.0223301200030935,0.0184817184690318,0.00663597830899527,0.00622385347427711
0.0276719160015045,0.00896134963372746,0.0106619627906197,0.00487948343921252
0.0287308021344278,-0.000170749920897578,0.0119709129226902,0.00206607142907739
0.0242406914569049,-0.00402320628745591,0.00995219994639325,-0.000805157159845956
0.0224266231323437,-0.00577275540741673,0.00464791018877941,-0.00261792857574413
0.0246538175760264,-0.00636619300929031,0.00104458169537255,-0.00317697636209934
0.0256990034935365,-0.000962327696329909,0.00369178997775431,-0.00289320285871685
0.0258290821594392,0.00947960357164854,0.00945786713365806,-0.00256358539377165
0.0272577389012995,0.0178457553103426,0.0139419013932382,-0.00251085699820275
0.0280848889588931,0.0247970804085914,0.0166440084328888,-0.00226992451960018
0.0207266421129077,0.0368947779825789,0.0187875364292653,-0.0015099771201623
0.00376081287522034,0.0511098073773763,0.0179991274322927,-0.000324793610882441
-0.0121640805291342,0.0575026397034752,0.0123595477225291,0.00105694375121826
-0.0194581942406486,0.0485235313151567,0.00585612361562026,0.0024315419579159
-0.0184676134163271,0.0222714065396946,0.00277948213787955,0.00366200683096828
-0.00561252173990694,-0.0122571281079308,0.00204074899104895,0.00439809409546736
0.0149496637088943,-0.0365930723224755,0.00107074864014447,0.00451336974038425
0.0216584372158878,-0.0370320603677558,0.00089231886693917,0.00444072925741898
0.00864549279571427,-0.0162886816126505,0.00329266074207941,0.00410661755066946
-0.0053988513849961,0.00809550251916693,0.00577318582936284,0.00319473735759657
-0.00423344337571346,0.0214650692920036,0.00535434758863227,0.00176126671246916
0.00949832069259781,0.0246167516897871,0.00450527307449403,-0.000187916878637551
0.0205264390288226,0.0255982285067,0.00642773877021555,-0.00229826256748013
0.0199941821079915,0.0311637225709312,0.00859821417820013,-0.0038648147555603
0.010929246972818,0.0402307914445457,0.00716056443217627,-0.00436878688722355
0.00130032117608183,0.0456191525279177,0.00520559212657185,-0.00370239667029122
-0.00164564497671017,0.0443475809715347,0.00659768670299878,-0.00234372045237776
0.00186067471703625,0.0373556017875647,0.0071622871366011,-0.00121139354944763
0.00487079112102632,0.027818926517174,0.00524410007763553,-0.000890045036753269
0.00340563927152992,0.0207665127529598,0.00499560154290856,-0.00120024347603629
-0.00107563282073915,0.0153082773777209,0.00505624442637266,-0.00152836403509019
-0.00643208066429099,0.00815350267153168,0.00276414854284575,-0.00147578563533112
-0.0109678514406741,0.00529318700163238,0.00147909815695853,-0.00136351137078598
-0.0120523824233707,0.010681027754802,0.00171991469240927,-0.00119383615943086
-0.00856504814531303,0.0173445757735987,-0.00155294434074973,-0.000199842986517627
-0.00340560648232192,0.0187628438594757,-0.0069086721207294,0.00147645736220882
-0.00102936224457586,0.0127665076682419,-0.00730234145609391,0.00244024811076066
-0.00211461942566672,0.00294114225645807,-0.00537839173771056,0.00224148573119597
-0.0022023605671747,-0.00368589899467016,-0.00558514266281702,0.00195906082277394
0.000178088222105972,-0.00604719271514281,-0.00443082573615015,0.00229156666929757
-3.12697290856742e-05,-0.00839623079667928,-0.00246477320364456,0.00291694994766747
-0.00487108938266786,-0.0114279077361921,-0.00219307994665991,0.00319152100171402
-0.0108788056295434,-0.0128027137317198,-0.000674240643301833,0.00248862319686475
-0.011955439958628,-0.0134480823356784,0.00130091491825021,0.000596393651457852
-0.00712787225271698,-0.018338378501152,0.000826504224000834,-0.00199250278782479
-0.00329370099693961,-0.0301547462506448,0.00104823261556656,-0.00427041971102079
-0.0037071062605739,-0.042969030547638,0.00268985707198526,-0.00535718904386022
-0.00451152201976216,-0.0501534739016161,0.00343858831231511,-0.0052874722138112
-0.00316492825312754,-0.0522989789921087,0.00309262318926687,-0.00451532296141042
0.000665264610216472,-0.0493263077639613,0.00469674078408144,-0.00329165861018328
0.00499323309382416,-0.0392396286829034,0.0106629297122613,-0.00199850306909027
0.00249116456731717,-0.0279308366659545,0.0176204662794415,-0.000972892200601569
-0.00878218072006821,-0.0202905255239437,0.0213167841102409,-5.09388814120453e-05
-0.0202052488927747,-0.0119229043622585,0.0209513823844345,0.00107715807793209
-0.0211385116302444,-0.000755063989324081,0.0180052403044465,0.00235333086629839
-0.0114630339312485,0.00910870371436388,0.0136551907652006,0.00337744670538243
-0.00242695053884921,0.0133384325059884,0.00620668501785848,0.00379427462188072
0.00105747629945785,0.015109964405662,-0.00347297648823993,0.00378352299201469
0.00220860559095446,0.0221822288688466,-0.00759679989126595,0.00374886054247759
0.00134453379000322,0.0307827919772028,-0.00600782592009991,0.0033734289741242
0.00217773576949155,0.0289513246850677,-0.0117970229340345,0.00185770237203369
0.00896956215304623,0.0211090242551623,-0.0289206706977746,-0.000288912911427421
0.014454063980022,0.0176191797617302,-0.0434341348775326,-0.00140641392692431
0.0126426648281971,0.0135584935120674,-0.0420778520538832,-0.00113924109614189
0.00723215726843536,0.00518798076588874,-0.0282016882395098,-0.000721966979617629
0.00237829646693415,-0.0034123779415941,-0.0146630976207673,-0.00101225703306196
-0.00158414751928152,-0.00928717805044484,-0.00420164960981895,-0.00180856403140195
-0.00604803370964156,-0.0143037901797303,0.00456378870640257,-0.00272775110616088
-0.00985090063944007,-0.0193494702467367,0.00869032320808734,-0.00344633698032951
-0.0124922325147103,-0.0193117427232306,0.00875983473686548,-0.00365314943279787
-0.0138084010051452,-0.0137779002976123,0.008303405128759,-0.0034207956858751
-0.0148291354148134,-0.009016118975689,0.00862972279471997,-0.00290107208734555
-0.0177772016142741,-0.00837638790423846,0.00549184418794762,-0.00175373104227038
-0.0183335441159485,-0.00958020056730142,-0.000257899985706616,0.000158862212209894
-0.0150506671072269,-0.00686315578118166,0.0017871033189449,0.00205610093342769
-0.0132012635128529,0.00289615383791102,0.00955096826410871,0.0029911818372033
-0.0112410159408657,0.0146810799396859,0.011689587775084,0.0026645801352557
-0.00340457131947455,0.0233976925183277,0.00527720232705272,0.00162239805937992
0.00811942267133596,0.0291883598403091,-0.00693369834723908,0.000649672365224739
0.0150965308981024,0.0345157931206982,-0.0150002348388134,0.000100496100332896
0.0128717015921715,0.0409780690812407,-0.0137617033734397,0.000293271953177845
0.00582211318930125,0.0427472758228761,-0.00985491482965936,0.00121488902739208
-6.75512017794255e-05,0.0327046919052751,-0.0087937959660543,0.00211186105903053
-0.00378117300369075,0.0184686862642546,-0.0119935022713597,0.00224103414790937
-0.00539380852084357,0.0174421380086011,-0.0172777996401047,0.00152253482989798
-0.00521758160642288,0.028183953797563,-0.0220751185861045,0.000566837355825546
-0.00321398984720346,0.031920690581084,-0.0236068316076721,-0.000128639863486822
-0.00137234107563239,0.0250067617374125,-0.0204474133323841,-0.000842531170477724
-0.000508238095685063,0.016129619295946,-0.0168643805691845,-0.00172766403172929
0.00363417295097474,0.00941136866360075,-0.0157787884872186,-0.00230510852771401
0.0101157705181362,0.00633929583226748,-0.0139314486223241,-0.00243953076393384
0.0162459279913942,0.00202116615607661,-0.00985440861761257,-0.00245416125882039
0.0217950522237714,-0.00846220503396711,-0.00476977157290757,-0.00257614098540005
0.0216724494199611,-0.0197408302210725,0.000610494513901527,-0.0026757301167936
0.0134364285730157,-0.0273047830072161,0.00350554058742271,-0.00232496289091449
0.00393272543478679,-0.027992910960371,0.0055792237030517,-0.00154992297940113
0.000105471778025525,-0.0195380931544202,0.00869371170682276,-0.000836401724380131
0.00430626383397765,-0.00881705386580241,0.00963142113798262,-0.000357555641877643
0.0130925765987275,-0.00132629944644925,0.00760323859914161,0.000153166470198454
0.0209792036077619,0.00710510435656879,0.0031019747778051,0.000881823447343132
0.0311390788299622,0.0243870341968012,-0.00379159180228936,0.00167057132256798
0.0429271309763325,0.0435296896901504,-0.0108465710566663,0.0024796177729469
0.0468068900907853,0.0434100478836595,-0.0146963988670624,0.00349745955710676
0.038954314906262,0.0239752427234615,-0.0162972143753566,0.0043778427998859
0.0239005751941166,0.00432413779637852,-0.0181268797336813,0.00414228875383758
0.011762296116665,-0.00379419272411755,-0.0158048768858625,0.0027205004637784
0.00756479684102763,0.000498050155035804,-0.00605534093304518,0.00115711126635146
0.00386529749702378,0.00981824117261021,0.00496088602962428,0.000110617111988793
-0.00401947192873767,0.0169694416293904,0.0146500686781399,-0.000556884644002455
-0.0145868465956708,0.018246799680116,0.0242170698652832,-0.00117637980159174
-0.0311374700933041,0.0128860514263316,0.0284540103527869,-0.0019116431344158
-0.0449294271161736,2.64134571748634e-05,0.0239563860642019,-0.00286690860553627
-0.0417061449111178,-0.0205628723778653,0.0143910234271086,-0.00366089357172118
-0.0299573363249541,-0.035143199804011,0.0101200606057064,-0.00349367883564475
-0.0234656717492762,-0.0321615044976262,0.0108619612283875,-0.0027660854745066
-0.0192131572760057,-0.0256760381927546,0.0039513997222141,-0.00279882629316189
-0.00708456891093591,-0.0277142059930518,-0.00581092420154279,-0.00295191252017594
0.0125290573122671,-0.0287491270714414,-0.00993229085122604,-0.0013728446140389
0.0276542806007568,-0.017985820299803,-0.0123609501233581,0.00162889623324486
0.0301530364764853,0.00613526853194687,-0.0131759833891547,0.00426167758731425
0.0250026545186892,0.0269161354298674,-0.00901410561438562,0.00552253322940175
0.019139168305533,0.0253017306040414,-0.00123919152137583,0.00542350889357552
0.0128346198889726,0.00817012195564251,0.00482006761342356,0.00430982309681132
0.0077265690984038,-0.0078010518496605,0.00602891139126099,0.00249254460683209
0.00496808905118037,-0.0165434726657533,0.00642185479333691,0.00050102488725757
0.000506521037444609,-0.0186808885120633,0.00866955080544895,-0.000986073040927266
-0.0105783218453371,-0.016950299313795,0.0097732960082113,-0.00162034990563818
-0.0263067290066439,-0.0182519688273729,0.00826427528113413,-0.0016513921739728
-0.0396377865628579,-0.0241888640435175,0.00300498041460234,-0.0015017301467959
-0.0514585486505639,-0.0256243607767462,-0.00474908119527427,-0.00118832376129744
-0.0627654092172464,-0.0180256144433808,-0.0108573041633757,-0.000853612466805485
-0.0655083855467616,-0.00727680334922647,-0.0135737549603554,-0.000837844462749558
-0.056676721148476,0.000378206572805746,-0.0110105300768382,-0.00115618099805787
-0.0422896922069625,0.0052820080633924,-0.00451065287351981,-0.00161883934532872
-0.0272261116142458,0.00807529434218368,-0.000923315683086633,-0.00195004938665042
-0.0113519433275408,0.0068995044006621,-0.00281960703412969,-0.00170970806337165
0.00260722272833665,0.00213296915957231,-0.00748494305760538,-0.000551946040568148
0.00467150298228241,-0.00393470704928616,-0.0103939128381846,0.00120209910921822
-0.00785229776844556,-0.00801526494845237,-0.00827812976165973,0.00271723530233664
-0.0241282885607408,-0.0101897138588866,-0.00560864158330609,0.00324307696848004
-0.0307628923355176,-0.0146458490315365,-0.00619019451622391,0.0028314779085385
-0.0260858890450381,-0.0234379611534059,-0.00662274026074634,0.00194966904930152
-0.0193326650001529,-0.0326034798890842,-0.00617962102663628,0.000708586412550801
-0.0145435127326362,-0.0371574140858881,-0.00767357056709997,-0.000545868729161656
-0.0120256482808057,-0.0351112515524077,-0.0102165297062557,-0.00107151772317279
-0.0152694998869246,-0.026939675548989,-0.010021759566492,-0.000871746308275809
-0.0232722854611207,-0.0172788401521459,-0.00637554380664643,-0.000933298188612442
-0.0272655438537251,-0.00954449651850387,-0.00265141276152139,-0.00172871828481212
-0.0219366496508329,-0.00485200245151513,-0.0019770995964127,-0.00274661657365291
-0.0124345381568285,-0.00434486965791445,-0.00315555132822192,-0.0032126167943396
-0.00623966722438697,-0.00711985481822211,-0.00430818668475841,-0.00280322941465583
-0.00620809678074421,-0.0131951911872543,-0.00599848079279093,-0.00188478375829517
-0.0086583686451078,-0.0182345630144131,-0.00721574474868721,-0.000789811219023065
-0.00903709396579321,-0.0116986274989739,-0.00791010669783097,0.000561891490380629
-0.00786682154466597,0.00730857470796935,-0.0077326766582485,0.00191844232729865
-0.00658232565209954,0.0262995546024417,-0.00577583156689243,0.00252226399640336
-0.00359383061073051,0.0366643562579736,-0.00437725849399282,0.0021302221348756
0.000627657833346815,0.0364280688197161,-0.0024823021706837,0.00129414977943156
0.000294968586685498,0.0265617656287503,0.00230204760481444,0.000573469312638021
-0.00631797821409018,0.0125835768837815,0.00588209710725114,0.000140270823661119
-0.00997008116113879,-0.000546328686055426,0.00221100063904009,3.65400233326226e-05
-0.000139150644981987,-0.00601888630669114,-0.00819525224277142,0.000509234189286017
0.0209174977103892,-0.00106126561349813,-0.0156893646383525,0.00161617458184208
0.0337854811141142,0.00645944157172147,-0.0132051234973944,0.00254939196455029
0.0220710413873933,0.0100499079592627,-0.00499026657104348,0.00241627097429773
7.48101868693687e-05,0.0113746822652956,0.00302117904582027,0.00111360928788505
-0.0135160532669286,0.0128059963895676,0.00894029836735356,-0.00075064851881146
-0.0192824559146037,0.0134745220191489,0.011217061762128,-0.00261858426981345
-0.0150894150145867,0.0100287004236137,0.00568315213766902,-0.00439645273454253
0.00134990677618191,-0.000332334112446223,-0.00464852259067069,-0.00544931731498484
0.0161433368750252,-0.00901207283170162,-0.00627946771855379,-0.00486425039007723
0.0115713715710173,-0.00525825334463042,0.00271777513221971,-0.00296546680744035
-0.00783187632979307,0.00503655792588082,0.00843936067940853,-0.00107487766548435
-0.021472189478285,0.0108367170139408,0.00474879924669344,0.000304700444739263
-0.0214982448110341,0.0101773136660776,-0.000295714438664648,0.00151538061799781
-0.0107723629396032,0.0040564374971679,-0.00286636266923155,0.00250154954933169
0.000873235173887637,-0.00840899486053977,-0.0072015151843165,0.0030933012121538
0.00571777200710794,-0.0179983167555833,-0.0094640918000309,0.00321358107808436
0.01151151246655,-0.0135502359094541,-0.00428660733372904,0.00266004226649669
0.0196821065449088,-0.00118063225660182,0.00276487245936103,0.00158341579076481
0.0230411486513168,0.0092298550499767,0.00676588575468909,0.00070717814957762
0.0205962303076982,0.0126120813119499,0.00625790209187483,0.000331755085183518
0.0139751736107006,0.00782272143058482,0.00247581736101128,-5.41790154478619e-05
0.00828399850991453,-0.00110021953581904,0.000601520740075145,-0.00058234914654969
0.00686534611153247,-0.0103148974727024,0.0015875992695595,-0.000660540386907993
0.008735072178273,-0.0170692283026562,0.00297072213536981,-0.000257587270848901
0.0128088051290775,-0.0202341179138333,0.00319192823980776,-0.000289496787507554
0.014894033111952,-0.0215976888041908,0.00200561055487118,-0.00103154273760201
0.0126129654129219,-0.0229552203708466,2.69841583227532e-05,-0.00156821554349193
0.00717887024886427,-0.0231244905576029,-0.00241269536886192,-0.00130322044658108
0.000148286244352241,-0.0187679128649025,-0.00329842179168209,-0.000675699127968731
-0.0100402458002652,-0.0104217132186712,-2.58299915534619e-05,-2.42360074886412e-05
-0.0229257995024007,-0.00350896333015573,0.00566390058146058,0.00044844149307632
-0.0319345650688008,0.00116283957310264,0.00789697923913225,0.000160719561806203
-0.03259052312297,0.00741758675754076,0.00302869713852738,-0.00072825485604772
-0.0260394443133731,0.0189053035788547,-0.00539356305802671,-0.00135836318621394
-0.0168607330983041,0.0318618737010367,-0.00946841281960805,-0.00120604558463383
-0.00918077764634973,0.0305600402295739,-0.00884248231183173,-0.000289484901114925
-0.00415265474857926,0.0116932137404536,-0.00934345422698507,0.000834762532833433
0.00349998804198107,-0.0049948910766399,-0.00805699652101088,0.00153630161240069
0.0147068700258128,-0.00664462553589335,-0.00314873449949588,0.00171381873866374
0.0167492105495797,-0.00212273235061404,-0.00278616172020575,0.00164310840087585
0.00498315775584183,-0.00146659298064316,-0.00957411402030304,0.00172984592773658
-0.00826513591992561,-0.00242551976652577,-0.0136857190008533,0.00225160772463665
-0.0111190489746522,-0.000396205433180329,-0.00699744072180462,0.00275433722012675
-0.00222307321277593,0.00243339137281019,0.00339006585346854,0.00254255869018824
0.00933255063473352,0.00432204957218191,0.00861946977759916,0.00156471682993256
0.00915497263020823,0.00786801638476365,0.00821965606481069,7.78780594202027e-05
-0.0042914744948058,0.0120953550803964,0.00356210492344021,-0.00146911686663735
-0.0159349249894233,0.0120418687744978,-0.000705751790121642,-0.00234882962542589
-0.0214930177760689,0.0071352454889845,-0.00158380341085979,-0.0024932665639825
-0.0233567040373985,0.0053068696394626,0.00052358064044037,-0.00256810978946948
-0.0170538710795677,0.00860687317022311,0.0055855339552273,-0.00262999116421708
-0.00162396799795794,0.00842831861092275,0.00727280965130469,-0.00202999320428264
0.0154954151401923,0.00697368226180704,0.00198628977828587,-0.000230790252976981
0.0226255973397161,0.0126858135402371,-0.00283736795367755,0.00252406537449103
0.0207567933576464,0.0217337870738447,-0.00284287977440335,0.00488940364650749
0.0178495182404946,0.0261112277449621,2.67726165357372e-05,0.00546077115115592
0.0138835115637424,0.0256254144055369,0.00388413337216323,0.003846583738437
0.00802092528896851,0.0251548777205995,0.00450546593742291,0.000677273503831147
0.000686188105117409,0.024482364165925,0.0012910020066603,-0.00258945708393044
-0.00691713779981146,0.0223307722004802,0.00526899873198422,-0.00449933408043852
-0.0131125366114525,0.0198575063300342,0.0178399787332515,-0.00499434763380693
-0.0171795111829665,0.0138796735580391,0.0242604787863081,-0.00481534475521152
-0.0148180989724174,0.00185737583298746,0.0188388392087374,-0.00397834120826982
-0.00333887770749748,-0.00819162316458765,0.00917523618673922,-0.0019528048103932
0.0117230077012929,-0.00600860475689004,-0.000751919842097749,0.00119317562927184
0.0210026981126364,0.00438174777829305,-0.010343714937581,0.00425054767363687
0.0192126588276443,0.0124499041005838,-0.0118520821157072,0.00598159624355541
0.0124742199782746,0.0156197361185471,-0.00240956930401978,0.00589276648481547
0.00925273045759209,0.0162999098666576,0.010739556409928,0.00403280678438682
0.0109436217982078,0.0170347062480624,0.021433060459469,0.00109325012528028
0.0150042862552268,0.016161243448071,0.0249029434860017,-0.00177399808520058
0.0161806478128792,0.011974639096035,0.020265048885586,-0.00348197939558354
0.0117148471475405,0.0124035831412659,0.0096964896911756,-0.0037258959073992
0.000916670705032921,0.0246103004635677,-0.00502464959317327,-0.00293929900114846
-0.0163360273944973,0.0301768986062338,-0.0122853608814278,-0.00163267126430946
-0.0327419035022897,0.00809015163996488,-0.00407807859721141,-0.000279055016821799
-0.0405332681252058,-0.0247233029276076,0.0109696867527736,0.000754952703124113
-0.0375104455428718,-0.0449251736523271,0.0246302420875483,0.00117601275515146
-0.0241366266026362,-0.0475785379339826,0.0304047440247077,0.000739013180407061
-0.00638265775783946,-0.0377938002191026,0.0266254906194311,-0.000185963528691436
0.00866051531775439,-0.0251938671692585,0.0199153921763391,-0.000962026543081066
0.0184843937968211,-0.0113142836983233,0.00721833220627632,-0.00156878920139609
0.0215232950071781,0.00343179153382981,-0.0130252681491614,-0.00196719083265746
0.0163698658296448,0.010257465278972,-0.024201640285326,-0.0014665947481605
0.00303976355686187,0.0104302998619741,-0.0149743503527254,0.000502789625695631
-0.0152208854943118,0.0160121349338828,0.00286828475416811,0.00299150501926142
-0.0324818178167434,0.0286457410525599,0.0127021337434403,0.00390084633361122
-0.0432491257549189,0.0449611740246277,0.0112323449183608,0.00271557661005681
-0.0419122518345665,0.0550142654613491,0.00348915915432256,0.00112176467491603
-0.0330339420204613,0.049726977284025,-0.0042588784744046,0.000232671055042869
-0.0281579464862831,0.0396752288923937,-0.00631037733589428,-0.000291979075391927
-0.0255568543981151,0.0327518827327375,-0.00180329756909263,-0.000772958237488504
-0.0183326243065106,0.0245196489731417,0.00530045417997551,-0.00159228769037918
-0.00814407888799954,0.0139234627674101,0.0117175521287404,-0.00306567038266111
-0.00236305501475722,0.00273387577534202,0.0134896073894261,-0.0046204715332932
-0.00459908271564781,-0.00358440160058471,0.0102949022044742,-0.00496432039823518
-0.00802995584572587,-0.000505539919323235,0.00890363657207145,-0.00300388799784519
-0.00812420293679493,0.00549155211398515,0.01175564218385,0.000718490156893545
-0.0104183924623345,0.00700507919880449,0.0125457531022023,0.00411148282240626
-0.0163105987716784,0.00739842942852919,0.00763257823976179,0.00560874931441632
-0.0162846101954035,0.0101470585916552,-0.000653165549256467,0.00575675064818201
-0.00388091665424099,0.00897049524820309,-0.0112290218498124,0.00589442948613817
0.00762919748100574,0.00630531862730265,-0.0182381965130715,0.00592556992675777
0.00382398629429049,0.0147807058226692,-0.0157034592615923,0.00488321757439325
-0.0055798711029177,0.0314034821532252,-0.0101036244290589,0.00274316056411719
-0.00772234542974323,0.0397479458035963,-0.00885467755771239,0.000208574005526787
-0.00588772517889337,0.0346345008517369,-0.00969828570072896,-0.00227499900201065
-0.00604898168854669,0.0263240983791729,-0.00736618670657753,-0.00430622725773572
-0.00835433460584229,0.0224383133922365,-0.00276446057727873,-0.00553772529165478
-0.0136258138154424,0.0207711554895148,-0.000752473870300914,-0.00585974587201924
-0.0219291954261067,0.018083709205648,-0.00323572585141851,-0.00510943150376042
-0.025936561619436,0.0160166975551102,-0.0059256244303929,-0.00320673262960829
-0.0209933980613206,0.0183182325561459,-0.00421893153218763,-0.000589092018962469
-0.0145205760189223,0.0246751244218839,0.0013481671761924,0.00181920296499682
-0.0105035966724356,0.0295999875741333,0.00711742045994389,0.00309684464786562
-0.00416918094250154,0.0294645520046129,0.00940500654277702,0.00307405375044911
0.00302291352605704,0.0251255133780005,0.0102164771752229,0.00246406260330175
0.00545778744125903,0.0178977065165881,0.0110218787341061,0.00184635134312182
0.0069591788414659,0.0101863096058866,0.00816794308753762,0.00123105924399492
0.013386144346769,0.00429455236447636,0.00159598658768859,0.000546444557169923
0.021304136379303,-0.00187302432782493,-0.00315682390905968,-0.000187925796915287
0.0269269898548703,-0.0108775160282403,-0.00183840892149121,-0.000780297361365999
0.0317590186246415,-0.0201742119913593,0.00401863741540109,-0.001004969894993
0.0340542000303407,-0.0263010685172864,0.00990805737029653,-0.000788281718364392
0.0291294847127242,-0.0295850105061845,0.0120463203241599,-0.000327735979341278
0.0214041649739191,-0.0351497721667364,0.0103885913499634,-0.000178677908640238
0.0184834067599701,-0.0422302319881218,0.00844021542148197,-0.000513143928743973
0.0201026702033799,-0.0393710635815572,0.00720017545759044,-0.000996752569768558
0.0210873223080743,-0.0256026075807933,0.00688736653903716,-0.00140064201067205
0.0172616464258686,-0.0127921235355933,0.00825190827627631,-0.00161715244684874
0.0119727538465621,-0.00687189008360985,0.00906687176422257,-0.00163152168444057
0.0110111368560784,-0.00687044138927545,0.00885013223343454,-0.00133653483870919
0.0143257409962153,-0.0128533120949828,0.00982041248836897,-0.000630481125402435
0.0200289440262475,-0.0230736070058621,0.01096833275633,0.000309748997962855
0.0259829983254724,-0.0313278997958757,0.00993589302324432,0.00125437910255078
0.027119211910855,-0.0331773616426962,0.00795289890688718,0.00189580601052352
0.0230877743036604,-0.0296939106335516,0.00745129465699814,0.00183122985071489
0.0201495259106324,-0.0269077595341917,0.00916763203889685,0.00115751072902974
0.0192437368164636,-0.0289458518064908,0.012404071018632,0.000309677411998993
0.0186155073685052,-0.0326190451141864,0.0140952826370094,-0.000506923930455793
0.0189103046706896,-0.0306603255653768,0.0130639393017315,-0.00110301057636798
0.0195291080351964,-0.0177376446164348,0.0144188475036846,-0.00146161664769572
0.02074645878682,0.0012017234487267,0.0196475550861458,-0.00182146526689052
0.0224051752557173,0.0128374187043011,0.0236206050208925,-0.0022786511635303
0.0221876073659967,0.00911622287374575,0.0255791905855065,-0.00262650251756807
0.0225702101971642,-0.00349130998397873,0.0276383476347864,-0.00271254049862702
0.0269765201472967,-0.0121438185202296,0.0285931211607165,-0.00246066234511539
0.031192722182104,-0.0150602507247622,0.0286142474922528,-0.0015590035075687
0.0336908302606508,-0.0189672050897012,0.0286033669133452,-0.000148054004021141
0.0365547227424288,-0.0247092970582728,0.0276340372491335,0.00112307512892428
0.0400483842088498,-0.0280138612546929,0.0275855811147264,0.00178648077885085
0.0455508625233271,-0.0294532347284734,0.0277645910843645,0.00163093441793633
0.0519392757318569,-0.0372004792515246,0.0251607804168251,0.000882379137030698
0.0555556021723023,-0.0526411101171266,0.0252656894319019,-0.000217035231745443
0.0510556976674837,-0.0609735325835556,0.031015818412867,-0.00178070448445617
0.0347941920197587,-0.0498512352324207,0.0326549017609909,-0.00342339440227282
0.0116631372663212,-0.0306163747373112,0.0249486569315185,-0.00420049592449718
-0.00738336818751534,-0.0170812260706631,0.0163650948040129,-0.00365799046428249
-0.0054584259366625,-0.00397550207470353,0.0127157461512439,-0.00193837484358273
0.0235456351510081,0.00603929132130878,0.00923607034724552,0.000486278734453238
0.0523699139929171,0.00645158973976757,0.00492300650378824,0.00265994513449024
0.0581289820737341,0.00433006469533882,0.00417343105829685,0.00385382220056017
0.0505793139452743,-0.000869490037154507,0.0060284237468921,0.00381186823427583
0.0400938175671442,-0.0105851025601402,0.00755117147015886,0.00256232006820119
0.0271200282590498,-0.013191680171092,0.0114341278064483,0.000809637687027532
0.0190910511738866,-0.00744857324933524,0.0168598125313371,-0.000655657850595531
0.0233319617029387,-0.00667060640325186,0.0146610388272096,-0.0015425184077262
0.0329822715307174,-0.0159200471307784,0.00684398113073125,-0.0018140928013648
0.0373604959628506,-0.0223562212789769,0.00639669207755002,-0.00154680252743825
0.0333257763661338,-0.0143451219581898,0.0132383247566685,-0.00110140402361839
0.0206918399758598,-0.00619598991924215,0.0179872151060348,-0.000926549877729845
0.00381298645963909,-0.0179543132090271,0.0182393895351541,-0.00101810961678779
-0.00173973968519455,-0.0432648396001039,0.0144422425190229,-0.00101947339415881
0.00915361540353463,-0.0631433994712585,0.00901821798723387,-0.000534690745998976
0.0170361041498565,-0.0657674816918686,0.00792621641676222,0.00054129404323325
0.0102269604594893,-0.0498443005972201,0.0117704230512369,0.00186962225059239
-0.00322728249008314,-0.0288976188607327,0.0142326794887864,0.00288052242929084
-0.0160708379606451,-0.0141967977613052,0.0117060416262381,0.00309369901844164
-0.0219609030935895,-0.00781509392824259,0.00466498795005947,0.00265359001560396
-0.0195038515752047,-0.0114868002748917,-0.00546084001484362,0.00225766991057676
-0.014087858257582,-0.0193297141008497,-0.0134139519333509,0.00223003797937093
-0.00863581159701467,-0.0256710725436016,-0.0141928662013633,0.00216641004510092
-0.0039439907506305,-0.0331062644111274,-0.00943743561054685,0.00177195274327263
0.00351920351398538,-0.0384573738032749,-0.00441215151169701,0.00140684249681439
0.0160512747015217,-0.0343959365610971,-0.00185525318476898,0.00136239949965969
0.0266169082761462,-0.0260756717722373,-0.00353335696805981,0.00128358046193471
0.0268930228497269,-0.0224552511677147,-0.00840419760116495,0.0011199493710226
0.0196477740065027,-0.0184004552510779,-0.0102748065134835,0.00117676757704767
0.0117486145999391,-0.00970912468341393,-0.00876700012817503,0.00117362384263553
0.00521356700647774,-0.00403891136942337,-0.00916661689106589,0.000980338854473314
-0.000304611040811526,-0.00175846764716189,-0.0113811165490691,0.000825839491252362
-0.00374950509683,0.00195736314122148,-0.0129022067951343,0.00063706101747147
-0.00260993131744836,0.000682781733505243,-0.0136486875940269,0.000540736252932318
0.000688214215458593,-0.0100192203934841,-0.0123412283142909,0.00093365413669212
5.2714636337943e-05,-0.022723657988291,-0.00962583821148186,0.00170495192542104
-0.0122747843638119,-0.0312694787615932,-0.0071547944076445,0.00238569863189609
-0.0360969299671569,-0.0351100139083665,-0.00412392571471686,0.00274549330994941
-0.0539414107231477,-0.0370436875982331,-0.00212365966808357,0.00274248583338548
-0.049993564420274,-0.0403074116977532,-0.000141146312677649,0.00239953519194888
-0.0326437300338647,-0.0442926889275532,0.00429499524408426,0.00187607364475332
-0.0194788312429456,-0.0464810396691329,0.00916379321980179,0.00145989886959368
-0.0131725665784525,-0.0423325278761419,0.0137409193083578,0.0012026061742612
-0.00983061207727496,-0.0314572704008172,0.0155143656526337,0.000791828388537732
-0.00764695316679396,-0.0232950048779373,0.0113367328795469,0.0002444323324961
-0.00695649438287026,-0.0183088524386318,0.00711605484895741,4.44731768754081e-05
-0.00924759497277659,-0.011563699740943,0.0109062224896273,5.50616894513386e-05
-0.0129746628260886,-0.0105875546234991,0.0202385714852253,-0.000493441200257595
-0.0154893236741448,-0.0177002902747474,0.0242292565750147,-0.00182269578068371
-0.0142442247735261,-0.0209238976345837,0.0208776621313032,-0.00343213282623122
-0.0103851245074852,-0.0109371503638186,0.0136485714602309,-0.00448721562534409
-0.00885774817752876,0.00773126551454439,0.00249132579323022,-0.00441386950321149
-0.0132132239042822,0.0257056517527956,-0.00567339944651363,-0.00338274861898359
-0.019319723905557,0.0391396743896973,-0.00756163185560228,-0.00217243543348558
-0.0170204355766109,0.050290307614554,-0.0129880671827174,-0.00123645388423752
-0.00775605629975619,0.0572348241818182,-0.0235988182707372,-0.000100855907836058
-0.000764982692474315,0.0493734962825247,-0.0243754067153066,0.00135631044551396
0.00223239537741714,0.0269955605147834,-0.0108284698726819,0.00211315194786277
0.00178654042128879,0.00401123796912298,0.000905533767261942,0.00145280810808681
-0.000594948794135688,-0.0059990919251042,0.00212680393320693,0.000205310658314807
-0.000539630992626922,-0.00234964786302636,-0.000470264395831015,-0.000630382823775072
-0.00113864479994327,0.000835956974633352,-0.00224226091782703,-0.00153371974911297
-0.00706818608146317,-0.0002232631120936,-0.00357391649268855,-0.00304299685846488
-0.0141944138363518,0.00414170625775474,-0.00395695874431222,-0.00423862198657683
-0.017989357971611,0.0144529566906328,-0.000176437084289473,-0.00417120227277079
-0.0182973040878453,0.0219618110516441,0.00876396113531713,-0.00310910381100647
-0.017416285078469,0.0226330923494831,0.0175840510323619,-0.00172075423118966
-0.0160883576377862,0.0200957888082749,0.0213874950138252,-0.000545389978134815
-0.0138709975071782,0.0206692444625429,0.0192351341098845,4.66827325049844e-05
-0.0102736237731796,0.0284920761464649,0.010303294868535,7.54394888071583e-05
-0.0053973533409337,0.0376644974132333,-0.00456704307543655,-0.000371054455041322
-0.0047531860875459,0.0403436915285126,-0.0183643799517122,-0.0010288965921418
-0.0107104781807143,0.040296827079512,-0.019882009568279,-0.00128159115224808
-0.018325670629834,0.0401976498089593,-0.0123800913390414,-0.000896343672391163
-0.0223109716754852,0.0346898360854935,-0.0136309494158942,-0.000241776935144004
-0.0181562525826845,0.0238078414162994,-0.0267082984891758,0.000749320698694354
-0.0101923708063558,0.0161632700698914,-0.0373268553861936,0.0024757549506644
-0.0110721161559482,0.0178917135053658,-0.0316735400861202,0.00373207851913106
-0.0202734873892804,0.0274427896118764,-0.00918675323747791,0.00247367431811235
-0.0225986394176019,0.0341010854105936,0.0091971686729908,-0.00101608909486464
-0.0129341388968675,0.0232058864798107,0.00317834284503943,-0.00386446277571289
0.000440864198968945,0.00352392589844705,-0.0137157291452254,-0.00418905416096789
0.0117690967181687,0.000656951918435086,-0.0202569082487488,-0.00334357130274509
0.0204106997682415,0.012822462152461,-0.0191544028857515,-0.00278753648030625
0.0242941272251278,0.0243916040447492,-0.0167103312485091,-0.0016815130144191
0.0215168761738535,0.0368169805973552,-0.0119963276797002,0.000322891618442935
0.0150510611159545,0.0485503803781279,-0.0078945568213981,0.00185535230650433
0.00930032036257727,0.0518695714877258,-0.00638862759666311,0.00233138831394593
0.00468266971663073,0.0482580742117441,-0.00505134709025975,0.00237569427378625
-0.000121111883389213,0.0420809027820357,-0.00561144239023244,0.00233729531277678
-0.00453418059536381,0.0342534421956563,-0.00840554858172652,0.00223781046502266
-0.00716263631321984,0.0264814199402044,-0.0101223065882058,0.00220850830336755
-0.00896374412928002,0.0208880224622851,-0.0102489268954458,0.0023240907520007
-0.01337721850707,0.0145513336896413,-0.00824953367707976,0.00230020186160693
-0.0198965332218962,0.00521710077962437,-0.00518655095931989,0.00174239884006365
-0.0251266040158739,-0.00567454936511732,-0.00385383217493926,0.000791511144297606
-0.027661040665987,-0.0177247205676463,-0.0029591840096078,-0.000162782152729413
-0.0254695976154425,-0.0275235358740445,-0.000847624170679137,-0.000960406040172062
-0.018271508486431,-0.0307429521508705,4.45260397772462e-05,-0.00143597381384698
-0.0111460872032992,-0.0295926050881391,-0.000772254461222146,-0.00134468345512614
-0.00856161262623611,-0.0289876396007544,-0.00116409514187975,-0.00090028600173134
-0.0104332198209774,-0.0292516058786001,-0.00248688751153835,-0.00062828856104374
-0.0136701417685065,-0.0239752117882685,-0.0031973185469414,-0.000484640689613098
-0.0144455415963294,-0.0126312569410681,-0.000327879606977072,-0.000207448643527567
-0.00934038830733083,-0.00525066819564512,0.00116466265656387,9.46093034922598e-05
0.00158538222984824,-0.00712148248419706,-0.00428972153957569,0.000457795037106815
0.0142464253420604,-0.0113858632106881,-0.00841747039170255,0.0011342326672718
0.0240531484146476,-0.00683865287258614,-0.00137094195896893,0.0012487325884772
0.0230049938625976,0.00648416028557806,0.00594850772070837,-0.00045639298956148
0.00681426441885068,0.0179528824736012,0.00533904169725591,-0.00271114108025078
-0.0111218904553478,0.0212491314259901,0.00449091687389657,-0.00330208659318288
-0.0169412925748995,0.0164943287679607,0.00459958851211695,-0.00234434070452775
-0.0114742115606476,0.00617369286861093,0.00220641763996266,-0.00112080062761795
0.00358522602149299,-0.00798709078670841,0.000160219557440082,-0.000119680429793597
0.0237709337535812,-0.0245753001538814,0.000697742268540021,0.00070458421456687
0.0373553100638379,-0.039290606447667,0.00182632431074397,0.00104876495914339
0.0375092901431802,-0.0491844834080825,0.000184199491176224,0.000668461126777842
0.0256187804518597,-0.0573252761325855,-0.0048931710754073,-4.8923746697857e-06
0.00809157361567252,-0.0662269990965623,-0.00661884127185535,-0.000366299064005144
-0.0057236790606251,-0.0680711122875513,-0.00175604435917086,-0.000267460140175713
-0.010390549752086,-0.0553173772303,0.0030932234076923,-0.000120607075724237
-0.0123066510595816,-0.036513869968264,0.00226852853878732,-0.00012775663365202
-0.0201585957191544,-0.0248486159146156,-0.00274971743749092,4.39448184782848e-05
-0.0272301713890863,-0.0205195708100736,-0.00609954843227604,0.00040152138417294
-0.0208274414927711,-0.0188937941641243,-0.00559873829441878,0.000618599509260471
-0.00107662394645685,-0.0205292312024891,-0.00392050739924973,0.000551465638935464
0.0225713233813723,-0.0222523187269493,-0.0034913970445292,5.53949840762817e-05
0.0386945258975868,-0.0190788442898955,-0.00523418942350491,-0.000767049641098383
0.0415708626806966,-0.0138579380274714,-0.0070932602140624,-0.00125406075393965
0.0374384583488435,-0.0109912600123579,-0.00631247481309095,-0.00105899067266607
0.0316329098242911,-0.0104652823237934,-0.00280186036114331,-0.000486683982798048
0.0256605479200052,-0.0100125828997104,0.00194151057358697,-3.86618570328673e-06
0.0204964656524044,-0.00647345308352437,0.00418697494238969,-0.000143689929935103
0.0139112126728435,-0.00210002787922836,0.000943343131569133,-0.000903447048556403
0.00808508695907895,-0.0034081599921945,-0.00476257673967424,-0.00151799204495202
0.00557951899380357,-0.00859233555932607,-0.00690037885963323,-0.00134516152071001
0.00133741954224199,-0.00977832095398984,-0.00402293808993422,-0.000556118267400595
-0.00449577424266023,-0.00674150769773647,-0.000621374269081813,0.000540946582296108
-0.00573987640080268,-0.00524840456909923,8.7211702690634e-05,0.00205784844897807
-0.00201706634455827,-0.00813702585859384,0.000665753031653242,0.00379223045491744
0.00373095160714138,-0.0128337159663786,0.000298090243792867,0.00494380607676274
0.00742411996428227,-0.0155042598018086,-0.00595611827868093,0.00490249729672981
0.00862373614244393,-0.0194887503006599,-0.0145000435877163,0.00401160465499682
0.0107198426742894,-0.0240476982058405,-0.0192397231727125,0.00287852754055293
0.0130287655218955,-0.023381011335617,-0.0218541276656903,0.00145282912178836
0.0113296846307932,-0.018457270207469,-0.0252043310296996,-0.000530603330299522
0.00576323482347829,-0.0119030940090374,-0.0260276047454547,-0.00262946466729135
0.00323976336760202,-0.00951356166550113,-0.0212010712716104,-0.00362451823693721
0.00472026438975811,-0.0158064543455047,-0.0163085811351833,-0.00262127722845308
0.00475912010656472,-0.0226137517036954,-0.0122965831689898,-0.00017405696106372
0.00431775943336494,-0.0194144917654674,-0.00442855622162263,0.00188061074979973
0.00585452456174038,-0.00769883481717229,0.00293048389846758,0.00215666540609347
0.00663120913958022,0.00523714617865702,0.00719124393965502,0.000807136466457856
0.00621921724317811,0.0117324441649953,0.00790399482811516,-0.00132212461710122
0.00918900918032968,0.00992517953446184,0.00183945056368663,-0.00325825778088045
0.0142015593511586,0.00735048788835777,-0.00765892893066326,-0.00390777114094885
0.0135599544317421,0.00692072745625067,-0.0150188845596474,-0.00298468724900622
0.00591607702908838,0.00189171676515615,-0.0200935469685447,-0.00128694471496804
-0.000200326724214342,-0.00786016401903461,-0.0240060193411202,0.000545871779036824
0.000779099725668444,-0.00856899010519897,-0.0248983911130022,0.00257342794610138
0.000168535943759606,0.00414311435076977,-0.0216834939244106,0.00460343510537259
-0.00756409940758269,0.0163764799757641,-0.0159125986402976,0.00556356089544866
-0.0107494056487089,0.018108929355806,-0.00961776090829548,0.00461054217547392
-0.00333779566230886,0.0106799621468426,-0.00479458335831759,0.00243445261052474
0.00443101839589632,0.000712485261817757,-0.00271208204197755,0.00058778850616291
0.00668586732893934,-0.00415606948401721,-0.00123908576317928,-0.000123614501955391
0.0079640504216001,-0.00204367223187796,0.00110477026685057,-0.000186127892416942
0.0116818181597671,0.00101969376626401,0.000917270247156376,-0.000419709930499769
0.0150542299425463,-0.000628758130375576,-0.00327163042766629,-0.000985505522272291
0.0157406215065536,-0.00491283548405135,-0.0108273580759528,-0.00178549342952538
0.0149718975115751,-0.0104829208176282,-0.0210583454087423,-0.00274853362420423
0.0166471827975076,-0.0142750291500906,-0.0280781212080685,-0.00361297707656325
0.0215006922597371,-0.0122109706232844,-0.0276993484303995,-0.00416318253750636
0.0236643466841624,-0.0109967175626994,-0.0241839479151552,-0.0043404380595977
0.0223685088222404,-0.0143662403695916,-0.0214785637535168,-0.00401691246739623
0.0197293759795449,-0.0164876383065409,-0.0172038446667452,-0.00331306245136187
0.0122131295708032,-0.0147885499522727,-0.0106124403539983,-0.00283463808651465
0.000242185647570461,-0.0121108471116325,-0.00507371398472512,-0.00255393670965555
-0.00584335094608802,-0.00936940499409557,0.000442162345863544,-0.00153818126212372
0.000412096241255075,-0.00294164859954802,0.00791433608722786,0.000328779807342438
0.0121564139437234,0.00446234995698446,0.0124578493620938,0.00209049283526928
0.0208474893765251,0.003944569301874,0.00983263530998886,0.00306959358211201
0.023212463677916,-0.00148319928534084,0.00297478623109789,0.00329991688153248
0.0222971797884407,-0.000941993864344415,-0.00243497967820418,0.0032059800589206
0.0204274763354096,0.00620766106312236,-0.00409476737443318,0.00279752717988179
0.0134085003711936,0.0122519340462809,-0.00295837911787664,0.00168831955089625
0.00459038226903751,0.0162273129001103,0.000412648627384497,0.000106349901296616
-0.000544523580565687,0.0191718811849638,0.00283620967960725,-0.00144791640950175
-0.00246763620565913,0.0192242262595303,0.00219163476617571,-0.00232937586013226
0.00106589425052963,0.0272308714738083,0.00218023647329759,-0.00222427745018172
0.00869038537581198,0.0454957504603189,0.00268270367652587,-0.00239201448926971
0.0105454023741641,0.0527528593297159,-0.000540709510180717,-0.00352080934744165
0.00415343349356409,0.0373676474380988,-0.00466132992580398,-0.00412281174541808
-0.000535207482920818,0.00364009261531203,-0.00604553053849651,-0.00318644131296965
0.0023265761966149,-0.0409993431243581,-0.00900122337189128,-0.00153683962967798
0.0116154627483993,-0.0771984263298647,-0.0145687493334519,-0.00015126331990109
0.027230362549933,-0.0820081664536315,-0.0167959051828239,0.000854879415323944
0.0488314924510612,-0.058466019553348,-0.0133036463760687,0.00168623350596305
0.0685002144281837,-0.0261157481247606,-0.00902908917502751,0.00207073662441584
0.0745808662927399,0.000419965059943628,-0.0119901053957533,0.00165207511625044
0.0677523345383474,0.00941288045760563,-0.0203776472906899,0.00103152325766366
0.0585107477159374,-0.00564246615530822,-0.0241349083630804,0.00106121375835913
0.0482485254739597,-0.0329402266956255,-0.0210101155425232,0.00164051736244797
0.0288368422197928,-0.0421760408233521,-0.0151912538363002,0.00205012179160756
0.00182155159702246,-0.015647604836128,-0.0100132932200699,0.00191128235087593
-0.0241060654147214,0.0252463654239988,-0.00637217300996819,0.0015917058625342
-0.0425933932316537,0.0462966653789628,-0.0041884674841229,0.00119615884831456
-0.0494212195043737,0.0377646828688572,-0.00278387435127416,0.000529443950052048
-0.0498936467177164,0.00734422428393812,-0.00268929453943538,0.000117002793750158
-0.0539118552275787,-0.0271113323282746,-0.00516761638926738,0.000442736125805069
-0.0612174235194801,-0.0440219559088999,-0.00639529093980633,0.00121550929695414
-0.0596115837812423,-0.0389965055228518,-0.0022145710316836,0.00169148703878028
-0.0417884659351907,-0.0273135499592801,0.00304128981436077,0.00128813551408691
-0.0176384324522922,-0.0240063091992533,0.000518283468721166,0.000426611332145051
0.001365853193211,-0.030312593237655,-0.00794544744473795,2.55285077344e-05
0.0156335955498956,-0.0379075905971382,-0.0102395874481093,0.000119672600656909
0.0313474185832455,-0.0394833275669528,-0.00696100298562941,0.000228465701039861
0.0496945797129632,-0.0349075075788952,-0.0107746404825689,0.000321365833147737
0.063973258382371,-0.0257855099585559,-0.0246843834049811,0.00087031908796508
0.0665187917660325,-0.0209568624144047,-0.0387959797865606,0.00212428455821401
0.0526073841621815,-0.0313351738138638,-0.0425867891223514,0.00322378821452354
0.0286440351664036,-0.04799514781846,-0.035448773544621,0.0033985446862383
0.00945445378753199,-0.0579759118192213,-0.0288688405929289,0.0031776663919331
-0.00261000376116708,-0.0594265424833599,-0.0245643433209512,0.00309718108244288
-0.0117122216701875,-0.0536078335507006,-0.0138644722527028,0.00266674456687761
-0.0146719008044645,-0.0490872197204683,-0.00480303949923384,0.00137921998885506
-0.0197252891018112,-0.0493414204205956,-0.00504983552652433,0.000365084238305512
-0.0354153578438746,-0.0463813575480535,-0.00761043546780008,0.000909220688780742
-0.0467029346917717,-0.0384282974642444,-0.00646443508926559,0.00209159134423366
-0.0426078919439627,-0.0343037654464752,-0.0101168675151707,0.00242883401641479
-0.0321767993822293,-0.0379701655371679,-0.0247140481668345,0.00209295747656762
-0.0277181921048626,-0.0342224570854078,-0.0297086669488419,0.00159863563607749
-0.0298945520593622,-0.0131667079593413,-0.0132360234868517,-0.000341669894245031
-0.0286706182366589,0.00536032470192439,0.0034408080939977,-0.00437536707282221
-0.0246966300084144,0.00590256511818837,0.00628895699630759,-0.0081296165846632
-0.0254978158913403,-0.00430500433149163,0.00113032096613118,-0.00913490462007907
-0.0263726512052146,-0.0192977304134108,-0.00474167089616107,-0.00699202858508306
-0.0231004199162448,-0.0339600771755349,-0.00455295023002179,-0.0029364092770641
-0.0195384598097619,-0.0459489443081026,-5.10727292365046e-05,0.00105817990012532
-0.0186244026007939,-0.0640604410430473,0.00315913701882005,0.00354418740269876
-0.0219427564592385,-0.0890617978912114,0.00798557614378428,0.00439498216027687
-0.0280681023123842,-0.110808278984413,0.0161816042164031,0.00414301947885578
-0.0312069135173143,-0.122548651963113,0.0218555589094088,0.00281239982966728
-0.0318471808583226,-0.118381183869511,0.020063529136711,0.000728997091785081
-0.030626731596445,-0.100286548462764,0.013946006318081,-0.00110754949490851
-0.0192191924383172,-0.077845574434586,0.00834321040149429,-0.00224830561265807
0.00288989160999852,-0.0556010619900647,0.00446937786713897,-0.00302418241571555
0.0264409031525554,-0.0326849383633437,0.00415475248307669,-0.00381531324363159
0.0379909976421483,-0.00916887699188489,0.00552578866715876,-0.00449464567532406
0.0279919439311553,0.00963059966443422,0.00472360589565943,-0.00469629689018923
0.00592448167824431,0.0268457238810125,0.00114710616519518,-0.00435853896037915
-0.0145093142215584,0.053822493335254,-0.00597999052986457,-0.00380455530808746
-0.0320564277887376,0.0921981699801625,-0.0179372416775963,-0.00309857963568553
-0.0469977851169377,0.132116592310061,-0.0338063429249344,-0.00173677136936776
-0.0525022067656882,0.154781152863817,-0.0420160788892778,0.000258518970955972
-0.0461684863886767,0.136574470153064,-0.0356029934331647,0.00171136959530659
-0.0387392206031822,0.0827393717680189,-0.0276250758548316,0.00164080196962978
-0.0434639262882756,0.0357163058546068,-0.024666963461931,0.000662729046696655
-0.0599339918802282,0.012113759812949,-0.0181346459356172,3.14623263969519e-05
-0.0727225426424823,-0.00485482401611284,-0.00426467926452836,-0.000110238638163539
-0.0664434784155202,-0.0208009404036968,0.00893956947608524,-0.000512002958084437
-0.0395756774086669,-0.0355976218965591,0.0133181924203643,-0.00140194009241241
-0.00816925977306295,-0.0549367474777532,0.0101172463559001,-0.00200519406134081
0.0124610421994787,-0.0738127571271882,0.00561225524910655,-0.00166613976342264
0.0229609523478084,-0.0754036619803737,0.00336466535085359,-0.000746029244285328
0.0298170389498525,-0.053066673190111,0.0011989368830905,-0.000206589093091484
0.0304947533560312,-0.0167241146241872,-0.00371728978824973,-0.000776672273207848
0.0171671987184287,0.0170956599200522,-0.00958013349885872,-0.00213078537868987
-0.00357846021166173,0.0431563536402464,-0.0110234207568428,-0.00310960284063028
-0.0171649772696895,0.0648645814545714,-0.00806643674275549,-0.00299228307548367
-0.0196420231113546,0.0802899192270584,-0.00795433949670715,-0.00190860906502363
-0.0163924560976959,0.0917822315878987,-0.0128435722529156,-0.000255165305183087
-0.0154670160096575,0.103383302860827,-0.0183719796484167,0.00151796004129259
-0.0186740015236213,0.108866494183123,-0.0233812719465913,0.00292561932932914
-0.018562973827651,0.10604795274194,-0.0276567572571113,0.00391839621371948
-0.0124027840898327,0.102122892013783,-0.0291457006702225,0.00464500789781655
-0.00611242564932386,0.0974606303265111,-0.027510283639745,0.00492867140313072
-0.00412203828614456,0.0860934638152853,-0.0235504885739111,0.00467584296479389
-0.0056041595574061,0.0668090750784271,-0.0210712574728244,0.00402681474778514
-0.00938386963315917,0.0479452289353055,-0.0231455337578473,0.0030899120470923
-0.0155987644899065,0.0422526214432183,-0.0249937478140135,0.00199837671072585
-0.0220128403783227,0.0495316587113659,-0.0207671713907154,0.00118932970600924
-0.0258660130740979,0.0579297328803645,-0.0145649408980515,0.000769514066560972
-0.0252160236607382,0.0614724621021667,-0.0147212967944397,0.00019349000016248
-0.0205969921026026,0.0593446075379475,-0.0168040526073049,-0.000461458015236847
-0.0147067339718759,0.0468663924498334,-0.0141372691758379,-0.00045134526688317
-0.00983586216679813,0.0212368439675398,-0.0123745545944995,0.000422249409033047
-0.00577207714786865,-0.00552239025978808,-0.011664873533171,0.001550799274356
0.000314035127990827,-0.016009835126026,-0.00643532404411716,0.00233620212753574
0.00675375031095474,-0.00793503017955575,-0.000771561552028891,0.00249766966250031
0.0107442623442482,0.00583331789162632,0.00135769850933805,0.001738394796112
0.013950357794276,0.0136919856747514,0.00274567517784035,0.000431750826182319
0.0152464864226237,0.0167295744334121,0.00599439987286439,-0.000690195646611802
0.0125407780348301,0.0196595429020748,0.0100200425236723,-0.00169984689714788
0.00929340148680747,0.0191143509098092,0.0100248637615423,-0.00248765946033115
0.00720292486083062,0.0157608842288009,0.00675341532995479,-0.00243872394765593
0.00531582192154726,0.0161825616178814,0.00526811308078335,-0.00156371637262375
0.00549545429127421,0.0192169156609727,0.0049517899072809,-0.000371618869950839
0.00576418422837912,0.0239326020356791,0.00484172214208313,0.000559726904007132
0.0027033514119628,0.0293967221207753,0.00462579738504019,0.000921433731596915
0.000134801706898865,0.0323852898605307,0.00132400117416961,0.000898136673965719
0.00187501292937112,0.0340299373435568,-0.0050190592893377,0.000947167250403638
0.00503658384678636,0.0335001434633549,-0.00907575713052035,0.00137756170793494
0.00595325295730117,0.0283915476136271,-0.00726697057042414,0.00215156515085314
0.00335164501079726,0.0205265798087107,-0.00335671736447244,0.00284281737772328
0.000161423169119971,0.0180142846407741,0.00276986337560662,0.00273978151923129
-8.9197579459608e-05,0.0247988778078202,0.01475146314439,0.00148394415840456
0.00140432719307809,0.0296459605325321,0.0244287473257645,-0.00091526954218422
0.00189138203115783,0.024637780225543,0.0249974938580773,-0.00359087976287665
-0.000626277129308556,0.0182836754683039,0.0209430674999051,-0.00497768823655549
-0.00538549342181832,0.0160231388559603,0.0175915764298832,-0.00466513427542038
-0.00811888737512779,0.0142748585159226,0.0147775977798183,-0.00344789445671256
-0.00733838547416923,0.00980980260465073,0.0110170164499584,-0.00200356835556156
-0.00662300854567328,0.00515090784477998,0.00781768910063015,-0.000701531855585079
-0.00459491279825312,0.0050381960041258,0.000505841388023259,7.45739779522531e-05
6.53360263187259e-05,0.0042214186322025,-0.0107139045663996,0.000222027447978447
0.00205759326950138,6.04900233341105e-05,-0.0114768867957747,8.21562898844688e-05
0.00194349074515177,0.000773279918032337,-0.000783055967241566,-9.53982372219148e-05
0.0041719869526115,0.00634687210141902,0.00802277424128919,-0.000421319601826322
0.00578672155898828,0.007436546343693,0.0123453483008814,-0.000900824864214053
0.000366281093582987,0.00514412964698327,0.015601182231596,-0.00123922142424275
-0.0104750635841909,0.0120108718937567,0.018305768297297,-0.00120784440401264
-0.0179955380063796,0.0295281025416691,0.0224973359115973,-0.000997450132814737
-0.0229275007971898,0.0444314818467529,0.0280824320214825,-0.000929717541998954
-0.0300511485937765,0.0522542243309053,0.0317737325972433,-0.00104416192813017
-0.0337225495830479,0.0597048757761255,0.032058173551027,-0.00110016369883884
-0.031490131252626,0.0663957256517014,0.0261096554978239,-0.000854749266341949
-0.0249423701761093,0.0650191074945163,0.0130047961415201,-0.00023468319203016
-0.00968395092790502,0.0531700944625815,0.00198272137789574,0.000731996368096464
0.0108142822605075,0.0344042125467616,0.000137669256471105,0.00171753517298704
0.025679183375978,0.0151349998563496,0.00153589874175022,0.00230256837658383
0.0291934944820469,0.00544197934003455,0.000310665017826494,0.00252088342953841
0.0233659646634519,0.011837131493731,0.000469239286826607,0.002592686604862
0.0145150344212666,0.0272349526904907,0.00656739166804508,0.00239162485056985
0.0062705061558265,0.0339738070232545,0.0133305566931012,0.00169778817298355
0.00109169349603487,0.0240766076568074,0.0150915934121378,0.000544053964361771
0.000622798043946292,0.0132619971509215,0.0155843730567098,-0.000779039916583521
0.00285610421965281,0.0133962270167311,0.0181570098147116,-0.00182461226843135
0.00460476403415534,0.0146013188048015,0.0163712204710704,-0.00227058493447453
0.00738411309270019,0.0135765262676511,0.00342896797618352,-0.00188887302556834
0.0145954318072041,0.019802685668213,-0.0107391466896999,-0.000484374132052532
0.0215505147101178,0.0321374859765149,-0.0130368054955776,0.0014558753927853
0.0173331897090395,0.0376166070923841,-0.00616089406565689,0.00303571759693004
0.00265882939861853,0.0347114933685901,0.00284958926660506,0.0037891229862217
-0.00880098558673476,0.0336647558853351,0.00972707281344949,0.00350046993671962
-0.00999770264315211,0.0343058824654481,0.0140595357670843,0.0025209280775636
-0.00326103379757754,0.0325463250067002,0.0202684744824394,0.00144386136291411
0.00491882497216229,0.0293366840405431,0.0267025388753916,9.80051459788943e-05
0.00658458820984792,0.0249117993186771,0.0258727952506696,-0.00171460827802597
0.00170449971976814,0.0207578940658536,0.0177285340567617,-0.00314793761779178
-0.00414085442331485,0.0184412138084173,0.0105922987080384,-0.00291901043640693
-0.00481578932991888,0.0232928084808519,0.0130445658072109,-0.000956721769180169
0.00217604340182732,0.0354292600966682,0.0203783843941192,0.00064742985780688
0.00864787211792909,0.0432770903289963,0.0191141809605589,-4.39351995769159e-06
0.0112608802098539,0.0454955019834558,0.00857865055347415,-0.00166058081005693
0.0137712213722787,0.0466955265813168,-0.00407802368791311,-0.00201744995589588
0.0136565919186802,0.0454712080988806,-0.0116914116428651,-0.000296499139262434
0.0132874160593389,0.0421400211412366,-0.00932154672447341,0.00286850371600481
0.018908954647624,0.0363136926921548,-0.00121106170411482,0.00567274449714692
0.027190564009581,0.0261749255779304,0.00433997173018483,0.00618422521491889
0.0321039746648659,0.016777132341641,0.00463753982787815,0.00425156531086483
0.0291385970355094,0.0128065331913063,0.00228730639683842,0.00163296474875893
0.0162732363605563,0.0113505947704674,0.000388848437012102,-0.000127856610793523
0.00396544171690951,0.0142958172005518,0.00274446771325579,-0.000729395287091538
0.000873489924597072,0.024207683674825,0.010393897972999,-0.00092602333107335
0.00128296811443993,0.0301914141908596,0.0176836157405315,-0.00167657029140039
0.00254503835381933,0.0198966194295616,0.0182286417479295,-0.00295681249974023
0.00376228908505163,-0.000121222220989869,0.0144033343599343,-0.0040379901899447
-0.00117226686268677,-0.0112073589686845,0.0132444301450981,-0.00437648161172564
-0.00969902062778233,-0.00868158209438888,0.0142159348557384,-0.00405550748360374
-0.0111389476321067,-0.00463685919631065,0.012632681852138,-0.00346505920575684
4.00211935572929e-05,-0.0115718499505454,0.00699022326954589,-0.00267541508647201
0.0182879314839475,-0.0312532719444916,-0.000296512753762045,-0.00136084511230729
0.0292450324844051,-0.0483384989039828,-0.00124894414390094,0.00070986160709594
0.0301063846508943,-0.0435031879654466,0.00652598491670989,0.0030129884060237
0.0350964993172524,-0.0210920611797493,0.0116033328792131,0.00455235539379362
0.04454028637037,-0.00216321258162577,0.00690825229406733,0.00520309672888599
0.0395713522856887,0.0033086807634653,-0.000322035591424736,0.00545756775609818
0.0188275382400873,-0.000398080172215744,-0.0013543483634468,0.00487338099778405
-0.000465212309869519,-0.00634222276803308,0.00341649684810469,0.0021620280901652
-0.0108025733842601,-0.0124866881939517,0.00711912106753541,-0.00295018388070253
-0.0130134448505336,-0.0197416371410703,0.00599837965405288,-0.00816359631965877
-0.00816668925666728,-0.0274816864607211,-0.000548127345943403,-0.010564786223443
0.000565979836421766,-0.0323663879345839,-0.00851643472180257,-0.00916078679292782
0.00730276564518565,-0.0315312348400361,-0.00885790032573535,-0.00478581237046803
0.00982796669495595,-0.0280824504471756,-0.00251997370638699,5.65062481382821e-05
0.0134215855244125,-0.0254455553919692,0.00257030951257871,0.00283335372501504
0.0190046696590666,-0.0189664023782498,0.00758336012534937,0.00315236024305688
0.0204740275206018,-0.00829342621942287,0.0135174828446885,0.00217262322598773
0.0151504858481931,-0.00227301107144557,0.015555677417368,0.00131367364497992
0.00772399511038221,-0.00568481047241273,0.0141342040118182,0.00134349722418385
0.00201336065525563,-0.0151878560872501,0.0108575591443382,0.00200425762558676
-0.00238314174738283,-0.0240185258972458,0.00491800367937911,0.00233152330174543
-0.00285812554964176,-0.0293027729945516,-0.000309316729704598,0.00151174200132756
0.000900722832422193,-0.0303626683342807,-0.00099709266641354,-2.02751328152715e-05
0.00692087236898219,-0.0269498313216763,0.00107181493502141,-0.00108157682363227
0.0136415920050818,-0.0240164183030205,0.00225670172369272,-0.0013725727078833
0.0189412476763005,-0.0249303637327598,0.00266760920597481,-0.00136342690245886
0.0237772677107169,-0.0273731435972642,0.00260460381434537,-0.00133265081678207
0.0281443042535978,-0.0297286192278747,0.00169754183354571,-0.00147342018531302
0.0343123171593646,-0.0308204439759149,0.000420367133568151,-0.00163985869336685
0.0459055852811048,-0.0284968992678334,0.000991547574220866,-0.00130826629583994
0.0599370959584481,-0.025388302057685,0.00487394638957842,-0.000587473206844001
0.072023799121543,-0.0260387496959866,0.00436159060490546,-4.74374887463408e-05
0.0725452856989974,-0.0283221672785917,-0.0038739668902324,0.000587010923370014
0.0540158227294064,-0.0235092242019686,-0.00345449157328196,0.0016295945643344
0.0281242496762996,-0.00886540583058982,0.0111920816055022,0.0016579026892196
0.00941408760192997,0.0034219898230997,0.0192780828126025,-0.000198399526266716
0.000623745018722553,0.00441013345237286,0.0125707804261553,-0.00175159831911218
-0.000738991691880415,-0.000171003841447678,0.00212061198647885,-0.00123371776967604
0.000677860828539208,-0.00423885779609481,-0.00244756411097483,2.93576463871775e-05
-0.00134972939593184,-0.00849534606087896,0.00256383220140291,0.00044679134549761
-0.00791063719561437,-0.0163743435790013,0.0114486682207167,-8.85678773913516e-05
-0.0125615409666189,-0.0312313267213452,0.0155882751252585,-0.00100652804972871
-0.0175422244155118,-0.0453072067357181,0.0172657280217007,-0.00146632472778313
-0.0291244552124192,-0.0446133277457865,0.0211154973364461,-0.00079939038960978
-0.0304350401960372,-0.0335908734065697,0.0191427007680211,0.000995636520097069
-0.0107679610234492,-0.0186384071328705,0.0103657482456991,0.00327029840026425
0.0116398784643643,-0.00196864489160137,0.00805063887036696,0.00459991340974515
0.0233413839603692,-0.00129496655434676,0.011201893579509,0.00366910100307355
0.0248342563156161,-0.0172578445863831,0.0122056754922874,0.00142477616725944
0.0245977445186182,-0.02383619805962,0.0127574376766062,-7.68783246625536e-06
0.0277562386042064,-0.0121506474260488,0.0110919021701739,-0.000112040815586723
0.0272365073203449,0.00883392539238983,0.00443918094927158,0.000322973656507575
0.0188129608721926,0.0328761590389997,-0.00109831649710337,0.000522748012063941
0.00560207417144134,0.0504270489858833,0.0030589683981098,0.000130979205303706
-0.00565605173429306,0.0523299454311386,0.0117044471427434,-0.000637735715650028
-0.0103371151339597,0.0402981768756843,0.0107134284175049,-0.000999085766735242
-0.0128691246071845,0.0298582757988894,0.00143000324548589,2.11110692279792e-05
-0.0210630030955014,0.0320101600018396,-0.00209708091818102,0.0020638565847076
-0.0375673587401239,0.03164862685155,0.000824157366645361,0.00305392828140918
-0.0502941571935072,0.0145679961407946,0.00198441723569501,0.00220348567523102
-0.0415785347489156,-0.00294619086258437,0.00159575280305307,0.00105048964819828
-0.0236887834181586,-0.00137202870925487,0.00192978840458906,0.000963160835220127
-0.0199682257855496,0.0135936122730029,0.00286364422600417,0.00188393495392191
-0.0272587848528554,0.0283101125240078,0.00419446515254375,0.00276402677563979
-0.035463640792126,0.0348913264702347,0.00357220444404838,0.00252461560126273
-0.0403539126645284,0.0237730192775384,-0.000603423647145617,0.00117728861880585
-0.0405092781120241,-0.0051846048216813,-0.00764187102934422,-8.48821807679892e-05
-0.0389561029447472,-0.02777453255452,-0.0107965604498665,-0.00017971828801192
-0.0418771179177659,-0.0237716972950487,-0.000779005266846801,0.000686096759312774
-0.0514044220751072,-0.00281192011575432,0.0122053482732949,0.00166616739518052
-0.0602402943732479,0.0171555043085011,0.0145221313190803,0.00240886128896419
-0.0608593183292727,0.032028193049409,0.012510401065823,0.00273908693514801
-0.0570877146774972,0.0432602931777986,0.0117148905384169,0.00228919478169805
-0.0557358021719692,0.0490435605176085,0.00799474221072016,0.000816477205976683
-0.0568079432560449,0.0493150230624284,0.00137443466215747,-0.00143353761529544
-0.0604089363860342,0.0483671641694335,-0.00171555865255488,-0.00377835227006506
-0.0669330628384269,0.0512109922738367,0.00469758995725749,-0.00540410154178281
-0.0707870644333158,0.0547506080766776,0.0178315940271015,-0.00572206404806219
-0.0593900856291862,0.0493011379726146,0.0240232247096305,-0.00502810409019066
-0.030484172785475,0.0346239463696567,0.0165848812082176,-0.00396691460974625
-0.000819031666537642,0.0252866168009346,0.00419898886433581,-0.0025300484428403
0.0158078754477359,0.0287306672535199,-0.00580919585819122,-0.000391122273898228
0.0188961004444563,0.0308277639012301,-0.0135094595189355,0.00247225644651411
0.010385374999178,0.0236415462285682,-0.0182941186794556,0.00546052950246526
-0.00773764352874926,0.0239056238170389,-0.0184864649116988,0.00755557798128388
-0.0242314691118244,0.0432164129803716,-0.0166164916441615,0.00802850756567843
-0.0346821121683587,0.0680783379723691,-0.0132184548197381,0.00702870512240444
-0.0474729029388826,0.0787595101284141,-0.00545021483041432,0.00507779833872403
-0.0602303141896719,0.0713922673977636,0.00330022406679484,0.00223615145870262
-0.0685013248481216,0.0554345725350118,0.00736620354052625,-0.00110923923425964
-0.0783828155309475,0.0409894352850169,0.0100902611391624,-0.00384370087857851
-0.0877587714096977,0.0319861333200349,0.0164186405711852,-0.00543696523393244
-0.0806260028482037,0.0212643603233743,0.0201005037520299,-0.00625302792304368
-0.0534557457492984,0.00233188471766313,0.0176272185749946,-0.00662119665075589
-0.0215909446301124,-0.0216121703835281,0.0146827199901088,-0.0062765617221256
-0.00200360468435735,-0.0423954803008981,0.0134342371025719,-0.00499903445195461
-0.000944514787269569,-0.0574826666008514,0.011509086551299,-0.00343742445763072
-0.0110070976477429,-0.0681019149190212,0.00933680082481874,-0.00229509788823216
-0.0271469736479072,-0.0752055966290275,0.00987778192925033,-0.00151949064633765
-0.0474804341214562,-0.0825224750248052,0.0138752982414658,-0.0009514619846786
-0.0551103619002584,-0.0851002347929573,0.0142915419489216,-0.000808986038467338
-0.0310897958386133,-0.0867689297971137,0.00359484537590192,-0.0012077398906415
0.0172230345728884,-0.0937486561266516,-0.0125177655712891,-0.00160749130702296
0.0601838784647727,-0.0853341256158613,-0.0216442274421034,-0.00107598752023052
0.0738066783900108,-0.0480526827168231,-0.0170916640041603,0.000481538743195019
0.0604879760717846,-0.0016945403245304,-0.00561556332488549,0.00216121516149184
0.0373126736217339,0.0272761088314954,0.00251730152779393,0.00316668383834749
0.0151316692518675,0.033127552931656,0.00588471331856282,0.00317273632971978
-0.00456089566384318,0.0274966439523849,0.00708558725339299,0.00224916947938574
-0.0259300382073024,0.0251315079555371,0.0064395469205604,0.000890850638511615
-0.044371432263814,0.0353406726179539,0.00120690478504642,-0.000220992163929122
-0.0456300371809591,0.0478397166646921,-0.00671904740364207,-0.000597228104353861
-0.0334810386374881,0.0412325243184851,-0.0113136828996421,-0.000619148828921346
-0.0309584656475787,0.0121999498121327,-0.0132061229116219,-0.00100569013990863
-0.043451501495607,-0.0251524774911562,-0.0150992861743436,-0.00165028526038402
-0.0567070484452913,-0.0544943108846331,-0.0150953326391493,-0.0020699372211312
-0.0606502874254115,-0.0675370662551828,-0.012557775333239,-0.00215003262710299
-0.0506231326607634,-0.0660207382301389,-0.00586766874381494,-0.00202969654026178
-0.0295039408751265,-0.057013507028839,0.00395265809792355,-0.00177777727005522
-0.01207007560191,-0.0491933733782672,0.00907767797766485,-0.00157646528818535
-0.011063562959595,-0.0391196212916415,0.0083350587096969,-0.00142196981579238
-0.0203935625258433,-0.0211634627264695,0.00402117985161711,-0.00112526216914834
-0.0201692688251875,-0.00107060873271161,-0.00728239219182946,-0.000554632638908543
-0.00393718166922094,0.0149275726876553,-0.0226855880072106,0.000533047314878186
0.0114053337601153,0.0219040508045702,-0.0294664141876808,0.00193729767131564
0.0125650761627357,0.0205423025829311,-0.0241151025728202,0.00306175412006887
0.00242822207912959,0.0141723255490705,-0.0172425549758297,0.00356522574389539
-0.00947082556197467,0.00301674673950815,-0.0127268359861284,0.00348798779932858
-0.0139610986875056,-0.00620113868193239,-0.0058124790971154,0.00284069567222123
-0.0107047243502642,-0.00929671651135982,-0.000825730362284617,0.00133202899869543
-0.0106406265845641,-0.00724452920585673,-0.00042740976505876,-0.000704510189702274
-0.0187812605927977,0.00245182575015878,0.00100382599116822,-0.00204177820723082
-0.0254188482823797,0.016385693637883,0.000630949636056665,-0.00208990588579583
-0.0256398040847934,0.0309887960385871,-0.00697299336934286,-0.00151047807157674
-0.0171046358416982,0.0446708520269438,-0.0173371631775682,-0.000867099959579499
0.000856737629503454,0.0509537687347464,-0.0183518541287068,5.93097538694753e-05
0.00860943002853981,0.0537630521169538,-0.00493174432927997,0.000963363222201948
-0.0044870383452822,0.0618966116082865,0.00808167317141537,0.000655324539698181
-0.0210278451459269,0.070796684242108,0.00705095700615523,-0.000868230326438206
-0.0294643799983172,0.0719740498635105,-0.00321652850933633,-0.00205444850957678
-0.0312919596213918,0.062063700405105,-0.0138800947128819,-0.00194359858450498
-0.0268232173670384,0.0454803594779406,-0.0167456779564919,-0.000825529438668223
-0.0177360713074671,0.0310816521416788,-0.00690488061734669,0.000376033611136907
-0.00749709017553133,0.0177624138618341,0.00768312572791245,0.000751742372331753
0.00510264191919583,-0.000688808754103386,0.0150577029577994,0.000402336743372037
0.0193987119512015,-0.0211678557980113,0.015051091232892,9.56065485315143e-05
0.0273624143245298,-0.0363870137629465,0.0125743052406697,8.05685769077302e-05
0.0286905942943292,-0.0368376642717946,0.00751910307127807,0.000120058262545912
0.0298579379802842,-0.0196310545373829,-0.000416878004937084,-8.03571909245976e-05
0.0287068056513992,0.00498666555025912,-0.00520663488601695,-0.00019765026860253
0.0219537854083271,0.0275750709726898,-0.00017521547433034,0.000464351078590219
0.0123256739648117,0.0394970140028534,0.00905601193765093,0.00140520880695994
0.00470174166977112,0.0388233236555256,0.013652034505847,0.00147964304993493
0.00102502424334483,0.0366444193468991,0.0134220505468948,0.000740109846432081
-0.000526599264659158,0.0410490447515665,0.0129526705194237,-6.91761545935034e-05
-0.00270156509595568,0.0482008963443953,0.0138610847308944,-0.000747149881651267
-0.00845452695560798,0.0522631864836114,0.0133177473987453,-0.001249198274241
-0.0142343279022924,0.0530082577692615,0.0106470927925247,-0.00138767697920964
-0.0123897895790784,0.0490925911211956,0.00517504073120489,-0.00115220306110285
-0.00365205970628145,0.0364033872577548,-0.0010121228674283,-0.000644253711431773
0.00507232969851472,0.0148993289586544,0.000135899620938107,-8.83016263074582e-05
0.012548897157668,-0.00981446230012222,0.00854211513538363,1.97784332542582e-05
