0.0204679460959777,0.00161182416679552,0.00519362212771914,-0.00113071598633989
0.0293933061654503,-0.00674889430855564,0.010974506697126,-0.000574413269620839
0.0402855748006407,-0.0142600675886186,0.0126256923999164,-3.09773594285906e-05
0.046117082385736,-0.0167755970156362,0.00833713654733798,0.000229450177540555
0.0419590427045336,-0.0169338075035432,-0.00202360540000367,0.000341578295096295
0.0327510902740114,-0.0124887892379019,-0.0118569674970643,0.000538966851528077
0.022463944019378,-0.00593760161930409,-0.0170655862359369,0.000792046462602308
0.0132441694952917,-0.0052815237302667,-0.0199291903201268,0.000892487529693429
0.00620807911434753,-0.00986424587899263,-0.020338607495933,0.00087007577079557
0.00128570208252122,-0.00990455890363476,-0.0188058337283895,0.000946041862086919
-0.000780939747004203,-0.00292097488507816,-0.0174265403978218,0.0011885076527752
-0.00728234981005841,0.00321473421654055,-0.0157154363645234,0.0015389438673317
-0.0231664727649985,0.00637167286406337,-0.0124847426542823,0.00180511766071138
-0.0369003178736968,0.0124916407733891,-0.00646298433102717,0.00176538359954084
-0.042396962254362,0.0155505563032416,0.00132155965618467,0.00126030971686966
-0.0423362190749271,0.00635509738930539,0.00908184491403601,0.000249485683739227
-0.0293833041668419,-0.00733384043096869,0.0136649104315247,-0.000896670310252133
-0.00799907355371511,-0.0153003829180189,0.0147634043667422,-0.00156035520287057
0.000238436577313719,-0.011869673655331,0.0185810573030832,-0.00138199834412211
-0.00817302442783491,-0.000122011839623331,0.0232693610177807,-0.000774522179926721
-0.0140109553572202,0.0018582437617171,0.021104472134188,-0.000549447912783918
-0.00935874124275727,-0.00867632660039334,0.0107915431189785,-0.000687128290390978
-0.00460892634657412,-0.0178951920547615,-0.00113537309122424,-0.000597891557579836
-0.000713354816844293,-0.019669815214586,-0.00604032615687964,-0.000236527770758784
0.00447936154983709,-0.0160322086646651,-0.00668305408354614,0.000172972426481471
0.0047524229741672,-0.0162199757246273,-0.00940283304884448,0.000521697846498544
0.00256732111379967,-0.0227052741758155,-0.0132196691918639,0.000765642429697414
0.00720325294166109,-0.025027034643037,-0.0175492260386186,0.000938861446493714
0.0172383808152698,-0.0180727029626718,-0.0198882538355074,0.00114569637203591
0.0219897302825861,-0.00924774581137102,-0.0160824451030758,0.00154469483363016
0.0134979049970307,-0.00484071990697519,-0.0086045038203545,0.00192868259755128
-0.00386839478732607,-0.00478984949869971,-0.00356244717754134,0.00186829189446341
-0.015476062131302,-0.00588134487321517,-0.00263766968536939,0.00131121371962519
-0.0137483399694622,-0.00452410454364565,-0.00405367314684348,0.000422584420114818
-0.00618718429432287,-0.00686565536811338,-0.00648386956443071,-0.00046732823847896
-0.00476156736967046,-0.0172025989659016,-0.00386307766320632,-0.00112150514223132
-0.0128216923905984,-0.0226314471027422,0.00595015282152398,-0.00154285436639674
-0.0227501761974859,-0.0171388208566905,0.0120996210842023,-0.00164877099198242
-0.0254931965092332,-0.019873939969059,0.00802834355639192,-0.00150263291542085
-0.0172867332404458,-0.0335396027855554,0.00121276937637842,-0.00125548167829435
6.4911113868138e-06,-0.0341911527703858,-0.00301082708011679,-0.00101096024965985
0.0149865310226746,-0.0264479536226525,-0.00684082997135451,-0.000838074382677441
0.0247721651185453,-0.0299885083153664,-0.00811288153980544,-0.000797116807221999
0.0378802888648848,-0.0421613659169862,-0.00438052460515045,-0.00102215718655722
0.0476160534316325,-0.0525371226987188,0.000215830055239147,-0.00137769832987791
0.0418859723042789,-0.0530773087043433,0.00425314844852059,-0.00157204562871094
0.0231629481264221,-0.0381009439442156,0.0103298724311446,-0.00148656808587607
0.00601443369938999,-0.0170277122384411,0.0170905217298467,-0.000725327735456567
0.00800467198309054,-0.014065897741256,0.0195001346837997,0.000899941580877991
0.0210635962697635,-0.0150207288970736,0.0106271674064594,0.00243193687981122
0.0118938815098495,0.00875407925815049,-0.00642813153283983,0.00293735574962566
-0.0233158802207249,0.0362706276891142,-0.0187051068487207,0.00257285814300964
-0.0563253884336587,0.0498182746780909,-0.0207354394735703,0.00174282238667252
-0.074255111686189,0.0783220577847612,-0.0146352477851796,0.000789363108886396
-0.0766375990426294,0.129061930492213,-0.00531272784147644,3.10798545119914e-05
-0.050868403225973,0.135691603507582,-0.00204074958384955,-0.000516769220788697
0.00101583643297072,0.0674331380623579,-0.00462548518196335,-0.00101545566541342
0.0432094941460415,-0.0133170279546166,-0.00109929018375714,-0.00180649562277307
0.0460948786765993,-0.0549146882474814,0.00511084949890977,-0.00290267609653422
0.0178972555718472,-0.0569779369665866,0.00313458689337855,-0.00379120309539855
-0.0161527812870962,-0.0367100514616923,-0.00190140340272054,-0.00384966179618812
-0.0410501961852703,-0.0209967488706406,-0.00344365054250786,-0.00265313792901954
-0.0511819133258466,-0.0304733181321363,-0.00175424046675157,-0.000620835967045671
-0.0492709721161989,-0.043480692091047,0.00418089262035973,0.00134128579900364
-0.0389944407473741,-0.0304733718766276,0.0116748688638519,0.00261577573611661
-0.0202614199766096,-0.00221545400840354,0.0145106687266158,0.00303665204362594
-0.002132991865475,0.0229505187010266,0.011815680040408,0.0028587323018726
0.00450786691250366,0.0344582169562128,0.00962667739277068,0.00207531764764909
0.00209190636965186,0.0184685789738517,0.0115037576704943,0.000696827376899617
0.00150249262170702,-0.0157357264115583,0.0120346209558811,-0.000575996392017447
0.0128469819070306,-0.0389531137654026,0.0080186920228827,-0.00116534377459395
0.03355856064349,-0.037910793237935,0.00207565926807401,-0.000795194728945304
0.0364372466661618,-0.0163581409117947,-0.00449914763278251,0.000269709972237469
0.00516547556188317,0.0211795560600436,-0.00753428757390246,0.000940544135635284
-0.0349376835500163,0.0664837577102983,-0.00350230920102612,0.000887256797892825
-0.0593839659071879,0.0964410961318843,0.00400693470948927,0.000723843822392644
-0.0639831062274071,0.0953536023446834,0.00961392250944833,0.000700754279761009
-0.0507157834427372,0.0768805174140225,0.011202353309237,0.000546449989271305
-0.037237714058238,0.0581487051403309,0.0127731440853239,-8.50566401121161e-05
-0.039748761085238,0.0457634942995914,0.0178544877232395,-0.00099079380863347
-0.0513844507978145,0.0467601740405359,0.0228434714024892,-0.00157271460111719
-0.0608412252059502,0.0568034617403231,0.0235742846085679,-0.00150100831007777
-0.0509935867471784,0.0534628301175803,0.0198495486744758,-0.000658792471096249
-0.0100391211274117,0.0323229986682982,0.0147527756045736,0.000751482378202937
0.032000756695646,0.0139102415154597,0.012262237272434,0.00209784220473836
0.0441773695542968,0.00366039847952115,0.0108646784843659,0.00282689222474509
0.0346063917756374,-0.00928189292462317,0.0074022756649223,0.00264404381817305
0.0172302790377672,-0.0254131175704164,0.00456668470133014,0.00164071987481776
-0.00327730598416207,-0.0360305137367841,0.00376801051001655,0.000604425175669207
-0.0187274253956563,-0.0372311915073686,0.00205732641003253,0.000133053461899952
-0.0226609622480435,-0.0309252274492704,-0.0011717631778068,-5.57765080325516e-05
-0.0180623969751083,-0.0201466770019256,-0.00367736792065637,-0.00027265735304897
-0.0112787662463278,-0.00483231611671403,-0.00219739509570778,-0.000152859741539891
-0.0115269594557473,0.0162380619089939,0.00214550832086572,0.000619469889700083
-0.0223119324101754,0.0370424703428859,0.00366361850198208,0.00121667960053307
-0.031129187356745,0.0455404901249509,0.00270622636755844,0.000783605327236128
-0.0245138411574198,0.0409293622897733,0.0027680173061683,-0.000220200591323992
-0.000713100341847177,0.0315955562090407,0.00228861436438583,-0.00113678899221093
0.0317064191702011,0.0208411587199064,-0.00189257823800297,-0.0019486056156964
0.0625289790434752,0.0160014322749328,-0.00820020853875542,-0.00269159332334695
0.0802287311894728,0.0207633405516911,-0.00935034035198118,-0.00314419078365424
0.0856892370775799,0.0242699596608837,-0.00319973566559459,-0.00287008987672248
0.0904443341424113,0.0177097582508663,0.00231698195153246,-0.00171450375551016
0.0827937550142388,0.00342572125358071,0.00290495724486655,-0.00016521895347398
0.0598482712149947,-0.0121664319642479,0.000853315532357244,0.00116397944840715
0.046296789530814,-0.0269674531169501,-0.00321013292492766,0.00187275110122395
0.0484648381274268,-0.036353053205045,-0.00631878963652248,0.00191525676331384
0.0454243788197387,-0.0292388782921279,-0.00463293841808146,0.00148559764598504
0.0221123959889334,-0.00691133286265651,-0.000375592559291135,0.000863409042286515
-0.014497543162709,0.0180724299413433,0.00387388932042154,0.000570696051034062
-0.0558765069596025,0.0339909119762159,0.00895713107449769,0.00102163121908855
-0.0901101774560873,0.0251857394569124,0.0123588568751896,0.00210087058212937
-0.0872286304614241,0.00145039965584681,0.0100130511942499,0.00305995100529784
-0.0427189985744011,-0.00356062862097137,0.00237704345822474,0.00294561730721723
0.00514530482917311,0.00764352863899722,-0.0086784854479186,0.00140516789364208
0.0293320450392455,0.0139751088982045,-0.0187455971657976,-0.00106072287786456
0.0340195927877052,0.0184300631721886,-0.0223888432884774,-0.00345824235088382
0.0313700451066924,0.0196677359411134,-0.0218358613535654,-0.00493910042982089
0.0273860035776243,0.00396815818711215,-0.0223953659815074,-0.00531496197452521
0.0229416902805795,-0.0233707300537697,-0.0226788985019571,-0.00485133794470815
0.0209007205531117,-0.0411972986706308,-0.0179085095361184,-0.00393236479632029
0.0276573631827366,-0.0417786596855093,-0.0107535244101709,-0.00280756055026561
0.0380313616020121,-0.0362098086727727,-0.00979020544715346,-0.00132734274050585
0.035240553134566,-0.0350457466398831,-0.0158445913983977,0.000461244271877794
0.0145128106090276,-0.0366294284725322,-0.0199721831870978,0.00205379047916195
-0.012194524579831,-0.0339377468115175,-0.0167800791124813,0.00298462292427401
-0.0293815161486039,-0.0251147199853586,-0.0113826212320074,0.00319901094687759
-0.0289728115623077,-0.0137508570456794,-0.00916490897039319,0.00291157150188337
-0.0132908745582901,0.000412529398008586,-0.0107398146217931,0.00249406953165871
0.0111915108916977,0.0201551903656237,-0.010915371983028,0.0023772892538884
0.0312189664234346,0.0308979715810318,-0.00880259106629493,0.00214921636025579
0.0293627176455158,0.018466589026707,-0.00987974562138173,0.000952456818549014
0.00988776233418771,-0.00452928069278002,-0.00803594100439008,-0.000895666676705472
-0.00472881787940836,-0.0203361314447228,0.00240780899011319,-0.00214404961293618
-0.00809253639748714,-0.0193778101334387,0.0125586085202029,-0.00217826619937917
-0.0102319201766742,-0.00949468139962509,0.01451075596556,-0.00148140885154491
-0.0158104259348212,-0.0155629171015651,0.0110095394493618,-0.000960764793407821
-0.0198925709619858,-0.0380880562138871,0.00682772565245317,-0.00112107962353132
-0.0196891927419791,-0.0523088860701601,0.00212916817447672,-0.00155803688597191
-0.020079950728491,-0.0438860750895281,-0.00109898987723075,-0.00156720328023946
-0.0209993657842332,-0.0176262883627194,-0.00114553388781148,-0.00119509057847456
-0.0234701136642203,0.00671361788698071,-0.00316005633642139,-0.000790023363025258
-0.0321859095990803,0.0119649124535405,-0.00835663471494518,-0.000287227322461183
-0.0359740607878351,0.00208190568943877,-0.013690806848786,0.000504063883898268
-0.0287322549560891,0.000380936307460803,-0.0150488997595077,0.00135644772976877
-0.0213429276120993,0.0113014651791558,-0.00997406049857365,0.00173198948317564
-0.00781788873941565,0.00764012790638172,-0.00630431146489552,0.00149785639122571
0.0120668923085006,-0.0141542736859952,-0.00746876018349405,0.000851910520995425
0.0171086584086438,-0.0294410417404681,-0.0052830700379388,0.00023404059883872
0.0105948780029909,-0.0305810664697124,0.000808723173211243,0.000203283688280445
0.0117062866493312,-0.0246892593215833,0.00453985415527055,0.000685002138816349
0.0227042119380189,-0.0191299806403558,0.00496747529220031,0.00109071706025692
0.0345506147855271,-0.0176531613868424,0.0044437159650797,0.00110449107966974
0.037665157086594,-0.0182863346970481,0.00314117178836681,0.000636069736118584
0.0312194565102964,-0.0213313903840598,0.000342620616515115,-0.000255416955270835
0.0231842255349127,-0.0256882372813914,-0.00120889530110841,-0.00122348024981256
0.0165213157583374,-0.0269840360974459,0.000182586360883476,-0.00192292739089088
0.0109602695806585,-0.0268036358692215,0.00166776876263994,-0.0022026360944463
0.00695401995075438,-0.0251742411690254,0.00310780109541881,-0.0021138781231798
-0.000261523011655756,-0.00907771024357671,0.00808115662910391,-0.00159652490287398
-0.0130916101638381,0.0307508218179716,0.0129735389718738,-0.000652824431168434
-0.0248301817346626,0.0637024882233853,0.0111238339091725,0.000288814876812574
-0.0226621180946091,0.0501983205586865,0.00460904106340957,0.000718908069415363
-0.00244860791186155,0.0078715139235664,-0.000508696166744278,0.000699411127776237
0.0183190918291324,-0.0198721122486553,-0.00368260393253005,0.000721389478143867
0.0244746436424507,-0.0192737996724468,-0.00586818342778428,0.00078497324178233
0.0185785268056823,-0.00545978984455998,-0.00505114096943503,0.000733835539513485
0.00988308292272091,-0.000965424473895894,-0.00218551790990112,0.000754368432931976
0.00686886110262118,-0.00782570663909417,-0.00256626511584399,0.000947238701342515
0.0114356835276951,-0.0165205953956892,-0.0066251498585549,0.0010143239138199
0.0188669767724173,-0.0283114007741342,-0.0102540485787307,0.000552719146100299
0.0252919454031212,-0.0407214245836596,-0.0117778346509762,-5.21068757559928e-05
0.0295619389758592,-0.0471263577719924,-0.00819741843364107,-0.000125089545128106
0.0293379702429628,-0.0456997714219925,0.000249775320595256,0.000279260175042485
0.0234805538104167,-0.0347665086423372,0.00743901377461292,0.000643252517175053
0.00956349837350753,-0.00600471837730832,0.0126868909756769,0.00047674426052029
-0.0137676499252845,0.0424356892165607,0.0165512161060041,-0.000301684196636685
-0.0329172584582462,0.0769621104461716,0.0135169230090256,-0.00125825572788842
-0.0310694123632802,0.0652336205165698,0.00306959991516744,-0.00184329905482028
-0.0162265162074936,0.0290769917896188,-0.00509523831487785,-0.0017697132609184
-0.00825461128129797,0.00430688155925557,-0.00566681819838689,-0.00107943877248278
-0.0116450859154121,-0.00689803395186519,-0.00361558294755893,-0.000107540668798969
-0.0164408418240841,-0.00921255054829205,-0.00296926037673681,0.000751664918337013
-0.0127698901401212,-0.00400862615270118,-0.00688293862850101,0.00122362094795373
-0.00489878517294889,-0.00334134073481116,-0.0162144377692015,0.00102070012098294
-0.00335678435393393,-0.00591569057703248,-0.0251720670522572,0.000224623322178639
-0.00728458208464863,-0.00165137911620834,-0.0270458615456004,-0.000429291432507045
-0.00940226255003342,0.00631474359950684,-0.022557759904075,-0.000383813990538918
-0.00772678978241303,0.01718378520501,-0.0170040132938672,0.000299472545224023
-0.00605941525207863,0.0302397916897822,-0.0115902593153336,0.00108588532409231
-0.00545714973254175,0.0385415282256401,-0.00568124314428918,0.00153875408717609
-0.000268598801831912,0.0380744906915089,-0.00140457060442502,0.00178916473928371
0.0128963262518502,0.0294083651417091,-0.00259073989222224,0.00211141716134686
0.0236389691674601,0.0223257785717989,-0.00285137402384489,0.00240524330829219
0.0203565253787517,0.022666665338149,0.00621954946037559,0.00223207667078233
0.00789961221414808,0.0203180930176696,0.0131972698695174,0.00136538205886775
-0.00678776170204801,0.0105840796566028,0.0112448255101943,-0.000159231697075694
-0.0222348080767164,0.000548579598665676,0.013185827349815,-0.00209248169871598
-0.0391624434860621,0.000127285056736879,0.0234564012359113,-0.003696168213819
-0.0550453046420208,0.00976803093487534,0.031934204616414,-0.00407139347429292
-0.0570320765176001,0.0146266377262684,0.0262732300366993,-0.00297653267377099
-0.0414960534532824,0.00736117605628231,0.00849457011479954,-0.00116501079992947
-0.0233769015376248,-0.00100855617543169,-0.00568017701131793,0.000330259634748868
-0.0126091736432785,-0.00223109851452998,-0.0102081277728306,0.00114421799096188
-0.00706072762311391,-0.000493916693507422,-0.0107165791870753,0.0014583363591356
-0.00443785262628282,0.00217362943520789,-0.00663871597422955,0.00142669134418996
-0.00597588911304229,0.0050001588798868,0.00348012220626125,0.00134433960920021
-0.00925287256003592,0.00596007689014465,0.0102696202106809,0.00162304061524896
-0.00859314527312312,0.00658913284370331,0.00821727443112014,0.00216883030442712
-0.0056866629890955,0.00539426248092538,0.00152913013642422,0.00230211390781361
-0.00348324126726858,0.00157834100957258,-0.00577488724576239,0.0016146554990796
-0.000802739259641944,-0.00060765672542101,-0.0108034834409346,0.000526101445624961
-0.00041145548319437,0.00247485363572165,-0.0113441985538717,-0.000395599562249141
-0.00515665639061576,0.00777401900669888,-0.0101743715159248,-0.000892211780727247
-0.0123433213052927,0.00675507228790636,-0.00934889752905509,-0.00111772275379214
-0.0164453389959099,-0.00163569866989207,-0.0082359452109941,-0.00141313268210301
-0.015222077212507,-0.0134638598013708,-0.00790808512303832,-0.00183805026725636
-0.0112436133268477,-0.0211666984676359,-0.00604866715751447,-0.00232558037409966
-0.00675002927644533,-0.019616977507706,-0.00232693685083241,-0.00245038843892907
-0.00341686702472871,-0.013829163951436,0.000453305594252103,-0.00196142453254184
-0.00146212463998182,-0.00607570500126122,0.0052477979828125,-0.0013695503515308
0.000393328041058377,0.00163037130113952,0.012204720127765,-0.000836525904143212
0.00262069683336367,0.00230625861433992,0.0154835777693625,-4.35547478211981e-05
0.0025073877757981,-0.00474053050753957,0.0140036329924993,0.000822986468751879
-0.000864231146976387,-0.00907640361875064,0.0143107138316297,0.00112340911985282
-0.00493023912911165,-0.00485189546444117,0.0186905042393413,0.000815530019554198
-0.00942196594166536,0.00475652051911115,0.0213869340489399,0.000524206581748495
-0.0100215268695008,0.0159424420674488,0.0196311784236244,0.000605604335582505
-0.000685218616103938,0.0209425094033395,0.0133431022205081,0.000915526858685339
0.0137405622345217,0.013341839503279,0.00350271942150425,0.00119792800722676
0.0261068313957317,-0.000828813903929346,-0.00504381152179996,0.00115148203312385
0.0353871645156477,-0.00975645316059064,-0.00863047367298491,0.000630841916584919
0.0384417199221383,-0.0105045230905221,-0.00845621960990257,-6.02078316034214e-05
0.0324231915581648,-0.00602441546768948,-0.0060642959795308,-0.00068781342385497
0.0210299131818377,0.00236836393168819,-0.00227696001724087,-0.00113257674877812
0.00901952545859479,0.0103062148628474,0.000175521210718971,-0.00121287825604496
-0.00539154748522901,0.0088712008040046,-0.000979092621578036,-0.000931256370069758
-0.0232155981163729,-0.00240638061486735,-0.00572253026323575,-0.000469965958634975
-0.0397884385286223,-0.0135843856167579,-0.00977880063489741,-0.000365220591421327
-0.0512163549048603,-0.0160344210295476,-0.00778977155649647,-0.00103302813608265
-0.0568354948040329,-0.00724537241264553,-0.00111600256013159,-0.00201635181508591
-0.0537017882883919,0.00404813366172626,0.00469457934080707,-0.00261257492488251
-0.0401891886362497,0.00988821043851743,0.00528755627836967,-0.00254035177788974
-0.0236401359919824,0.0133114741268849,0.00305495424390807,-0.00195094663342684
-0.00795516718969484,0.00880337629151855,0.00201007374607665,-0.0010014449055609
0.0111551401138901,-0.00765724130532892,0.000863834241963248,0.0004084638026744
0.0351663280310468,-0.018526643290854,-0.00213505599181889,0.00196124164201299
0.0540252178457118,-0.0128183871764778,-0.00494931474657952,0.00302966645570727
0.0575982084524669,-0.0011379145755134,-0.00412917076143598,0.00349375554216808
0.0475848993166453,0.00574768265771892,-0.0017483787975286,0.00364957393899127
0.0335554453515755,0.00859440993533393,-1.87827453664025e-06,0.0036791167459526
0.0210233234723641,0.0121798906067627,0.0015304433728732,0.00334045738921968
0.00889220494378508,0.0148421229057339,0.00263480342610423,0.00244344214536201
0.00448654144277334,0.0109092179411358,0.00538202895247455,0.00114183505198948
0.0139325946389186,0.00156452336040003,0.00849281527982938,-0.000605234498686056
0.0254679370350596,-0.00735842052877062,0.00790332868579389,-0.00256290990735608
0.0259833356893982,-0.0112794869513621,0.00583607738481318,-0.00402166108019663
0.0154008862474878,-0.00878863549310956,0.00425786840739692,-0.00469021879707072
0.000863560934147967,1.04963761920068e-05,0.0020423096720124,-0.00450377816226254
-0.0131545398177849,0.00798515755733487,-0.000135429998017154,-0.0033623351655929
-0.0215963278359936,0.00327785202535327,-0.000835628283946819,-0.00156385674522644
-0.0198163104232553,-0.00718754003844232,-0.00111171910472863,0.000391307232672163
-0.012592928142498,-0.00898574439069873,-0.00159140173982195,0.00223897992437395
-0.00894020804409755,-0.00159339142963946,-0.00200749654389244,0.00364620264191666
-0.0138312324235883,0.00703554064513139,-0.00390683673376666,0.00398991711888997
-0.0207877518553168,0.00453553872189185,-0.00708127799673182,0.00310559935132792
-0.0187767431085205,-0.00926311239999298,-0.00876587882628125,0.001658208412238
-0.00452831644544201,-0.0191686665731721,-0.00733273077290735,0.000388265391229694
0.01339118190839,-0.0189512724123615,-0.00507666953371222,-0.00030912151150934
0.0234798678054084,-0.0137157000531854,-0.00461946473651314,-0.00038686341997267
0.0238054753163868,-0.00722100913895733,-0.00391122400657952,-0.000181512384620532
0.0175911692809229,-0.0024008159232116,-0.00119792423983506,0.000318267014086924
0.00715937655454976,-0.00161545890195471,0.000161877950653212,0.00102198824110718
-0.00128349749846938,-0.00259295988293569,-0.0029620376729165,0.00114913743530958
-0.00086593892491757,-0.00500473659712479,-0.00750959729450002,0.000559444993449388
0.00109831753795987,-0.0115221901015081,-0.00849509492235352,-0.000249975310482673
-0.00924684686417522,-0.0214123220362862,-0.0069229462147378,-0.00111677153690718
-0.0299813230147438,-0.028908617032934,-0.00700787545284117,-0.00184952213670668
-0.0462082172574429,-0.0333501509568881,-0.00883849102867764,-0.00216677879293297
-0.0484237873345371,-0.0351881781516529,-0.0041998419041772,-0.00209282050160641
-0.038654272411314,-0.0298507899899309,0.00579735729345685,-0.00183526735930441
-0.0216376127002438,-0.020823883314531,0.00823958084441417,-0.00160577071637858
-0.000991051592660899,-0.0134122404294186,0.00210879917698783,-0.00122036173640271
0.0165900152559025,-0.0102641388924709,-0.00349313446503697,-0.000271742315784369
0.0232554659895034,-0.0153487850417574,-0.00453037928961438,0.00102812604814572
0.0201472538294669,-0.0216707097232641,-0.00239058287640957,0.00197034551647499
0.0124445457341092,-0.014138735972058,-0.00124006728033999,0.00214504039018466
0.00186301087365776,0.0201210370282202,-0.00152747837865669,0.00179841958325544
-0.00188381481341833,0.0623294679402015,0.00164714809519517,0.00159982634891344
0.00627717236907477,0.0660335019129414,0.00570613970871648,0.00159768166514016
0.010593879299957,0.0383439743279195,0.00620560246092026,0.00109644103296851
-0.0023071929072228,0.0172143520014079,0.00387090784965833,-0.000151492488898862
-0.0229443910141806,0.000929628487973885,0.0010179936439279,-0.00140830125980762
-0.0387320958299115,-0.0119389011190379,0.00110920093552365,-0.00162740012471806
-0.0543494913856382,-0.00333677675879897,0.00508806362342963,-0.000758597750765472
-0.0710716147148826,0.012123963157669,0.00723858167894672,0.000260543595560993
-0.0737601372588281,0.00628890243429297,0.00222298306174423,0.000624734813463685
-0.0578661148327422,-0.011195213331369,-0.00517823127766411,7.82776855601372e-05
-0.0334162630434145,-0.02528571025065,-0.00949615266379602,-0.000930349762955456
-0.00623757848152189,-0.0362207907155534,-0.0124509444304001,-0.00160677066662594
0.0242750914689016,-0.0462106107583742,-0.0142839442723215,-0.00173238975803495
0.0504194393987187,-0.0538283108940777,-0.0150423306931738,-0.0014461849248755
0.0592116541317734,-0.0544023234922307,-0.016707111770025,-0.00078998927319418
0.0567567014025834,-0.0514471522022454,-0.0197361912164719,-0.000153665296874406
0.0497623233277541,-0.0491708099343791,-0.0247574772730266,-0.000119510126564541
0.0369275857586631,-0.0450545752217714,-0.0284888981552521,-0.000617971406178665
0.0240066038321904,-0.0292170493134355,-0.0242238523694968,-0.000807234410734976
0.0111157975372714,0.00673216553258697,-0.0135849402407354,-8.00201968362731e-05
-0.00157519524314264,0.0456513176288259,-0.00408817440184039,0.00119784196806086
-0.0111434728394701,0.0666136945772458,0.000992884378957587,0.0021651504368292
-0.0327791791129866,0.0863061498082226,0.00454387838780397,0.00233900190881138
-0.0687978745196007,0.111984097119105,0.0117840327821139,0.00215432573603197
-0.0787570878627819,0.110840798380176,0.0199937660145579,0.00226453668688538
-0.0394961780198391,0.0710173707419251,0.0212128035309819,0.00274408359236996
0.0238175463509069,0.0166326944941679,0.0140702729058242,0.00303156791143856
0.0831915391864015,-0.0223824698229514,0.00342599984318081,0.00216610587171974
0.117099366921259,-0.0411720463731418,-0.00371871892890101,0.000109257769868279
0.109432370687312,-0.0555266630447911,-0.00348231765714866,-0.00185889446405662
0.0770589444992975,-0.0613979842087646,0.00248755109485888,-0.00313531901909587
0.0566164761945226,-0.0515474954180343,0.008784442677141,-0.00410631912247367
0.058597274460922,-0.0382960432327875,0.00624052829968629,-0.00461239182059507
0.0629570421322429,-0.0333441200800434,-0.00446939293261419,-0.00437397657822155
0.0478326259338634,-0.0384451309420328,-0.0119868622269006,-0.00340839731117492
0.0137524499974691,-0.042165051585976,-0.0110833327894583,-0.00167425362023739
-0.0163660970950499,-0.0302614390066025,-0.00658932037835594,0.000662442605084403
-0.0369760182570792,0.000133432715837031,-0.0040504960816748,0.00304960300266406
-0.0605592458663699,0.0346516160064985,-0.00267495101001689,0.00474211894932168
-0.0759793742910474,0.0442531824238778,-0.00129938612345034,0.00528189678756068
-0.0596422968594728,0.0339536118285623,-0.000460458104743494,0.00459120127078136
-0.0142510809477394,0.0335990817838232,0.000369065445720938,0.00299329734825028
0.0299905179069334,0.0272082240526211,0.000242910773284703,0.0011169624128596
0.0423286662363319,0.000825519266414557,-0.00106302410547051,-0.000665152855483422
0.0253611975907074,-0.00747388006199492,0.00264486824231712,-0.00202838582816989
0.0147353570356139,0.0206062399812466,0.0115114891154614,-0.0026016871849001
0.0299868818568269,0.0488745696313863,0.0148911947673684,-0.00265905449702744
0.0573268875589423,0.0438164673587438,0.013881883374895,-0.0026974609151401
0.0700685494997294,0.0162197813257114,0.0161039500303236,-0.00246025635166763
0.0554610325067334,-0.0103690620711844,0.0160468403698878,-0.00136039159915273
0.0265474347965119,-0.0270993814469879,0.010346403724054,0.000485182221626369
-0.00600440228303977,-0.0263953229388289,0.00586014801423499,0.00234376651234788
-0.0388875862811954,-0.00477454810760968,0.00382685523163111,0.00346790160277825
-0.0558038041023423,0.0217246075819564,0.000820103887503207,0.00351422605333067
-0.0387963471053676,0.0291556828687054,-0.00181761288501277,0.00247197972845212
0.00764195839290538,0.0186453319460876,-0.00253709922204748,0.000451253410244655
0.0515400266788436,0.0107076110246321,-0.00200233972039456,-0.00193074139660656
0.0554839701368514,0.0110488112834756,-0.000431413349978982,-0.00352926433356877
0.0158853420019873,0.0139890176973268,0.00249981454634355,-0.00356996025768754
-0.0332203456602838,0.0149978995979806,0.0123455153650494,-0.00242492259284868
-0.0656733646468303,0.0146975309919607,0.0304755410484552,-0.00103388611185149
-0.0771325595402602,0.0146300001871809,0.040602658218059,-8.74985232262732e-05
-0.0662957394892473,0.00826846963897076,0.0330374589846757,0.000360075281478719
-0.0438603044723642,0.00350841626610376,0.0186496085249296,0.000990375497794329
-0.0286268678723978,0.0220307124626206,0.00807067319212909,0.00212244267467027
-0.0318343521267753,0.0564134543383944,0.00312145077394415,0.0029993836397432
-0.051419913091848,0.0705149070315263,0.00115642624018701,0.00279063359477402
-0.0621187964865298,0.0540528047792436,-0.000908688044653966,0.00163864621235621
-0.0399092273356819,0.0349838001613507,-0.00389092941444956,0.000271983300620216
0.00101508992164169,0.0295423968521435,-0.0064523626133481,-0.000846787317189015
0.0225181646461603,0.0252784390843181,-0.00713749726883346,-0.00160492808345413
0.00877514372302213,0.00911445824042995,-0.00591307056705495,-0.00213474707917423
-0.0227915803776821,-0.0128155557873617,-0.00396773514191095,-0.0025044292220492
-0.0477181318795918,-0.0234250097428313,-0.00119211628640794,-0.00257158381638164
-0.0612254103573881,-0.0178492230666946,0.00156910716776704,-0.0022270686409057
-0.0692344490886245,-0.00324404143630191,0.00441388354409851,-0.00157912304854193
-0.0677682117022717,0.0150329798258698,0.0103824989781735,-0.000633946956379487
-0.0530054746328527,0.03299725942006,0.0124585778915896,0.000803565114245206
-0.0317460376950662,0.0404879263560324,0.0020844608186223,0.00214761304038751
-0.00766875292254523,0.0377221658603584,-0.0115527608461044,0.00255246475639716
0.0194988981739146,0.0452289806084627,-0.0164019852947909,0.00218473310641427
0.0454731148484491,0.05917508503722,-0.0141019311929056,0.00174084446131947
0.0763782520130842,0.0523307141800964,-0.0110692521875063,0.00140755180740067
0.100907776873452,0.0341526674378011,-0.00762897238403269,0.000670353805868692
0.0898711454616877,0.0253669638250588,-0.00326090191000416,-0.000588121392256375
0.0546909870932065,0.011321560880319,6.46796382856793e-05,-0.00161570845666749
0.0139466974049276,-0.0149924931492444,0.00329481490264894,-0.00184270373406703
-0.0367178126485773,-0.0347276835599608,0.00675253631368159,-0.00143640334403766
-0.076363221720546,-0.0473142728275546,0.00962795151815372,-0.00102170508715473
-0.0763165741276966,-0.0654531101803235,0.0107720360488931,-0.00125656036060963
-0.042604943784125,-0.0875352437188379,0.0100854567091707,-0.00203216567008197
-0.0019211322629239,-0.101493716771873,0.011514440309306,-0.00241439469270045
0.0163722020546703,-0.0852378475750539,0.0150123316026933,-0.00190214148205603
0.00403256304996237,-0.0337826388139011,0.0157535782018867,-0.00104345702256684
-0.0120559320116972,0.0167113739830785,0.00873421976203247,-0.000247524581569977
-0.00797862129811695,0.0472980358204265,-0.00710116283258324,0.000722523227770332
0.00734365724262143,0.0865235988261668,-0.0175616907136201,0.00156793882119845
0.00823115626229581,0.118448014644721,-0.00835479385552604,0.00186262612819002
-0.0087343828256868,0.0937412272659782,0.0098850794843636,0.00191443852706385
-0.0270184938948628,0.0411889327606583,0.0167822662960071,0.0016857478497596
-0.0405170689237201,0.0127506357127201,0.00932201035969123,0.000786916071679315
-0.0397956277184971,-0.00403190326911561,-0.00045899498071799,-0.000318822010839192
-0.0113525014948297,-0.0328676970159307,-0.00524405125779073,-0.000775743611903369
0.0388594612765071,-0.0650813048677677,-0.00874992255739705,-0.000336921374738871
0.0912228275290971,-0.0889133215684862,-0.0147907681305731,0.000299890823066278
0.124719183090525,-0.0936054041062732,-0.0172667982159622,0.000139585870118127
0.120053840488009,-0.0648712922701466,-0.008860271427445,-0.000672540506295787
0.0779643132052107,-0.020559503653594,0.00344684798561476,-0.00104250304739039
0.027927274729043,-0.00450306010174782,0.00779877710834691,-0.000554722270881486
0.00178037673318127,-0.0172415210345352,0.0039620305111593,6.65024615714713e-05
0.000668028356458482,-0.0268613267724337,0.00018849038799549,5.56031464347612e-05
0.00342133372618205,-0.0250268248029788,0.00475174720378224,-0.000795438995657477
-0.00210738156719719,-0.0165074309274885,0.0158078181579471,-0.00214000490435369
-0.019330642940136,-0.00322572026238657,0.0233081073869162,-0.00302652224761822
-0.0423863536564741,-0.00443736207479681,0.018349995263871,-0.00283610044082888
-0.0460220017028871,-0.0366058937997395,0.00205205223291969,-0.00182589650620836
-0.0157379597722776,-0.0690981287820385,-0.00750035312488577,-0.000427905773669451
0.0178315090451604,-0.0612500179587692,0.00164793195987105,0.00146011250055192
0.017498606182433,-0.0214360924956506,0.0173055598542334,0.00388375304056244
-0.00565760743415484,0.00662539797477818,0.0217993148036311,0.00574322635477207
-0.021398461853782,0.00477992719351551,0.0084022869903936,0.00572707463495619
-0.0248567755814302,-0.00970236625458943,-0.0134871715923487,0.00368304609338261
-0.0292426381357274,-0.0193252461982081,-0.0238046484124195,0.000621869029921163
-0.0321297474557228,-0.0147926873193481,-0.0145074303574302,-0.00195781761633007
-0.0123283416318423,0.0120906320143263,0.00264562381596922,-0.00301009857059247
0.0171531248980156,0.057764058007123,0.0128471511864208,-0.00227818192515805
0.0212170262391613,0.0907182464234927,0.0131783683286652,-0.000341441476599376
-0.000217418147358213,0.0896983415888561,0.0116196487364159,0.00135357055164167
-0.0218463751906493,0.0652133904414871,0.0138952733503903,0.00157502525778869
-0.0166796497677485,0.0284342528155475,0.0156242823571399,0.000531756882419778
0.0135465958794225,-0.0112035410277219,0.0119220481611155,-0.000692299630312316
0.0324847136366141,-0.0449746781718845,0.00578061550671566,-0.00132365256110582
0.0210645598519169,-0.06899548884642,0.00260603215249857,-0.00136857950883125
-0.00424854453485699,-0.0820809273418186,0.00288943281668966,-0.00155141543447612
-0.0209726423311239,-0.0819208019863605,0.00299496719366792,-0.00203881148901202
-0.0259608435268608,-0.0640592946141902,0.000401311277951306,-0.00210950848094196
-0.0311194074127764,-0.0325286631012789,-0.00466913399632255,-0.00156561377431025
-0.0416311157112091,-0.000711460305658558,-0.0101613617153509,-0.000963682215946584
-0.04674040140505,0.0177801566862481,-0.0167447508348975,-0.000451224779351447
-0.0295529804113586,0.0179330209049097,-0.025075120874092,0.000467428188450851
0.00444411916442957,0.0128969514196456,-0.0278560886980675,0.00182717270380838
0.0244171013083223,0.0178611808882867,-0.0204049470575123,0.00322752576675037
0.0230118581631854,0.0200800213074698,-0.0110814021576157,0.00440513304600364
0.0188695528269399,-0.00171017620635625,-0.00570664686084007,0.00530250773232206
0.0151864502868443,-0.037100904198459,-0.000685521255572721,0.00602967289889695
0.0076880586486205,-0.0607751425859763,0.00485577183204403,0.00616367546258353
0.00976089354462582,-0.0618555290700405,0.0117090728234623,0.00483608300048354
0.0393205187374171,-0.039052775241411,0.0188869529554129,0.00132974119063123
0.0878216855807909,-0.00343059845438354,0.0214117987838994,-0.00429490279331381
0.116452035427844,0.037405248172006,0.0230758486122867,-0.00962206013537266
0.0840330645285269,0.0860361028563811,0.0282769098065102,-0.0113744804748698
-0.0092126992666394,0.125898480392189,0.0245009496826207,-0.00913175186298261
-0.102169908046332,0.129790430773019,0.00430801491394701,-0.00490739953269359
-0.125742581950877,0.0948960810675929,-0.0132723886623549,-0.000643158938581233
-0.0766175182481967,0.054302813936723,-0.0135798886420604,0.00262019016526749
-0.00614385823630649,0.0306109783096626,-0.00624584228000881,0.00464946605957591
0.0440137849308795,0.00956847316780791,-0.00537600034041215,0.00565960256934685
0.0637912363765969,-0.00993054754740792,-0.0108017086652938,0.00573468320293591
0.0623536285333837,-0.019418846834749,-0.0144563328423687,0.0048017949515515
0.0540958736537216,-0.0251269596634563,-0.0153609906500996,0.0027389590494582
0.0390707033571436,-0.0287235598654603,-0.0154738302430069,-0.000531297633339654
0.021825336706285,-0.0293985611701895,-0.0138192830906904,-0.0046584459357663
0.0212831829039438,-0.0195983306972377,-0.0114127562136104,-0.00862672435042809
0.0232142744689973,0.0173844580005518,-0.0108628327111996,-0.0107727728541877
0.0106487235720977,0.0615149058102865,-0.00755094088973347,-0.0100950042922693
0.000550007548347772,0.0699319002991104,0.00129113912355013,-0.00722199071842418
0.00258989764855275,0.0493976673258814,0.00968618186847015,-0.00368151057126568
0.0150332133074459,0.0233348290370754,0.012858865745114,-0.000326781573539985
0.0283312878806833,-0.00330663692682388,0.0111505215222078,0.00387353166477778
0.0272031319740324,-0.0223046473250562,0.00762441203938945,0.0104619295713184
0.0152550771401998,-0.0277571754715564,0.00107206274448286,0.0178218462851223
0.0112915172524671,-0.0184032372997048,-0.00688010983534715,0.0209044281960316
0.0269592315632792,-0.00455319807411277,-0.00973687741480009,0.0174988304177963
0.0540036997420375,0.00189286507507128,-0.0102624813131071,0.0110066708622202
0.0574007702333499,0.00317585972352565,-0.0143705958912257,0.00425165174867544
0.0137915273099981,-0.00517169853427361,-0.0184686443976856,-0.00346041661828946
-0.042242849493096,-0.0267801536246666,-0.0153421540420285,-0.0120803432647883
-0.0670078534679855,-0.0198683586648807,-0.00536364682856051,-0.0189484207304874
-0.0533208140088801,0.0513013381133464,0.00297566207161778,-0.0213374064202569
-0.0172272538279074,0.117149516532709,0.00650160577251235,-0.0190161045462083
-0.00131544533325499,0.104396650225289,0.0113034800913671,-0.013707539846933
-0.0312762132414689,0.0466892394953077,0.0126413688442373,-0.00707907741288955
-0.0727688163733236,-0.00235335199127383,0.00139815109666655,-0.000427893814875721
-0.0927498088756728,-0.0230020936576222,-0.0101329713232706,0.00588274929436446
-0.0940379368345162,-0.0353086834299285,-0.0117249931955668,0.012219570875766
-0.0759655806611361,-0.0694796622676232,-0.0113300372035212,0.0169934696181703
-0.0271274280698005,-0.106510386535817,-0.0147850960791305,0.0181394082675486
0.0393987576257709,-0.113088929718644,-0.021602286809838,0.0161727585275334
0.0704237954877945,-0.0893829637687538,-0.0255378564490718,0.0120774571732225
0.0422573236429152,-0.0595120113995872,-0.0233039934139994,0.00678569296110609
0.0148359002825237,-0.0337813700208347,-0.0180144841602128,0.00179076423744079
0.0287890803456795,-0.00567316266334414,-0.00858107378095872,-0.00145305906372063
0.0393749774525558,0.0168063280708556,0.003888786943806,-0.00138583427807327
0.0172503277466299,0.0230424193302419,0.00983454162626619,0.00184433127767531
-0.0124077915929861,0.0170199633466911,0.00371852201190792,0.00673112572564928
-0.0321341560245781,-0.00308445277381411,-0.00682067266840476,0.0124308214178291
-0.0362279214870935,-0.0217916016687266,-0.012132076583726,0.0165197501325401
-0.0240381038043042,-0.0165711488982924,-0.0112905313808029,0.0142981186221888
-0.00851375570976936,-0.0132605500563999,-0.0100180086325021,0.00436851107831846
0.00700884841054881,-0.017651485947727,-0.00909433593305528,-0.00758026055664116
0.0215679909500509,0.00331305643418194,-0.00191169603718445,-0.0138154896754487
0.0260436838157556,0.02423217006732,0.00750500333134217,-0.0122190706616281
0.0194966268314066,0.0156166987190469,0.0101381776452837,-0.00682197915624414
-0.00153612965311524,0.0104392823689291,0.0112747355496589,-0.00419624928526697
-0.0367901562055932,0.00885252105745432,0.015741690565142,-0.00882483354164223
-0.0630557920361853,-0.0173038886370218,0.0205385799223541,-0.0183918609341092
-0.064937322336294,-0.0471263356399024,0.0257197060136492,-0.0260529380401283
-0.0582027659118207,-0.0462038645893843,0.026805121630003,-0.0261700619867827
-0.0559207853831255,-0.017025468499355,0.0186416528291608,-0.0174461663161459
-0.0473988152576128,0.00770114073319178,0.0073780693940864,-0.00338462898383631
-0.0205368203964764,0.00735345187023422,0.00188637045694273,0.0110758092810067
0.0176358642279225,-0.00422170141952329,0.00141517226587597,0.022079983591306
0.0492291540239759,-0.0104358360707441,-0.00141969338644238,0.026989355308321
0.0659181172004014,-0.0118944877207299,-0.00510210211369275,0.0254265193866955
0.0697020070128308,-0.0112316064562286,-0.0037912311019248,0.0185834579524262
0.066825125923824,-0.00687874688455868,0.000141565132013141,0.00888523439392305
0.0592456223877252,0.00332321290621024,0.00137691774446889,0.000304575343075784
0.0409682581345756,0.0113615244386164,-0.000165181181829586,-0.00444429995433331
0.0132139850422327,0.00798256591643085,0.000781226216393524,-0.00592709670312259
-0.0108151116732531,0.00252785543308034,0.00720795200123516,-0.00684090713151442
-0.0219779843453098,0.00392061056362047,0.0133229952341669,-0.00921903673805689
-0.0240032547591222,0.0149721367253592,0.0130778420586709,-0.0126702180579072
-0.0229386739875503,0.0376918342749842,0.0109934212373499,-0.0159368908233201
-0.0185441375590811,0.054924999034821,0.01222116660413,-0.0180187846853883
-0.0110109254185719,0.0511092900788364,0.0125441600637846,-0.0180153718928338
-0.0109701355654798,0.038313547880954,0.0092862756746026,-0.016496317993188
-0.0226739927716059,0.0275339565075953,0.00767479605890802,-0.0151890453115459
-0.0308687712721864,0.0188949279082549,0.0135749986747211,-0.0147375301512105
-0.027221034749867,0.0108416466192326,0.0252793941961814,-0.0140690764697406
-0.0204729684666168,-0.00394339496618812,0.0298957551985052,-0.0121770726113846
-0.015925208808485,-0.022623676366372,0.021530756891229,-0.00956028986103397
-0.0105206671080918,-0.0325809258746303,0.0104728255577103,-0.00681126864852927
-0.00775072346530679,-0.0317695788928987,0.00415141252817894,-0.003445939421729
-0.0119375623111861,-0.0304625449188512,0.00105200306817255,0.000737864306175723
-0.0150449245758217,-0.0329319145822208,0.00114714827531702,0.00469172510580992
-0.00749208512952433,-0.0320821330060447,0.00489735507470383,0.00726680909627797
0.0129435698775305,-0.0247795340619474,0.00820322270905827,0.00822520917653609
0.0260736233185009,-0.0136760140968734,0.00756588256095716,0.00808799203864263
0.00100313421063901,0.00484476429101374,0.00379679968075125,0.00734069709561844
-0.0498680574769099,0.0300724729206642,-0.000688288317374794,0.00626872839982793
-0.0788924355920579,0.0463789227814461,-0.00337489943508083,0.0052637074702742
-0.0634165832524283,0.0362062362447209,-0.00444862671064411,0.0045032617725322
-0.0273341667612165,0.0030597765200911,-0.00621811554016329,0.00377333163451087
-0.0100935635107105,-0.0239291474914477,-0.00719909570236107,0.00266599167623848
-0.0191867630198631,-0.0301992739140444,-0.00505803056343674,0.00138532219397635
-0.0324435936668927,-0.0291980558503061,-0.00385359693472339,0.000703988605628052
-0.0322696621343945,-0.033593319796492,-0.00913027476308643,0.000423435599977066
-0.0175050182338029,-0.0377199579651303,-0.0162031066963204,-0.000392736694330169
-0.00124307252235529,-0.0271220941411708,-0.0163756861409182,-0.00140743567619894
0.0166069627728734,0.00228726653100985,-0.0104048046366677,-0.00147909714625425
0.0419332407670992,0.0367606639467373,-0.00475689923426066,-0.000348874224390073
0.0428092224163655,0.0601110270675018,-0.00278879195804481,0.00155199850985818
0.00454133398103747,0.0626227317065229,-0.00177025720756892,0.00340560662730338
-0.0290136550031104,0.0473518519774004,0.000738575385571462,0.00447806427426384
-0.0324004965497004,0.0373193673826546,0.00149398258215913,0.00481387115778987
-0.0227505164855439,0.0307792329902595,-0.000257120496683212,0.00495533929879829
-0.0172127650084318,0.00639270973071462,0.00159444317661123,0.00516325215495415
-0.0165712383647816,-0.0231390603515828,0.0102578688949195,0.00548842090492003
-0.00967104352025631,-0.0324209154752824,0.0139810237387901,0.00625396406335976
0.0119600188977704,-0.0282459624612753,0.00568101215384959,0.00735087718587843
0.0390384180205569,-0.0388396987361172,-0.00362583245244025,0.00823442295598608
0.0591810641782503,-0.0569278186545313,-0.00587510245924309,0.00876708786502413
0.0644617763271748,-0.0477666272472018,-0.00464672377072926,0.00891881173923522
0.0402225351691568,-0.0115613717000295,-0.00488899461418053,0.00853444004123815
-0.00316652542112229,0.0254402575629617,-0.00528295655660149,0.00755700884931907
-0.0291350696648349,0.0548761945229722,-0.00488763452455423,0.00621039037558975
-0.027228472368412,0.0741438481760634,-0.0038559008390297,0.00507964761331412
-0.0143000018404716,0.0696411719624423,-0.00253581911797437,0.00427720820202915
-0.00209975218527938,0.0466137145571261,-0.00187656412248083,0.00341668469322767
0.00625893347227731,0.029579602005839,0.00114069927528915,0.00248461798025262
0.0113510953338835,0.0249816968420908,0.00562477239743695,0.00163304450809278
0.0164126746109538,0.0210775551333121,0.00534702186551415,0.000852713376079554
0.0224130068626366,0.0149419720079048,0.00119894303563936,0.000188839467805105
0.0321843561417079,0.0108996752470706,-0.00103064089675605,-0.000298289160590515
0.0497347758915708,0.00857102987738574,-0.00108971361205913,-0.000567839025464254
0.0631844617825997,0.00588522705718675,-0.00235193454866707,-0.000343437545402822
0.0618257232011499,0.00334123088809364,-0.003085101282273,0.000362271385684908
0.0518594571139757,0.000659488695224525,-0.00238451987226124,0.00100775229964794
0.0391163983600666,-0.00409930482294897,-0.00339738569805752,0.00143300395740137
0.0270784659474854,-0.0108885625548077,-0.00472493203587514,0.00168254622826458
0.0181624783565929,-0.0163595134832242,-0.00404189858213933,0.00150203864893354
0.0115265758813168,-0.0157302000970564,-0.00280863472894779,0.00106214596746971
0.00517871948896351,-0.00994534668084427,-0.0011318784898025,0.000721124387633519
0.00231973790218346,-0.0061269770887063,0.0014860001975472,0.000220455337298286
0.00456384257884251,-0.00558760448135971,0.00396448271153203,-0.000529525731726369
0.00476173313640004,-0.00577284732233185,0.00490182295998404,-0.001099851173924
0.000551885388975087,-0.00237684936391452,0.00438094391859749,-0.00164897798771221
-0.00678713736621751,0.0112686641968528,0.00502590051692593,-0.00256289193835592
-0.0179717294055367,0.023238175679192,0.00520901324808405,-0.00358673131538802
-0.0241819250682552,0.0144853539708151,0.00289138690239141,-0.00446864792353922
-0.0139354317583139,-0.00094097268522448,-0.000429136817710502,-0.00493866382975856
0.00873468269904287,-0.00105360848771823,-0.00437237258817359,-0.0047014121764964
0.0300125725216281,-0.000463316987412901,-0.00803094646025655,-0.00401669869534489
0.0444617007845898,-0.015114013645424,-0.00993747915926627,-0.00336114665585724
0.0515658061029141,-0.0324979320019217,-0.0102125108065463,-0.00304504416954368
0.0495308204811671,-0.0395987768648415,-0.0111382351513845,-0.00303489696824006
0.0427149380652705,-0.041434583347878,-0.0147200306518659,-0.00306999400242424
0.0364983563248716,-0.0444852069266974,-0.0188148242683307,-0.00289995322043
0.0328111605227331,-0.0469483390925377,-0.018506665468588,-0.00235529531611737
0.0302466895932899,-0.0447242137700971,-0.0115864803598367,-0.00129948656342031
0.0205955546128407,-0.0216956631615505,-0.0019132114587691,0.000226037191649958
0.0012835735932684,0.017034495989128,0.00509497924028714,0.00161723376683352
-0.0113583094062262,0.041562704656543,0.00814493289886268,0.00199224963746255
-0.0084262537748884,0.059100007544209,0.0080496238832973,0.00112886353126006
-0.00154254364292958,0.0730619607983756,0.00225781881188086,-2.38624808918892e-05
-0.000112468617066762,0.06145490111593,-0.00986549501508957,-0.000680378175517931
-0.0026415050849413,0.0323524385322609,-0.0235468149774608,-0.00128511243084812
-0.00480390921308829,0.00651372358512603,-0.034925714405581,-0.00245789045531645
-0.0154914371989265,-0.0074511339837347,-0.0394429096644067,-0.00379331712694743
-0.0420797266445484,-0.00873593611894541,-0.0347162647834959,-0.00442333541192475
-0.066628074540174,-0.00602324922214303,-0.025006140675127,-0.0041155596612854
-0.0634139397808507,-0.00807828637237761,-0.014938725885818,-0.0029356439292531
-0.0353555211907344,-0.0147476291319616,-0.00325974775060006,-0.000855742711951291
-0.0119299866076473,-0.0269052600354923,0.00695763379399903,0.00162001474834971
-0.000127343091136989,-0.032175725131045,0.00682870003555186,0.0033248520630733
0.0196254812684267,-0.0238072720793245,-0.00112249162634446,0.00330238052365894
0.0530336041576428,-0.0349462936247545,-0.00843251728884373,0.00162872524337667
0.0886297847557167,-0.0674031752319662,-0.00704585449816327,-0.00040185051906226
0.112073659787441,-0.0791680022874477,0.00528242951754165,-0.0016157539898538
0.111459938354547,-0.0638812419159175,0.0137619406592135,-0.00215341163712372
0.074763605419023,-0.0462318802077332,0.0077356774462301,-0.00240112146984611
0.0110091121800301,-0.0357395244019283,-0.0048677316305474,-0.00216634382488976
-0.0469036059638379,-0.0193094761526563,-0.014526676801508,-0.00132730579227758
-0.0797523073474559,-0.00135622094802675,-0.0213028960600181,-0.000199611921353078
-0.0711962352693272,0.00666455982291884,-0.0244867784299419,0.000961513997278202
-0.0233053757040409,0.0265485618993221,-0.0181443340634064,0.00218206689976925
0.027188948237712,0.048402294995991,-0.00986984163653617,0.00315888891433862
0.0495896272495173,0.030168104409238,-0.0131563350501787,0.00311105260357385
0.0454147484528562,-0.0133896514987176,-0.0232433324499512,0.00161109141466148
0.0431967503196909,-0.0395180553247666,-0.027879627078791,-0.000621406160179279
0.0572932986429085,-0.0447777348672335,-0.0213363458452979,-0.00237130972740659
0.0719621302709017,-0.0406389587350613,-0.00855974567172527,-0.00289826664236285
0.067085110951311,-0.0218578889750994,0.00110934526518713,-0.00218989593316306
0.0416390194452399,0.013553601802984,0.012316895041749,-0.000850260584342546
0.0116188153678578,0.0636902590206115,0.0280754373089192,0.000719512349048704
-0.0138813122341376,0.100422123817837,0.0365174654604555,0.00229327517329825
-0.0328254407999394,0.0726819272529448,0.0295062350051337,0.00309649462797723
-0.0434067401990949,0.00872197313617668,0.0181824016420552,0.00238897744483444
-0.0590153941510076,-0.0243629114594457,0.0127793301358568,0.000806709099761884
-0.0927214727914435,-0.0237401015798069,0.00635485401226846,-0.000200471779905371
-0.121124198794963,-0.00537938421895252,0.00366117287011353,-0.00029686897592653
-0.115351637309028,0.0165393032566456,0.0157130619995992,6.16529714811334e-05
-0.0850699704614587,0.0101647236776011,0.0297812827565448,0.000724009106325228
-0.0502794292825378,-0.0313320323415252,0.0268280311520618,0.00160813909375285
-0.022750236511144,-0.0759706977860438,0.0118957274815011,0.00203398745427652
0.00124407330175527,-0.0934469377489999,0.00048474958316206,0.00110153041554303
0.0417219908067345,-0.0800500771435045,-0.00424332424192615,-0.000767080153688248
0.0851490274934186,-0.0519915566650161,-0.00467417883172878,-0.0021794809271764
0.0926352847864413,-0.0224339815709162,-0.00198593923707967,-0.00234380916715466
0.0612641873294632,0.00222385588189217,0.00252719286730821,-0.00127561964279718
0.0199907201138582,0.0176646132431051,0.00690154363083005,0.000334248484836719
-0.0113172236365794,0.0219944882931151,0.00841196498634201,0.00128849088721162
-0.032444546655254,0.0178248438500267,0.00806622959702701,0.000872995968302765
-0.0436548038791323,0.0156389161442164,0.00952783899218974,-0.000658560197904031
-0.0393515245625349,0.0286661271338305,0.0133303459175059,-0.00232144009036711
-0.0261813231625993,0.051459105687031,0.0178849352087322,-0.00303206046751557
-0.0140037569753843,0.064160082931401,0.0214936272156079,-0.00267967393708053
-0.00885538658622381,0.0608223037442048,0.0227814903960321,-0.00171276861294629
-0.0202635058907864,0.0460046862468792,0.0206051767852779,-0.000452194970083791
-0.0423707233546988,0.0360832707456718,0.0154139749849359,0.000601859594207888
-0.059073495224553,0.0375916462625467,0.0119329219726208,0.00102787752965255
-0.0665384530818207,0.0326461627858302,0.0118076410375641,0.00076556897730287
-0.0677947621008818,0.0195029655376744,0.0122929928593351,0.00026149347445876
-0.0642396268744157,0.0102070043693963,0.0127176195368769,0.000167988305206865
-0.0603135597665327,0.00562674342870724,0.0135574658518432,0.000615946953304129
-0.0607885099729172,0.00355346477988786,0.0150181682106029,0.00125612827362364
-0.0582988061632098,0.00310963963626136,0.0141481206393676,0.0014586992831705
-0.0467130241306159,0.000352069016348456,0.00811449669101019,0.000778360692261908
-0.0335459732985351,-0.00376405685978465,0.00173264633163654,-0.000769381140265267
-0.021705309834353,-0.00274140339971881,0.00030340867376388,-0.00261283958039642
-0.0101153661741609,-0.00658025641980022,-0.0016914919134683,-0.00377227864397022
-0.000798469887432672,-0.026336661180027,-0.00884518065965704,-0.00402516262405101
0.0065385777374004,-0.0425350669490464,-0.0146040590828202,-0.00385288603230493
0.0138286991868152,-0.0388342524426128,-0.014337870944655,-0.00314956426211035
0.0221345326612107,-0.0261776864788517,-0.0110670877378562,-0.00146810429446048
0.0284799513872141,-0.014802047755641,-0.00848706587441021,0.000576682635273325
0.0297740379393546,-0.00580947567186368,-0.00677000265653451,0.00175873533454623
0.0292989165764868,-0.000944592411136522,-0.00436575357733477,0.00188730860842833
0.0299195187129541,0.000641914428849116,-0.00226591543617767,0.00166990295263655
0.0277841123962836,0.0032912341725828,-0.000667885548682159,0.00139363699154381
0.018432867939955,0.0120682169084803,0.00190422268587452,0.000740230345960581
0.00528058180336615,0.0241281386224427,0.00355797191565733,-0.00025881098700285
-0.00436630305991185,0.0272961223444575,0.000728830631979141,-0.00115587383809351
-0.00870738023412067,0.0191527980038719,-0.00761230033017402,-0.00155021517004316
-0.00532466120996544,0.000464547323692045,-0.0183719772129921,-0.00126603382941517
0.00834516199396966,-0.0306031639224764,-0.0268578564044465,-0.000656592132781496
0.0276421792947612,-0.0629040699364813,-0.0303553477868613,-0.00031864100956173
0.0366508653536691,-0.0756572642509588,-0.0283074850745473,-0.000581598476655607
0.0187337135510236,-0.0625093446270601,-0.0208047573447374,-0.00109335916357785
-0.0159784683649115,-0.0463724130459767,-0.0105847348978632,-0.000851011561626158
-0.044193033984547,-0.0344107785058956,-0.00162131969079867,0.000463768505004941
-0.0600173575713698,-0.00246831673840284,0.0075254204979725,0.00201097742919993
-0.0653670649759047,0.0386028491785358,0.01633899316186,0.00318145107850904
-0.0610764863286194,0.0418890855267095,0.0178750834017715,0.00349781848365259
-0.056875854949986,0.0123227183171543,0.0115086057727143,0.00205957296181797
-0.0628946617217609,0.0151234624832812,0.00572536382880852,-0.000738940036846184
-0.0754260539990264,0.0652395624205194,0.00400430344268481,-0.0033364698026596
-0.0658378746082775,0.0956043512498898,-0.000112533297901962,-0.00488033469189517
-0.0083009396305737,0.061611732131954,-0.0076525763902569,-0.00512665730760168
0.0612730826689658,0.000623507344817836,-0.0103550241409721,-0.00396749252872023
0.0896279981433823,-0.0368404239283335,-0.00383565551870414,-0.00156498304208194
0.0777780546600414,-0.0438947400396006,0.00371663920220189,0.00114338068532773
0.0591517773391312,-0.0320974367517905,0.00104957390704182,0.00260583662628822
0.05122800024971,-0.0109268706560994,-0.00754790951363364,0.00233172200754189
0.0468352956148111,0.00986585950818012,-0.010367645540842,0.00185692960304405
0.0408244066585329,0.0191800001627277,-0.00657475512600614,0.00388758678192484
0.0279869897394101,0.0110696843780565,-0.00181697800559129,0.00985734551908805
-0.00106269487799605,-0.00986073097290333,0.00194269854213433,0.0165414518377105
-0.0374401738251105,-0.0242765022887785,0.00374763718435015,0.0172240653691845
-0.0622590235343889,-0.0155304072756374,0.00373072549128746,0.00904907729007511
-0.0634608181430271,0.00401119975462558,0.00459949037651152,-0.00326938842443188
-0.0400959797207111,0.0160492513002299,0.00468609258418189,-0.0126757281053915
-0.00905339473675219,0.0228114260820137,0.00207462806942037,-0.0158504555631919
0.0154732195942261,0.0303730340917388,0.000188563909485818,-0.0138016361799659
0.0300496067286906,0.0406914175160847,0.00320330673421809,-0.00917546196930673
0.0259944444976962,0.0530040449197981,0.010706365099212,-0.00403458616886691
0.0114802552297704,0.0593095474978794,0.0164797754886991,0.000380858070816994
0.0108067638037112,0.052582561324231,0.0154557343433684,0.00335684509460405
0.0231964249791396,0.0351623050233023,0.00862687749567912,0.0048097252629368
0.0370066001181895,0.0165376065056695,0.00206807368451891,0.00512504165605319
0.0474439785663617,0.00187968250401285,0.000361919666285945,0.00479600066849992
0.0440624348107978,0.000876968396119668,0.0015827866746475,0.00424601413084992
0.0241433432199339,0.0169439634972042,0.00460977105358797,0.00372069683602053
0.0023595755997304,0.0248445221243557,0.00769480792232901,0.00350597608270914
-0.000765417988457723,0.0119725977419807,0.00422782256472702,0.00369473832303624
0.0175244167280124,-0.00322589831083482,-0.00385193326541906,0.00385848478856545
0.0419179013358624,-0.00950980454951957,-0.00747634413391207,0.00358322655589466
0.0627895331928731,-0.0175836581467885,-0.00610715856158566,0.00244721193058274
0.0735767480322523,-0.0318442391719513,-0.00280009003962478,0.000271940113836906
0.0673870789216901,-0.0380289813566263,0.00183745693992439,-0.00176965371894425
0.0514255025015417,-0.0323439435375805,0.00323784386592487,-0.00248931052964509
0.0356789703355256,-0.0238223851438039,-0.00165908947074136,-0.00227861733658467
0.0164934962270403,-0.018517944175037,-0.00830034414226732,-0.00208070851217771
-0.00260209725482329,-0.0110697496864933,-0.0108857759151454,-0.00261206841899963
-0.00698534628937583,0.00910051721756947,-0.0110582536884252,-0.00354557771936554
0.000421714696622496,0.0264590041871066,-0.0157132041822254,-0.00380150651726197
-0.0011670306455534,0.0222365025985547,-0.0218772583391712,-0.0032956492404196
-0.020256446812595,0.00864829212281669,-0.0232648940275076,-0.0025075995640993
-0.0380632775023991,0.00578190605797014,-0.0200834408752747,-0.00112263870328153
-0.0346218477541086,0.0209344645379457,-0.00972975614065739,0.00121941377395552
-0.0106175324868931,0.0339666167412139,0.00549396003824135,0.00404624215613707
0.00304676204266408,0.0184819842302869,0.0144426744589775,0.006135983157699
-0.0250607029931412,-0.0161212590950733,0.0132221242732246,0.00571126840151663
-0.0694741927093428,-0.0359427223726649,0.0111962563753771,0.00258956102260984
-0.0891115239191296,-0.0275293302875948,0.0141227572999068,-0.00119721798847998
-0.0853713134183609,-0.0185086528299909,0.0126711372418865,-0.00352594288066103
-0.0740569675946623,-0.0231336743113464,0.0046519554906331,-0.00391382432075614
-0.0469224024232294,-0.01893328435552,-0.002541753755571,-0.0038476021954793
0.00431963108528603,0.00180743329424453,-0.00807413352970576,-0.00451849708928161
0.0557942046246813,0.0266661592669898,-0.0134423423004531,-0.00545190309976795
0.0837480589425361,0.0352297082331861,-0.0150850318712227,-0.00560685584279445
0.0882104223772196,0.0100731104755974,-0.0110846620020436,-0.00461560938271478
0.0827506417930018,-0.0312421238333724,-0.00848177656914555,-0.00277552645439987
0.0845592377662327,-0.0578015343649977,-0.0101098980023814,-0.000410957052741761
0.0827120093279792,-0.0672323071659641,-0.0134068788402006,0.00174312651928942
0.046237329793833,-0.06802640693871,-0.0169238395622851,0.00260374854882139
-0.0142071370331642,-0.0630185036570199,-0.0163719703701169,0.00184892541550756
-0.0622595373646108,-0.0538023968606023,-0.00831280682178608,0.000527831030592853
-0.0917114855988107,-0.0298089363751834,0.00221239830328916,0.000238135531149209
-0.111148128936059,0.0176871205395766,0.0111217753481555,0.00101880814927197
-0.121625415023595,0.0741723525102123,0.0210780927573835,0.00146407926194135
-0.121280358264882,0.101645213058757,0.0299826426581903,0.00144258952227532
-0.10260970215825,0.08162152047115,0.0291068912768289,0.00174817525537991
-0.0617036213809075,0.0524161315736237,0.0141685532326404,0.00212662912443177
-0.0075531683428178,0.0324784103426847,-0.0039039804450297,0.00204643680808302
0.0457843128083556,0.00153642096537075,-0.0124275223508297,0.0014668165164457
0.0795114607223111,-0.0266440093720348,-0.013443715598999,0.000816928454540613
0.0837949376491661,-0.0255524699610372,-0.0127607309314517,0.00054644466625775
0.068397125511403,0.005230308151566,-0.00865799005212522,0.000208743248055521
0.0404906637966909,0.0431601704267692,0.00329377963941168,-0.000752924869928175
0.00611141917430664,0.0576869815915148,0.0233788054658775,-0.00209239196274413
-0.0141822249888728,0.039319756605446,0.0427469955782804,-0.00308589515221615
-0.0122036195884617,0.00363827250898457,0.0453984711880445,-0.0029299469111995
-0.000851969017454171,-0.02713596188466,0.0283076685411583,-0.00154109316173479
0.0140535432751554,-0.0412136556006468,0.00654158731559086,-3.48806802101254e-05
0.025245188736671,-0.041544088160367,-0.00731466052024506,0.000514124811649158
0.0237404128011755,-0.0389699644936305,-0.0107661871419559,0.000401134338693541
0.0144157995581784,-0.039748302388707,-0.00935256686780059,0.00055746094628374
0.000739209553100516,-0.0383345839856061,-0.00793289865102558,0.0013123439125938
-0.0143768895696487,-0.023861741029975,-0.00542540068164676,0.00249701768897255
-0.0185797653132866,0.000815239204377247,-0.000895076064093062,0.00364080299770394
-0.0152897752498254,0.0209710805688571,0.00326204698860869,0.00410417753915772
-0.0196580387730888,0.03776168107796,0.0044759437232912,0.0038259906989987
-0.0138435692614349,0.0519109691403449,0.00550488882923586,0.00337629935527649
0.0202288854341369,0.0509917000112673,0.0107252703573977,0.00339799749799935
0.0525159752839324,0.0350065363431945,0.0179531115183489,0.00407536620680226
0.0513460626709934,0.0182066463474328,0.0192025788170421,0.0045499195304164
0.0221840350477584,0.0148714094138929,0.015801957574673,0.00367541971500771
-0.00985576400934671,0.0153204744957942,0.0149339127477045,0.00149084571377901
-0.0232528453866222,-0.00200815243118018,0.013022986786932,-0.0011605495369958
-0.0218764475900151,-0.026499830794688,0.00808790013399211,-0.00325965960031008
-0.0280849703319708,-0.0381733556508842,0.00773382347492249,-0.00361267082168341
-0.0413470516099662,-0.0393606744679324,0.0116442508025898,-0.00210718698213273
-0.0438723991283377,-0.0412020062560367,0.00959504497991598,-0.000189896168084578
-0.0328460936738757,-0.0492782878499173,0.00010394824380649,0.000346606590647862
-0.0177864865947557,-0.0564366625084973,-0.00569935456584095,-0.00131366290749529
-0.00973573482223722,-0.05350822940671,-0.00278913823340258,-0.00443435304687662
-1.57896856696187e-05,-0.0407867251401867,-0.00133194331129146,-0.00737030599174184
0.0230367344243905,-0.0238147134589691,-0.00695405018046328,-0.00793297971034179
0.0416085079502395,-0.0017933969790481,-0.0114689577901462,-0.00497451779074667
0.0472684209803887,0.0241407057161894,-0.0131291308969763,-0.000633735661982302
0.0612206511128419,0.0367968417204754,-0.016793572558371,0.00195062632120231
0.0824696216027788,0.0394732629522841,-0.0181060563794524,0.00201717362005543
0.0848772550804213,0.0535470907897171,-0.0104643766642675,0.000736348785413196
0.0611969668141714,0.0606030649549446,-0.000866432849528906,-0.000650314344416593
0.0242474246018174,0.0275371700378905,-0.00112830898570315,-0.00133222855883018
-0.0108714564286468,-0.0338169977788588,-0.00547612956851773,-0.000926288932182302
-0.0396120260078443,-0.0623958059100214,-0.00229538720037847,-6.0286255138283e-05
-0.0632119582210206,-0.0255880096618425,0.00641837647572516,0.00103813796545589
-0.0743633215849091,0.014925542396102,0.0103893572202803,0.00373760966826989
-0.0624002013756186,0.00218333769843588,0.00840797218052833,0.00782149867381595
-0.0229891702876853,-0.0407586805961879,0.00777731667023552,0.00965160283563153
0.030611902240253,-0.0698378912284738,0.00727548728017788,0.0057808477298879
0.0616475729288176,-0.0707389054713917,0.00200070946611999,-0.0017201452019347
0.0533411312252194,-0.0594398470547432,-0.00473569586906619,-0.00531996586596134
0.0361233493655345,-0.0437028648545135,-0.00173148669934195,-0.00149088512783903
0.0285003810292973,-0.0139962861890105,0.0101284063586892,0.00406684963754377
0.019851692163424,0.0111384393729517,0.0127386206610821,0.00443899756724699
0.0218290194828484,-0.001839884392802,0.000136829637428681,-0.000963804831773574
0.03951248611834,-0.0237166793364525,-0.0120377810890746,-0.00783099642097466
0.0405103980466785,-0.0107432644398096,-0.0120872785724399,-0.0117437571687659
0.0160251649596001,0.000124033923632888,-0.0100736329868808,-0.0110925873084593
-0.00363280519046183,-0.0188809601674967,-0.0175633010925079,-0.00724065367016844
-0.0102489318083146,-0.0218047489918606,-0.0282042582020926,-0.00278390056714722
-0.0343824346433637,0.0230970051306679,-0.0290498761319339,0.00025211194720692
-0.0754369094520404,0.0941241859982068,-0.0178250334881726,0.000933813146869967
-0.074079890733484,0.132825853615465,-0.00627086379440145,-4.98420504309073e-05
-0.0181681732393578,0.101524947486662,0.000564031491312799,-0.000356621036458642
0.0183496340106109,0.0382094879491937,0.00567628163292442,0.00163902902981473
0.00947856847529106,-0.00827365866416704,0.00373650552062189,0.00510747588304454
-0.00128786327430914,-0.0370205961791344,-0.00205633902733139,0.00851809389556378
-8.11431765749236e-05,-0.0556034319115114,0.00125828637763699,0.0113918804598387
-0.0013248364812708,-0.0614847969281832,0.00653534979202953,0.0132434405787341
-0.0139317311968163,-0.0588896114352811,-0.000836903018943131,0.0132187772213292
-0.0287367214806739,-0.0531979581699913,-0.0108522575035893,0.0109602915916437
-0.0254451808405457,-0.0445695689795846,-0.00834874100199613,0.00707205833450377
-0.00837409438913872,-0.0351989539449194,0.00188834859264288,0.00289550971767126
-0.00348149952617736,-0.0278824336375419,0.00698635875900292,-0.000863196551687871
-0.0226895755107617,-0.0166071883547736,0.00282774138359973,-0.00410434630300034
-0.0529836342810119,0.0135301668769312,-0.00271155143515886,-0.00661135121872342
-0.0762703911019819,0.0557210563231777,-0.00287009981051109,-0.00854787200683255
-0.0886192554295892,0.0710480078365091,-0.00198393432042011,-0.0100072045787184
-0.0884341673250989,0.0537769576167611,-0.00296744803181676,-0.00987296154977444
-0.0737084612061391,0.0267625002053471,-0.00268248754802867,-0.00723022451342557
-0.0536766881720949,-0.013350023229153,-0.00510253915534612,-0.00431142002226053
-0.0329542733913298,-0.0521002851130319,-0.0117881039631786,-0.00493890163367711
0.00309226121725542,-0.0505733609454932,-0.011842586774234,-0.00866166743554885
0.0409701224177417,-0.0103927541669225,-0.00132311493267992,-0.010250852281701
0.0288973476454056,0.0239579882677573,0.00972946005509062,-0.00637982752668812
-0.0210437498497552,0.0216788083601795,0.00859324228719496,0.000300589858478358
-0.0405355849952934,0.00976530169795064,-0.00326738556445229,0.00464985081196575
-0.0169164983038761,0.0313777127554956,-0.0119785707504691,0.00505417171824681
0.00525528292763051,0.0785737731217513,-0.0125628303171788,0.00454843103706032
-0.00231190723221232,0.111133598324994,-0.00938535526312415,0.00694472461515908
-0.0183989991842497,0.0922484969997469,-0.00809607565121345,0.012876970664163
-0.022310791223878,0.0234122810797149,-0.011626713383937,0.0178266128081061
-0.02238697647332,-0.0348550730830361,-0.0110122828756464,0.0151979777886137
-0.0204118938851011,-0.0418407734348014,0.00279922840937352,0.00397991288873642
-0.01351604277755,-0.0165394956104318,0.0235910872137559,-0.00962475264776358
-0.00160560979811547,0.00293023461951864,0.0388773065829882,-0.0189415255439929
0.0153064587554972,-0.00783053155084739,0.0345075970886139,-0.0212983187688079
0.0200008512308451,-0.0336054111195735,0.012118842799681,-0.0178882657787026
0.00325093275687605,-0.0440359767890965,-0.00749290029019416,-0.0122762765670443
-0.012359212078432,-0.0275863724885665,-0.0158904528117344,-0.00710447878442835
-0.0104470947157491,-0.000112535220004775,-0.0169126377358322,-0.00273293078148326
0.000846052745853781,0.0126791387513259,-0.0104210332742878,0.000745356907667934
0.0133135372201212,0.0110753195485642,-0.00193736080023785,0.00271015025506305
0.0362385328488425,0.00843772320503141,-0.00124289217364228,0.00287192679831817
0.0781401757681966,0.010428575930137,-0.00609056830763854,0.00183303239692666
0.120640548069304,0.0193779113447428,-0.00559147983343106,0.000637308784682746
0.130197457433448,0.0322070717712537,0.00344924312052002,1.12006154723157e-05
0.0946630402201206,0.0481080121419629,0.0150955410632896,0.000136653865613609
0.0417166812781167,0.0697869195417433,0.0264874896534895,0.000612569049067801
0.00440206048384988,0.090503290612053,0.0378182727860115,0.00109292378431912
-0.00783868349437468,0.0943069274354736,0.0445112114894726,0.00171152579187321
-0.00271894633093371,0.0746106452729577,0.037026831652381,0.00250067297631185
-0.00231583483270679,0.0429956576938327,0.0183418113665124,0.00300607999086374
-0.0245720316372023,0.00614980691894798,0.006108044682689,0.00278188573056614
-0.0536018327560989,-0.0347631583240236,0.00493841475848035,0.00211358736981564
-0.0521034344126822,-0.059220418886524,0.00389112967845558,0.00174193659685485
-0.0142569544135121,-0.051148431425064,4.6492480334029e-05,0.00192325587150571
0.0265204916045914,-0.0334273313133798,-0.00068930032621718,0.00220766992976547
0.0479875624116579,-0.0302732926001186,0.00102548895129711,0.00203327555678293
0.0545371749349094,-0.0322798491235462,0.00263018170291006,0.00145338785168763
0.053199256484133,-0.0274033853037391,0.00631114643656469,0.00111643223403061
0.0515004733212654,-0.0185219425636856,0.00867295487134068,0.00122488208548087
0.0556130834178323,-0.00971193434833578,0.00484566342608385,0.00126699141548522
0.0577285306940972,0.0028887013718446,0.000205602244924187,0.000789769793379547
0.0472012583699309,0.0326838816634714,0.0016445479044132,-5.93247952375645e-05
0.0243708631970053,0.0657440428510354,0.00771550817408991,-0.000334708368539002
0.000806630047902955,0.0577378243742801,0.00917827388932858,0.000659797869073677
-0.00956158650974182,0.0166179059984358,0.00359447739649134,0.00221433372204669
-0.00949884373751298,-0.0056221154000349,-0.00270327232761543,0.00342607796979562
-0.0135012381329491,-0.00115511282713741,-0.00844661817983163,0.00401416102390501
-0.0245803629344862,0.000472400033238413,-0.0105794936842201,0.00380382411852534
-0.0380033012744517,-0.0145852770842864,-0.00604141441228795,0.00281947669644874
-0.0463172789602902,-0.0342435457046369,-0.00181174315488069,0.00140207201831917
-0.0331853845544563,-0.0439124155604587,-0.00239888502600161,0.000134639526769072
-0.0012638028851286,-0.0450460353565964,-0.00220281425825919,-0.000881941643995249
0.0212485588844109,-0.0423142797634529,0.00258233444013194,-0.00202818599630443
0.0253471664833601,-0.0360793355750174,0.00533760618169814,-0.00273880676743443
0.0225158583778763,-0.0355668369290634,-0.0011814336100872,-0.00213726797862252
0.0208207400920308,-0.0440664263420442,-0.0121419081966507,-0.000547064331095383
0.0213841221066562,-0.0458079785016078,-0.0164157840130726,0.00177617517141491
0.0191759398554938,-0.0380682720752461,-0.010218723452943,0.00578997449368395
0.0147285142866459,-0.0308577597860043,-0.000737689358094394,0.0113170186797658
0.0081041710409567,-0.00916091534598277,0.00459391770688251,0.0148261755810625
-0.012793598543286,0.0287410797124285,0.00505800616318083,0.0129028426332499
-0.0410607861023943,0.0345976477768529,0.00073515502227489,0.00657582628531682
-0.0485122151708438,-0.00208747184706695,-0.00571285631611735,-0.000260071906066273
-0.0358881962337543,-0.0272745055408866,-0.010960823831963,-0.00429625709573732
-0.0268428090083846,-0.0202783042332052,-0.0148355688827113,-0.00446615131029288
-0.0229565243176258,4.42493506947507e-05,-0.0148708286059086,-0.00286598863707343
-0.0135495097615147,0.0179183371739857,-0.0126071806845816,-0.00293639787338238
-0.00281104875766751,0.0239389095190139,-0.0111400319876053,-0.005974242820099
0.000203697699637215,0.0213021390580911,-0.0112111859976767,-0.0103136108723119
-0.00469718417833371,0.00829572357190284,-0.0170648346114296,-0.0127923217937327
-0.01030171923673,-0.0192241363877081,-0.0263299144294802,-0.0118308856629473
-0.0115270517501399,-0.0445789007599576,-0.0262544547074528,-0.00864170387102544
-0.0100845224087902,-0.0445465846684319,-0.0137983516430317,-0.00487807595396532
-0.00610610249911035,-0.0234924864514992,-0.00329131705431756,-0.00172351388598889
0.00631916640668079,-0.0081286773008613,-0.0017588323849703,4.21009576545561e-05
0.0216657995553149,-0.0108483647580658,-0.0015531132886302,0.00180186844778214
0.0257176401831714,-0.0297975296160236,-0.00604376528342446,0.00567374071548302
0.0212504051740678,-0.0442887376174728,-0.0177204571963597,0.010466333057799
0.016533195069734,-0.0284495938856337,-0.0183778758731586,0.0127411658849525
0.0221956189005023,0.000388035497077638,-0.00470720617002547,0.0109766087849986
0.052061367978397,0.0202988809145245,0.00534323200930811,0.00655223190869458
0.091942311202823,0.0208026390347741,0.00312367287583609,0.00162203493685125
0.11158335862945,-0.00571862302732243,-0.00465764218432147,-0.00223463906495835
0.100596185999943,-0.0228016182134313,-0.0112516201866986,-0.00446419300250243
0.0680810109716186,-0.0113053126159661,-0.0231764513890542,-0.00483349665734246
0.026718216346308,-0.00455319694599444,-0.0427273419995136,-0.00278786940556323
-0.0272002003497788,-0.00735337213202163,-0.0539477382566585,0.000278716774691384
-0.0908400126051986,0.00526174179199765,-0.0470707228322843,0.001335751533398
-0.128129228791231,0.0256890744560943,-0.0334615636973609,-0.0005103774101881
-0.129762411849213,0.0474072924296569,-0.0220859111999422,-0.00346726882319561
-0.133008236220726,0.08558339093251,-0.0108103180669562,-0.00533927229535908
-0.140098732520538,0.107167368015268,-0.000593832121055661,-0.00531383940175671
-0.110692571324881,0.0718243846983789,0.00707486645217708,-0.00456601443181006
-0.0523156374948475,0.000249957870537804,0.0103325980387695,-0.00480996231797928
-0.00168166531362385,-0.0517235743527201,0.00500287139777017,-0.00674985920654958
0.054333003584036,-0.0436617436289416,-0.00373603113029193,-0.00920834418698657
0.110855604832842,-0.00483780589977534,-0.00733980814978442,-0.00993750762958593
0.124963586876662,0.0082936533022914,-0.00281190708859207,-0.0076167827243214
0.113946769713174,-0.0105360534461374,0.0036441325372236,-0.00169310586176553
0.11886905025604,-0.0444448184703219,-0.000402003847399985,0.00659186587652693
0.124722163131523,-0.0839024694278803,-0.0131686775225956,0.013527227944165
0.102814930873441,-0.109345536065585,-0.0222624822668229,0.0154374014803626
0.0595755496813143,-0.106183294867075,-0.0222572185312998,0.0112234341094953
0.0197420738774808,-0.0614891825579253,-0.0170273560851972,0.00386150684205074
-0.00573508208099609,0.00659206055782038,-0.0112147109187898,-0.00228719639224769
-0.030907042138426,0.0260748629124402,-0.00308465060971591,-0.00517068960262962
-0.0660202205356031,-0.00168090461138407,0.00708554391258127,-0.00391583545463785
-0.102864876568113,0.0014704984158727,0.0127039794974612,0.00163798846709394
-0.137568253122072,0.0409066739965604,0.00924355789845496,0.00790795737632528
-0.15717947798071,0.0658750167986571,0.00247922739348728,0.0070916224171716
-0.142699459389035,0.0621022277866117,0.00222244321394555,-0.00543565212424692
-0.105501402722028,0.0563052281911254,0.0111421021478653,-0.0222873439494998
-0.0651302980745129,0.0618496846874377,0.0241089324049112,-0.0293672392121257
-0.0244566866398887,0.0399090521834013,0.0318064487499361,-0.0212394934769743
0.00198390447442064,-0.0213607480829324,0.0294703529396522,-0.00502264869381984
-0.00685923547978981,-0.0618348500738166,0.0181985888919657,0.00917695344926478
-0.03497888831149,-0.0535654296597213,0.00511858916675877,0.0163582516284619
-0.0377218692894595,-0.0439786979935399,-0.00299946295508905,0.0179577894008081
0.00492984742197579,-0.0606626055629299,-0.0035899413153427,0.0182415895812533
0.0637263979047071,-0.0619794574603155,0.00382268321934515,0.0195886782007527
0.0939568495823422,-0.0200391890065376,0.0105461177606937,0.0201898265018684
0.0796005880131709,0.0272948802438694,0.0111757204750359,0.0147254116618416
0.0472025608256771,0.0393357764789326,0.00991719275157263,0.000309462582606508
0.0330425909041714,0.0259624183636146,0.0110485057445065,-0.0176951197069078
0.0378708810530123,0.0212668220251929,0.0176390992526001,-0.029302024489884
0.0334920342118899,0.020286439717526,0.0260640604065611,-0.0292996908755656
0.00442826210989777,-0.016486443425971,0.0261137881655659,-0.0205797734508998
-0.0347076558907048,-0.0754095254198253,0.0163533889768535,-0.00956261056326058
-0.0647572475522134,-0.0920713825881766,0.00766810344417844,-0.00109592013532565
-0.0832235197707623,-0.0487783793811115,0.00661336754052109,0.003790893753506
-0.0925872862487536,0.00186587720122622,0.00984701570600041,0.00624136681430403
-0.0859444894467258,0.0124159373709092,0.0132845956840101,0.00689048520472279
-0.0596392588361016,0.0026142750705804,0.017499331389782,0.00635830932391466
-0.0182671339342043,0.00876921184030121,0.0208353685056761,0.00605106198630272
0.0244891883343005,0.0246469041870227,0.0176467201448413,0.00680556991904259
0.0350287159338209,0.0366702558808604,0.00910581742975534,0.00777735502011548
0.00363802583572151,0.0497480626697041,0.00324467425141796,0.00758563693808617
-0.0352592327089882,0.0615218156290153,0.00295645106626589,0.00608560987625707
-0.0479795799383916,0.0559047660937153,-0.000412635411243934,0.00450468282613541
-0.0325906631807483,0.019899843871285,-0.0100804100335022,0.00369189434952043
-0.0206401100263491,-0.0291596472194182,-0.0154480066160144,0.00305276761072151
-0.0261825946517708,-0.0489214657853396,-0.0153499689612986,0.00195101364416149
-0.0376712785951819,-0.0262518429961428,-0.0189880508776335,0.000319279969388131
-0.0587800556813036,0.0121757602442612,-0.0195365854330579,-0.00130741338243012
-0.0799289717353537,0.0267388289982983,-0.00644847418078592,-0.00183283091820473
-0.0707921388895696,0.00411265168389053,0.0057622918421114,-0.00119103207432325
-0.0247641980805863,-0.0156312645618484,0.00376911351071593,-0.000593906591316975
0.0414768074012852,0.00206782781345418,0.00148432763848347,-0.000500926234324381
0.107261976257529,0.0391717177136022,0.00656919274396379,-0.000259543430677946
0.155203387455843,0.0672333325377798,0.0112887375129358,-0.000322675119272107
0.16788810461886,0.0790836748154758,0.0143838438157879,-0.0016567151606322
0.129917027764453,0.0598371107826252,0.0093720569658778,-0.00399623212696609
0.0594995324169825,0.0086565003064351,-0.00692016186204943,-0.00612054357594575
0.00965753742236994,-0.0342886728555015,-0.0194924308942071,-0.00515236577750674
0.0196706833498233,-0.054075543192285,-0.0252722930850129,0.00104798706563127
0.0545691911330007,-0.0649581130078919,-0.0353574458971809,0.0109124823937047
0.0411904297449194,-0.0713610996589509,-0.0500569761050647,0.0208141624682399
-0.0159732485061367,-0.064782375465796,-0.0579018281419512,0.0244797800665854
-0.0652591882745175,-0.0202756785343414,-0.0486964958582149,0.0162919403364474
-0.0945738783028731,0.0421091203430485,-0.0286944677232996,0.000429116157024404
-0.127458064061082,0.056777601685667,-0.0118269090383224,-0.0129199922168425
-0.16427101833003,0.0340926718800226,-0.00163856665978239,-0.0203404787557637
-0.150544359503439,0.0334721821237228,0.00179756001166147,-0.02387698484826
-0.0814424743027243,0.0619725159763737,0.0016147313341102,-0.0219495856902468
-0.0392767588778093,0.0870187227879781,0.0100654162051852,-0.0129205150192235
-0.0543018692552439,0.0796032911090399,0.024228361779845,-0.000665787311638855
-0.0545055817686199,0.0458229574218614,0.0260255892944492,0.0112190337095188
4.34778165867844e-05,0.0166932300866223,0.0153825867354705,0.0243659336593925
0.0679366375343743,0.014307751356082,0.00561048826465242,0.0378749452223671
0.123260697986292,0.0313044196115653,0.00342859877533971,0.041486911162131
0.15799159255775,0.0366108881594694,0.00194873854479014,0.0256127637699206
0.159260127015107,0.0151063732606096,-0.0116443637422965,-0.00616069260594258
0.139585784031244,-0.0143271005632,-0.0328914518671838,-0.0377295453433786
0.116850752499301,-0.0361969213911403,-0.0478871653998046,-0.0522372261792702
0.102665567632315,-0.0625139021429891,-0.0531157595354978,-0.0446292819309566
0.108011326581337,-0.0900914556928441,-0.0506694862460328,-0.0245724226457467
0.111223804979871,-0.0868613670250778,-0.0448168573221855,-0.00640615113286627
0.0783742940751137,-0.0625507693614862,-0.0450022054001316,0.00384946493620647
0.0252564230088624,-0.0552932397920244,-0.0480921576318138,0.00912298386884354
-0.0241499583310723,-0.0604352434068296,-0.0375819034117054,0.0121343784530279
-0.0695055614575988,-0.0473948433178169,-0.0216695474141823,0.0120329483716764
-0.0796891171226834,0.00485953230392519,-0.0164378354411026,0.00915752260500317
-0.0416922935852954,0.0666562785933189,-0.0139358543341441,0.00614478844512772
-0.0176092645638999,0.101876798664196,-0.00982426689968416,0.00476995504907741
-0.0394376532009486,0.134315100535832,-0.00820812181945627,0.00446336702551656
-0.0569667353837773,0.162891181862931,-0.0109372377440183,0.00268260528115792
-0.033114189031806,0.146081568588278,-0.0234495381540969,-0.00152863783663004
0.00610766985975301,0.124714157428743,-0.0334885197621771,-0.00419528320007514
0.0288410825571057,0.159866194553941,-0.0221395472733614,-0.000248273276919066
0.0445271798580846,0.190135632679018,0.00346811095819922,0.010098934860633
0.061025484334831,0.129072223355117,0.0331990986808188,0.0228382094565825
0.0508706378005095,0.0090321355930667,0.0608715845066577,0.0372903541554427
-0.0137514540486351,-0.121665637777142,0.0687860990430167,0.0532522570525652
-0.0815509040886776,-0.262412499010355,0.0574701414304945,0.0614516687969458
-0.0631599651097478,-0.319842319603763,0.0406499068683548,0.0506951385814399
0.00759855015382296,-0.223543952290391,0.0134556342914135,0.0230750729222995
0.0411699517001341,-0.0856929035468574,-0.01298013717013,-0.00802047694656066
0.0251197171620425,-0.0235541419061449,-0.0160275630376854,-0.0305162195704331
-0.0231345020620996,-0.00553139588444795,-0.00693406311036491,-0.0403990688075661
-0.0705289953168179,0.0372300905333647,-0.00616835885011378,-0.0414103482540112
-0.0757441507943667,0.0904842541907543,-0.00822770253739035,-0.0417112384391512
-0.0392327513497457,0.107904298545867,-0.00427324471380273,-0.0487482503422795
0.00900174722253469,0.0752732924625423,-0.00993991921880477,-0.0642824049641423
0.0357359246208604,0.0171665402734883,-0.0330440198896433,-0.0842787093435201
0.0387665615667869,-0.0407038926279566,-0.0493870112577049,-0.0992783875313773
0.0412136198719499,-0.0889660627905114,-0.0428623993538921,-0.0937703177120768
0.0394186895249592,-0.102006509798759,-0.0212866708405465,-0.056139136338346
0.0296337811773373,-0.0749169811197159,0.00276680837535122,0.00685229292435877
0.0352351750574845,-0.0724968438013781,0.0155271794651948,0.0713017028284497
0.061401097679618,-0.123980641051036,0.00917349055865586,0.115159697629937
0.0758341770269654,-0.155214338899174,-0.00896767322069697,0.131821223714543
0.0545594876318198,-0.121319082995346,-0.0238555053202838,0.124281857734992
0.0120786563999214,-0.0517494471329535,-0.0258948999292286,0.0978780290096014
-0.0330303637535548,0.0292654370519442,-0.0105210808460182,0.0609236521054917
-0.0778321252812639,0.132718719802356,0.0158417412471409,0.0225399205171227
-0.1047466405056,0.215506777158148,0.0259334443248924,-0.0120008226630346
-0.0904863329816058,0.187367699492053,0.0106775994951364,-0.0413816054704552
-0.0690231731904229,0.0993305484466472,0.00432012484282226,-0.0637915252694225
-0.0832504869419312,0.0554839245045951,0.0312477120515111,-0.0749057829368359
-0.096448417802247,0.024666004373315,0.062264046007853,-0.0745882466413484
-0.0859319487223925,-0.0402821696245176,0.0672350849808152,-0.0697181389059653
-0.099382754041531,-0.0795345799713491,0.054964980921427,-0.0648518223021989
-0.142042538569965,-0.0637094378275348,0.031824715938971,-0.0584390182587172
-0.164661428896921,-0.064146228605075,0.00592459500975014,-0.0488215045543477
-0.152568759319444,-0.106450278680552,-0.000692461676882715,-0.0372463782811317
-0.122230669988217,-0.128357093488732,0.0163405606193229,-0.0271686749172804
-0.0674243554601183,-0.0904713576839944,0.0330396281686301,-0.0219627233129729
0.00496135631938158,-0.013888539005145,0.0225132648862909,-0.019636797606539
0.0532002189897977,0.0553126952117528,-0.00644151347088646,-0.0142210387405578
0.0762791015178995,0.074541599735267,-0.0181108964319383,-0.00332933326196604
0.0981389516993518,0.0532840770522766,-0.00790709829506322,0.0121930900007631
0.126737827785264,0.0248284651336989,-0.0089481920719207,0.0281995194629185
0.163020928673251,-0.00650326702013912,-0.0386135898356534,0.035880233316549
0.190746638171162,-0.0248205710368842,-0.0761656131557856,0.0300259413563172
0.20144303393776,-0.0152615974946308,-0.0927873131131399,0.01612201222914
0.186676429133807,0.00235488549232786,-0.0838194341811505,0.00659516030408609
0.121065146319192,0.00807455130581299,-0.0571441013241499,0.00764328070312433
0.0214181215674004,-0.00302828983577531,-0.024085956922004,0.0126384459149766
-0.0720222346249345,-0.0123589564895841,-0.00636821210141145,0.0151824811467033
-0.147917164518076,-6.27443018296758e-05,-0.0076563725433345,0.0177763908362745
-0.18489296663754,0.0318805399201876,-0.00951501251967381,0.023393533819381
-0.167666019387313,0.0838439208442475,-0.00158791385664633,0.0304625848129123
-0.114660790122268,0.155278307440969,0.0213705354583237,0.0339139980775978
-0.058527645247371,0.22625206135019,0.0577672040393534,0.0284138890461021
-0.0408146995867054,0.239673889782324,0.0889953561545953,0.0163849491295778
-0.0732518753278814,0.136082755224312,0.0998776155274884,0.00689879772443378
-0.111657946162438,-0.0334442242408965,0.0899720281145723,0.00211031910191109
-0.106309471565145,-0.127061254872572,0.0655216500243761,-0.00499943392895159
-0.0540959910336578,-0.103736453329566,0.0329505064588894,-0.0161365395066718
0.00630828745909215,-0.0462631599880819,0.0046328858221524,-0.0220830653933989
0.0262965816016135,0.0067944260137956,0.00328045429008463,-0.015014696527144
-0.000649839231866525,0.0720094944022902,0.0256834949138666,0.0030835184826984
-0.0355561814471236,0.102171916752242,0.0334198871046634,0.0254380920396653
-0.0515758939027118,0.0461654543065139,0.00904456830777327,0.0426477493964954
-0.0384532758825766,-0.0131387294608249,-0.0219984688399666,0.0433108236504863
0.000696526626810412,-0.00303887304854521,-0.0351389986674,0.0262626668925216
0.0366343181413124,0.0235230012757506,-0.0246444759812824,0.0061926532002726
0.0494126672238819,0.042235896423158,0.000467244410982651,-0.00190377633507013
0.0414233674966731,0.0611690513608485,0.0179433749967547,0.00297680311275595
0.0235737785240164,0.0349218380762901,0.0172685360059716,0.0123874727567618
0.0207217637210241,-0.0327131325076926,0.00807318954410624,0.0197760312561342
0.0544696723223157,-0.07571551312432,-0.000338642693923672,0.0245804553613323
0.108166208488419,-0.0860858220444016,-0.00829420383222528,0.0290815635364402
0.129388419921529,-0.0892996775376819,-0.0156615963641021,0.0323375333480756
0.0972140583740038,-0.0867910015272379,-0.0190927898873867,0.0298530669950479
0.040263084309873,-0.0609450443106526,-0.0158939854271161,0.0204503486245112
-0.00948195325410492,-0.00432928590314513,-0.00430682331980003,0.00863975518411396
-0.0390879460080922,0.0513363128274816,0.0107679014597253,-0.000457781689230986
-0.0638467445734738,0.0735412452858542,0.0215144970707565,-0.00648776520713619
-0.0880951222437924,0.0568983820600648,0.0278209207672457,-0.0116303859521718
-0.08823704767497,0.0237956197394335,0.0261280295500577,-0.0145147830817787
-0.0613033385904072,0.00334999882051768,0.0148910592264839,-0.0123593337510585
-0.0279785482242933,0.00880525393023972,0.00878713221475472,-0.00610435642303917
0.00780835088950694,0.0586898911712167,0.0158090660282305,0.000238898171518898
0.0363861428509316,0.105405466538619,0.0219300405715726,0.00234749746868326
0.0289575945098603,0.0612345443103948,0.0131625765966886,-0.00230941380834117
-0.00182043159389424,-0.0317608568607384,-0.0105443884319243,-0.0103228808370236
-0.00557418605841624,-0.0722853837366647,-0.0390756857761019,-0.0136996297796247
0.0325403259009731,-0.0512287754947642,-0.0656971869649135,-0.0115691666537889
0.0757916665398066,-0.011529632059418,-0.0851384390547809,-0.0116479476166802
0.10200512419566,0.0147308979028184,-0.0809178015188538,-0.0158593904563832
0.121889396020323,0.0161500552615955,-0.0534870079757179,-0.0160802318187475
0.13600890690026,-0.0162612790568833,-0.0451599534796875,-0.00869244388637927
0.12246965770001,-0.0883182033448536,-0.0762005218615106,-0.00309253827507234
0.0890282876744466,-0.157051410680547,-0.0909072133184955,-0.00804502494214384
0.0775621973571396,-0.154042442108169,-0.0392385436818808,-0.0173207536534452
0.0641186500991057,-0.0630385930407129,0.0374050726456763,-0.0188429740719351
0.0191898953389633,0.0224029135615139,0.0444442759392231,-0.0102942406772496
0.0157387690671043,-0.000268450155182023,-0.0277764399269278,0.00175937464457641
0.0841855869099376,-0.0665986489511776,-0.0822405169332315,0.0103854616553584
0.152751024912759,-0.0518695979836003,-0.0642880514342166,0.0134158102805326
0.184580100343753,0.00791394937908865,-0.0154641581149817,0.0133387530693433
0.18057659992977,0.0187869976904875,0.0223550532117961,0.013349710208217
0.160699870367033,0.00455323506371567,0.0440104786568949,0.0129192598529821
0.149955561909194,-0.0280858767004961,0.0342724762665364,0.00689561387518906
0.116053403808501,-0.118732386848455,0.00511069253873135,-0.00733880658009928
0.0557242413658696,-0.181808302222947,0.00160800916392201,-0.0230725114696215
0.0311567363039257,-0.105567656007349,0.0191090193963387,-0.0305377757258261
0.0398125047979808,0.0308859698496437,0.0215465709318853,-0.0271151738840426
0.0194811648441114,0.057503412921294,0.010797439112934,-0.0184433102995084
-0.0315772588808076,-0.0213687177341561,0.00998469232069751,-0.0113364893156351
-0.0475094523435205,-0.0596776224647811,0.0204714229293617,-0.00652212955890773
-0.0180069477305102,0.0163899384805717,0.0306873761447539,-0.000858727696336549
-0.0114528643944279,0.171706969886197,0.0477783967209907,0.0058942373727337
-0.0243440461779134,0.297131610792269,0.0733814672019819,0.011437774505214
0.0037150804468449,0.276978985460657,0.0767055051631022,0.0143767976014308
0.0299004304496874,0.139709693339676,0.0547902784445118,0.0143372393376279
-0.00930962127534908,0.00176100213306707,0.039697654776306,0.0111907816367295
-0.0537889799813777,-0.086202038026584,0.0359202555881962,0.00225295455449665
-0.053220598392016,-0.103704754058234,0.033137983523619,-0.0130214378392557
-0.0539335364970711,-0.0765981473559638,0.0303206199967783,-0.0239196354557316
-0.0712433892871091,-0.054012265561617,0.0260860680824619,-0.017812938985989
-0.081080558713359,-0.0263775223752689,0.0247354568159673,0.00478068585159177
-0.0953562825895867,-0.0090634351465307,0.0213836062523091,0.0311510688797936
-0.114300116537541,-0.0178203334070739,0.0114050269021912,0.0465776124507393
-0.0891247488478044,0.00710204581090366,0.0089420846453663,0.0414710028550115
-0.00371369088745394,0.0812015733757308,0.013006050789733,0.0156755429940551
0.0907614067593708,0.118352682826443,0.00534054825367266,-0.0184128726615918
0.145683830620496,0.0900446300487138,-0.00754765554040755,-0.0423313989526234
0.158359776257889,0.0565619308199538,-0.00924962469689319,-0.0464549737832275
0.139052579535602,0.0418796871157386,-0.00732088097618244,-0.0354099073313737
0.0716614230720398,0.0315982112060905,0.0018180402790242,-0.0178733356112267
-0.0281417286296996,0.00241453293455723,0.0337256694699576,-0.000149246841396437
-0.111915626402493,-0.0406406483605855,0.0834790707200406,0.0109958827602769
-0.172886142955133,-0.0283560178039285,0.132847777488717,0.0109715850283261
-0.218629610734589,0.0488013957153188,0.155502875824291,0.00192562118242467
-0.214196677954862,0.0744310162143262,0.126102759173457,-0.0110553232541994
-0.137104361634982,-0.00657763423613339,0.0471897296421417,-0.0247587979215016
-0.0396503992959678,-0.0896778314267737,-0.0364138974780304,-0.0345641758211489
0.0287444087596817,-0.0972850227830631,-0.0800296732994068,-0.0323907948465586
0.0516386940587221,-0.0663063821798196,-0.0813476794237561,-0.0161393776832002
0.0163144302737494,-0.0166909428258216,-0.0618173727495837,0.000360199441302063
-0.0495609626823987,0.0362189624687565,-0.0441930699189852,-0.000164309702748968
-0.107536532001128,0.0632348543635009,-0.0406600229800568,-0.0139817665621918
-0.163380056992411,0.116972988630281,-0.0359808630830046,-0.0203997138369726
-0.212115415977168,0.216626568682121,-0.0156074863055521,-0.00789963550215571
-0.221573047772985,0.273460846424689,0.00589212050519331,0.0149217300111207
-0.185366830864375,0.256974387625648,0.0277393938790921,0.0309841932607633
-0.114097929971616,0.206084411786024,0.0547553345099504,0.0320044621651777
-0.0427398900615951,0.123854484956607,0.0630956267748217,0.0210373994784259
-0.0105577067046606,0.0191439619594261,0.0474138642663852,0.00366125519717535
-0.00115979482526943,-0.0861630172320658,0.0208568379768897,-0.0132585742836304
0.0088558459624484,-0.156986441186176,-0.0260992364509768,-0.0226847420217937
0.0502945455101863,-0.123711632562542,-0.0802766756747683,-0.0246944222302657
0.18456133888945,-0.0556620516132007,-0.0928486898971118,-0.0233346161428613
0.357365000444267,-0.0867114132247702,-0.0617096436605871,-0.0192019852851052
0.388396700104286,-0.144388731181228,-0.0349897201221439,-0.0110658616409522
0.233132604709492,-0.113592641530254,-0.0349581679880359,0.000555876850176579
0.026616624268942,-0.0304196723007699,-0.0440584242373532,0.0122449849317131
-0.126060765114817,0.0216846350394109,-0.0420848648661738,0.0193153892901096
-0.204355886733488,0.034985710631781,-0.0300411264317028,0.0196406691276033
-0.19631321190278,0.0459841709038019,-0.0258062864389652,0.0148302738718328
-0.109974347586003,0.0384179842363247,-0.0228579904752522,0.00872496795139946
-0.0266317912163434,0.0170028933371601,0.0117896953781429,0.00623810210453552
-0.0126223664004431,0.0266656424736518,0.0633999845848918,0.0111015681749279
-0.0448551380626764,0.0211382661194785,0.0760217707476279,0.0220168097356912
-0.074397957194897,-0.0520229314203319,0.0466263344637216,0.0302548181738598
-0.0601106969392206,-0.114229119485948,0.0208961376791537,0.0275887899175779
-0.00391865090735399,-0.109366575875227,0.0177537345393707,0.0169388724961299
0.0449344539098843,-0.0876154903736786,0.0294950917005943,0.00607659219885765
0.0699672113816796,-0.0434587064402257,0.0492571835607442,-0.00160951714062912
0.0742294864195405,0.0305754951649743,0.059618907510001,-0.00539750414605494
0.0568624868402879,0.0211347324443981,0.0432295990825347,-0.00665569132956984
0.0511671931629153,-0.056935038176586,0.0208852653971385,-0.00898262246789605
0.0717467268795996,-0.0412272261396065,0.01542763381814,-0.0135836032418149
0.0852477044111472,0.0457072686107283,0.0148091472751982,-0.0176089052297673
0.0802245073707297,0.0676865757033893,0.00847967903110502,-0.0169493189998558
0.0490830244859941,0.0325472791716779,0.00172068390555262,-0.00884604398914515
-0.0373990572329832,0.00762423692044136,0.00351188283461742,0.0066599228605289
-0.13023146279538,-0.0320735907741219,0.0121008687772238,0.0283655367250065
-0.14425619878629,-0.0979284509739782,0.0208033693828877,0.0527759226102316
-0.106265932183538,-0.127725996941694,0.0227724749938209,0.0689004972883954
-0.0985678373331006,-0.0956275559057644,0.0128088206719388,0.0652317399782447
-0.0993554554563559,-0.0269756220040776,-0.00376124900579714,0.0438941365768889
-0.030721863945372,0.0344844539624891,-0.0150520669670189,0.0180872608097048
0.0540890954411284,0.042081409041359,-0.0140805074079038,-0.00141551767065645
0.0684694137466297,-0.00124363649514869,-0.0102040967906868,-0.0121784456575724
0.062092413206378,-0.0564132042545226,-0.0089508735297974,-0.019520084841293
0.0954541835776597,-0.0947962177837836,-0.00380237848527865,-0.029947218680141
0.134541288050323,-0.124983792741214,0.0061999156177584,-0.0426015907943854
0.151192666233005,-0.197812214856357,0.0134070341296101,-0.050476931458932
0.14730274770998,-0.294119419366313,0.0130598940992121,-0.0460695724705111
0.103056723317652,-0.28643694182356,0.0162840163757691,-0.0262882468320692
0.0245735892574989,-0.165584193737076,0.028500838309031,0.0021373699502666
-0.0300362011985086,-0.0774399057810997,0.0337088486226446,0.0242639102700173
-0.0361830608927947,-0.0551719050623413,0.0221219314433897,0.0284973704952228
-0.0462734832785168,-0.0218282824052753,0.00437550698399899,0.0163836311410906
-0.0842349768728504,0.0424208561434941,-0.00389768435573663,0.000449142964093659
-0.104205282548522,0.111184471970863,-0.00104316816812151,-0.0051918916252997
-0.085652707244606,0.163302687812685,0.00277995618228966,0.00386720875013787
-0.0575633105755989,0.189888089390018,0.00373111803397719,0.0171163302277767
-0.0426900084762659,0.171889460592203,-0.000645209307517589,0.0204953074412201
-0.0528877104648924,0.0879594104974297,-0.0146662583203912,0.0111359470760964
-0.0801162147397472,-0.0180377641737192,-0.0290369432347309,-0.00348158577664551
-0.0870651180351259,-0.0582935182411725,-0.0303185902015636,-0.0147897171210011
-0.0620380054946673,-0.0256160255435303,-0.0249740133920044,-0.0171293679071784
-0.029747029336875,0.00233011847534017,-0.0268618474997029,-0.0118876783193929
0.00224575066378618,0.00758782962634034,-0.029673465810674,-0.00803813497853456
0.0378537504446555,0.0236985359641902,-0.0212736708383401,-0.0096523979162529
0.059249029597952,0.0288813236432345,-0.00599255514585575,-0.0111581256301144
0.0484291840842664,0.0150033054680591,0.00951845651380435,-0.00898470815348082
-0.0107647177084941,0.0194724924967898,0.0201959445352496,-0.00653588519480253
-0.0917732071154874,0.0448433522039452,0.0187197864879951,-0.00835503202223831
-0.104192962238612,0.0641513422527066,0.00773861087551082,-0.0166437432917214
-0.00836380987470738,0.0584490623161908,-0.00431258794754415,-0.0305723487355315
0.115712371055114,0.0164063683601743,-0.0115743166716701,-0.0461340567270225
0.165915757665278,-0.0394680095609548,-0.00878052266439465,-0.0563850180089272
0.136830022846303,-0.0640956059815383,-0.00169721590451119,-0.0525467551792355
0.0947820063526202,-0.0675537924418564,-0.0080005001944635,-0.0303359479834058
0.0684967762797278,-0.0878104129282325,-0.0227317087637059,0.00272541575260063
0.040761463359529,-0.109955877282232,-0.0229071625379875,0.0330668628046677
0.0307294395649328,-0.0912379986274093,-0.00719331294131602,0.052447803659393
0.0475872293803175,-0.0257026387918436,0.00668683159632543,0.0574301459515392
0.036376255246123,0.055189761641811,0.00628598605349345,0.0481780710939262
-0.0163540980334141,0.119958263634496,-0.00624509842822736,0.0311953394018051
-0.0559951713509579,0.164943492974817,-0.0170311811245019,0.0146762201327403
-0.0605997858988253,0.182565985932521,-0.0228975333400189,0.00260006328664474
-0.0386280934750168,0.118860299183659,-0.026674511176094,-0.00643986149322402
0.00527320169700071,-0.00657732342682711,-0.0122740451138594,-0.0157423774806679
0.0418452285364954,-0.061172094069548,0.0193876959418376,-0.0240359197250463
0.046155846640856,-0.0196067067876095,0.0323364864483113,-0.0262664719728898
0.0347391796072801,0.0162901028551888,0.011218678345292,-0.0216684743967126
0.0262988031377531,0.0135808560372542,-0.0145143904874535,-0.0154113545758897
0.0145353106392111,-0.00781459131846965,-0.0160113375929349,-0.0116417485577772
-0.0127512467281401,-0.0419576431527514,0.00379854119202605,-0.00937598714085681
-0.0514523134147617,-0.0650113560629765,0.0242979343267523,-0.00617266715952059
-0.0882493543531754,-0.066850149769058,0.0305462674657006,-0.00173247791215693
-0.111554677012827,-0.032652900451247,0.022428376783001,0.0030240264658324
-0.0997389013442937,0.0554572018777219,0.0105689414318864,0.00747711202030543
-0.049751792796156,0.133343766816828,0.000318400176985832,0.0128867154172636
0.0124462307981781,0.136709270931836,-0.0110653943683514,0.0217752577084771
0.063677747019956,0.0848130836908339,-0.0240077258115161,0.0332611633742804
0.086419809278479,0.0142099989804128,-0.0364529368316767,0.0405680732849866
0.0681849947271286,-0.0423843414781377,-0.0404227090761443,0.0362185100976762
0.0186664419838969,-0.0519593869646101,-0.0339089748475917,0.0207039208485729
-0.0245289242895659,-0.0394924990229827,-0.0278211479443472,0.00434779608437859
-0.0234907989309589,-0.0621332217143528,-0.0157856888724545,-0.00263641909307133
0.017270745923596,-0.112932199110407,0.00732793008447554,-0.0015206493855606
0.0534916212021462,-0.144805757386596,0.0178677482892207,-0.000168385030591366
0.0632251713271038,-0.128512146563343,0.0117947084955829,-0.000861704022696323
0.0637146390410601,-0.0486335826544757,0.00816009352971597,-0.00180218192244752
0.0773899834812419,0.059767193280046,0.008815144624228,-0.00468405429580234
0.0874081648213959,0.123723416803854,0.0172953017003253,-0.0104917999200788
0.0366392060324276,0.127250160239065,0.0493060089588042,-0.012617055626744
-0.0558113936338248,0.0951313816211083,0.0887058610739666,-0.00587656869562012
-0.0990206522370507,0.0638493613761995,0.0941031666189358,0.00367301071389287
-0.0908578535325527,0.0763729223404633,0.058493258643927,0.00580323888592698
-0.11035542938396,0.124237188217281,0.0122241956055272,2.72972792718339e-05
-0.14204583220554,0.150933225834932,-0.0216884919659562,-0.00231919294172488
-0.0951876266394741,0.128760516394566,-0.0485155971661136,0.00627873372483528
-0.012298522088865,0.0820170479536962,-0.074320151444245,0.0218822207729437
-0.0258447525804952,0.022768619585152,-0.0836440607610683,0.0386098250651249
-0.132619914654524,-0.0372994711905301,-0.068853794555391,0.0492583253166481
-0.205020371061453,-0.0472058279978323,-0.0436721958490526,0.04406765039771
-0.163989791232016,-0.0138569100974727,-0.0266948135881311,0.023217629443954
-0.0510441703878104,-0.0292611203967674,-0.0317369013416514,-0.0030530400561107
0.0380477948855991,-0.112182913013987,-0.0492640396267934,-0.0262790477517694
0.058198267378379,-0.177393030965739,-0.0520600359133764,-0.0385950171353081
0.0213374596817664,-0.195600261991688,-0.0341570030256856,-0.0363998484510492
-0.0321315294500619,-0.212522627756165,-0.013319329142371,-0.0324885232298112
-0.0458646182143594,-0.237954521967132,0.0101866356923615,-0.0419061442577602
0.00871733095188933,-0.229718793081172,0.0414404628937338,-0.0546631972483323
0.0842678249634505,-0.147914469802746,0.0569643008728132,-0.0490648697126663
0.111893750789035,-0.00995832697747867,0.0392619059582164,-0.0259922822508781
0.103940968926358,0.104805325567098,-0.00188727636350461,-0.00364219714874379
0.0916199918770437,0.165281480733427,-0.0400503153070289,0.00849270033834579
0.0730094247001268,0.227239897498716,-0.0480105023865878,0.0146798843845859
0.0816842708639003,0.290600051342814,-0.031908507275812,0.0196398511693803
0.126778884785197,0.276392622311605,-0.0267907377744545,0.0193806401319772
0.138919035506151,0.17670432584257,-0.0563902014004014,0.0103338288427352
0.0891584996675296,0.0705474915096289,-0.114291367290337,-0.0013888173471899
0.00323171285598273,-0.0316508710007544,-0.162932102175831,-0.00745727785651727
-0.100097538469338,-0.151240471433009,-0.146269665627929,-0.00710336436873861
-0.18599507775779,-0.206215880315824,-0.0662923057197338,-0.00527514132977625
-0.203713212163697,-0.172532734780656,0.00824619063278928,-0.00538780404949843
-0.126851722066581,-0.177445766734748,0.0564577479334515,-0.00704328396269632
-0.00517766196922695,-0.264675161461201,0.100010836835129,-0.00847937671939904
0.0792639547422919,-0.313005994600863,0.128540880230569,-0.00756336645533472
0.107702176214088,-0.248265858076557,0.122577783634769,-0.0024469165916544
0.0959194937134289,-0.146825153286665,0.0820718452585807,0.00558232552595717
0.0654008443895446,-0.114709226360301,0.0271727119481328,0.0110108295473295
0.0637972981107748,-0.152491158143982,-0.0162065652311279,0.00916134705302105
0.104913298895925,-0.173624787213159,-0.0499514306919748,0.00297165337871922
0.129313618303123,-0.123599391176782,-0.0828476204262449,-0.00280225717821559
0.0870972804356922,-0.0388340058675915,-0.091365250873973,-0.0100629317285683
0.0173649037720811,0.0223808990481177,-0.0624617579834332,-0.0195988355167169
-0.0118039593168581,0.0493774992766592,-0.0321734464078866,-0.0271664996891103
-0.00500533954216659,0.018565721370501,-0.0282348872498933,-0.0294907809092971
-0.00970874815473911,-0.0443126547015693,-0.0328931674733761,-0.026199594626819
-0.0421865787413704,-0.0186464063041593,-0.0184157600032568,-0.0215567677491852
-0.0737080219214754,0.0959698397525677,0.00566342918512527,-0.0205245826720442
-0.0727991173979744,0.184268374866296,0.00189226385366281,-0.0217737668453436
-0.0802205588518158,0.234438945466627,-0.0132590251827051,-0.0211512154438942
-0.142450807781121,0.300210685193011,0.0042163243088926,-0.0152163345735273
-0.187002192689997,0.328961339071027,0.0329957664845933,0.000935054382683764
-0.144366197093542,0.286374601266909,0.0452008967569793,0.0281487768694268
-0.0579730531251814,0.255443192135985,0.0513876027447307,0.0561013809064693
0.0130544250156757,0.224160411699705,0.0484096503231057,0.0692923203919116
0.0650209245536699,0.113769589565652,0.0277394158544523,0.0618011219135383
0.113075658914358,-0.0316447068384166,-0.00098395561749957,0.0420164821693345
0.115732843263276,-0.109722394959291,-0.023648525098844,0.0224064492937778
0.085063587480502,-0.106710603784049,-0.0344621462290316,0.0112145181838651
0.100447954699992,-0.0848396917187393,-0.026030132398309,0.0111906237395485
0.130282464510075,-0.102678222508907,-0.000397038013761626,0.0194330473254102
0.121637675216276,-0.145908928236874,0.0274205064548026,0.0258208086986466
0.101453639507785,-0.139302888268205,0.0613752819112328,0.0167219904558121
0.0897869296492196,-0.0624456832519672,0.0977377333986573,-0.0099629874952822
0.0667279559145338,0.0317787378707472,0.0992306365980064,-0.039217392183611
0.00831646898945504,0.0884204447515105,0.0570961263041392,-0.0546087232847623
-0.0759725081428159,0.130411958964027,0.0358038982351201,-0.051323267779989
-0.148232208312748,0.182446620639654,0.0625538505350653,-0.0340696835798739
-0.19556113468327,0.193871408701138,0.0759746303050215,-0.0107073937000474
-0.219161570243168,0.135623719183768,0.0521896024803284,0.00995330605674238
-0.200550729947913,0.0276371620025728,0.00965694098322618,0.0204069614575742
-0.132763915977455,-0.090097628741498,-0.0416965774817634,0.0191336958850917
-0.0640180359711666,-0.177038552744252,-0.0664554925151781,0.0121029268705248
-0.0339812257944482,-0.187425891682562,-0.0476973786792138,0.00893526957767213
-0.00936505200405877,-0.105238956214598,-0.0258181420095881,0.0133923188342031
0.0233750839499242,-0.00473500738557059,-0.0234850078416275,0.0192904193093816
0.0457953217971134,0.0393697130837212,-0.0203900284217597,0.020739696726288
0.0677452032256432,0.0430408895970448,-0.00431803157140703,0.0195351648176277
0.0819678087754618,0.0381632061878719,0.017234156286635,0.0183083829643145
0.0525697570686173,-0.0100456201832742,0.0241149769095664,0.0154944366329164
0.011904151434007,-0.0948018354518148,-0.00245912585036897,0.0112381421374838
0.0258136085297021,-0.114914867039803,-0.0448846641878196,0.0115500794227179
0.0440529713025788,-0.03760505692234,-0.0541220030773728,0.0200392307108681
0.000490049455369373,0.0710421807155416,-0.0133312728506221,0.0282073475072241
-0.0474178240013053,0.137857554844089,0.0294257421131598,0.0227413802940721
-0.067346340447154,0.130811060783423,0.0300475943726848,0.00166325423725595
-0.0785599187074398,0.0653288517842518,0.00952847863230385,-0.0220840728967076
-0.0483876445695273,-0.0234827587299926,0.00553892127008872,-0.031694266153444
0.0311054511607763,-0.0841669694051592,0.0333940409470552,-0.0213090705376751
0.115285672267154,-0.0833457859576749,0.0758594112833349,-9.72969636208257e-05
0.155126131382839,-0.0800784416046172,0.0827736811705822,0.0191155475165561
0.130399081752534,-0.136798816910659,0.0383904400034207,0.0279171956900548
0.0777552375650437,-0.191940180116359,-0.0209037848078867,0.0208187410653783
0.038077969017733,-0.183870830767092,-0.0565634893612104,-0.000866672871314724
-0.00669114711078922,-0.153976596930687,-0.0548487462615405,-0.0251468008908712
-0.0718590694449406,-0.126426903400456,-0.0312984078428238,-0.0379915834338732
-0.125402490729197,-0.0686145208399078,-0.0248383371365361,-0.0348949284871842
-0.161251054227115,-0.0192629387731712,-0.0287977849167458,-0.0218804427975651
-0.173213395967618,-0.053304447718309,0.00491313329085172,-0.00727701210417098
-0.125358888599714,-0.110865257303341,0.0468355918963234,0.00448655280464086
-0.053472827131992,-0.0950495617956711,0.0353123210565115,0.0118936859544148
-0.0305475326999713,-0.0572905756315836,-0.00903889655481179,0.0151125488816678
-0.0446210604836499,-0.0796744578377486,-0.032114113192459,0.0149473650102053
-0.0352651490878567,-0.120764581995972,-0.0392598978661802,0.0107135456539161
0.0401762967690419,-0.0889479089151752,-0.0550031957673981,0.00314062666419062
0.133096628600187,-0.00165996876223132,-0.0649250070479855,-0.00307375843971718
0.117298270908668,0.0401326787903188,-0.0518266974676324,-0.00473831755574841
0.0118304442955701,0.00876724966420694,-0.0259323527386986,-0.0047485498947067
-0.0415692153559442,-0.0356157610098835,-0.00961736145989302,-0.0076221870549493
-0.00843468952423615,-0.044468245609953,0.00182502882730787,-0.0133923167387912
0.0430541005891668,-0.0203461686562974,0.034205131913145,-0.0156648970455655
0.0498847511293656,0.0885089181985208,0.0772468353321265,-0.00705384802461003
0.0134912594684758,0.275881841910464,0.0913419709916645,0.0101941091399381
-0.0198618347300169,0.35977908132769,0.0786382457298161,0.0246007088885137
-0.036949128781838,0.291302098897239,0.0659555240133014,0.0285678951813145
-0.0436074582816161,0.178192404966198,0.0489128939894582,0.0222970372743083
-0.0222713939266848,0.0539020266831732,0.021650948867513,0.00573527489101645
0.0310896133656603,-0.050348024787838,0.000272482704100976,-0.0194980558833707
0.0622184006586072,-0.0732763750071445,-0.0028329384285575,-0.0422222462773564
0.0274583296688327,-0.0372789854404839,0.00378364604714505,-0.0485616108480273
-0.021873107722193,-0.0365286806307378,0.00562282199162816,-0.0352849491946407
-0.034779849533871,-0.0800269784735443,-0.0018637369886759,-0.01333618412143
-0.0248733984727939,-0.0870200708926651,-0.0103208280211534,0.000396570680456995
-0.0137130145230051,-0.0576677019262587,-0.00532819491218744,-0.00275385893415572
0.0056481280715758,-0.027595459802291,0.0124483469586372,-0.0174752567001096
0.0399645171679329,0.0225239801506673,0.0231253014756281,-0.031381713582119
0.0493461083642822,0.083830966329802,0.0166669425207467,-0.0321274914603627
0.0465320714723991,0.107216905689715,0.00454165745110479,-0.013441336124493
0.105313707266138,0.0689885889603145,-0.00601633072824742,0.0151950335669497
0.202600684409233,0.00735595354423717,-0.0174719725397138,0.0345437396148609
0.241116483127463,-0.0299978626390753,-0.0297042479705282,0.037150148062333
0.173427749223506,-0.0437288393637143,-0.0393781007954419,0.0295743022494287
0.0518596505505361,-0.0378625872691353,-0.0452581401948505,0.0187430742841933
-0.034111161079407,0.00522881406973628,-0.0389331080081756,0.00792380664559242
-0.0783967905039962,0.0621924151823727,-0.010986989517661,-0.00182829617230781
-0.106012019600103,0.0684553418259098,0.0153678529691427,-0.0108049278274269
-0.0959145403542736,0.0415252828237331,0.0173389864557054,-0.0186850411932141
-0.0521793425977092,0.0592914186376724,0.014416697217796,-0.0239830832340266
-0.020743677382315,0.112773891655367,0.0274922087663472,-0.0239621689425751
-0.0287080666588763,0.121827306967481,0.051466295632085,-0.0147810472548625
-0.0584731753503095,0.0897703023487349,0.078651553125857,0.00484880211454131
-0.078274834682977,0.063167125664768,0.0994635857717623,0.0285303657520589
-0.0601633987541587,0.00362985707467077,0.0916899886840222,0.0426947179828599
-0.0154316417550502,-0.0783164214835503,0.0631861822135946,0.0368868728383081
-0.00166927920157595,-0.0812239332887503,0.0460946483493125,0.015752797016506
-0.0208312812477661,-0.00533078691428058,0.0410801747541163,-0.00466253934203488
-0.0256226632879077,0.0318499718031605,0.023132716960646,-0.0143755562060879
0.0217434525164125,-0.0104603778925058,-0.0175838807988768,-0.0168153743379372
0.125276117389835,-0.0490100729516523,-0.0562260140718396,-0.0194952325327402
0.212522291402196,-0.0249512329394056,-0.0719111919449741,-0.0257262903005829
0.209223548381725,0.00191943861939731,-0.0689915363851242,-0.035038711621454
0.126090301834272,-0.0299967768777871,-0.0496518227140736,-0.042569679739294
0.0213752206573224,-0.053968894824075,-0.0169090039971174,-0.0404172098684748
-0.0368167357575158,-0.0138442666393763,0.0057998501674331,-0.0268795690363809
-0.0270794722965359,0.0435633085113435,0.00459430444471063,-0.00693665601089804
0.00615101739135789,0.107060670620674,0.000911507349934289,0.0164630331143828
0.0311217666682819,0.177675783700824,0.0166231082142712,0.0408058084601134
0.0102008464246444,0.182726875967436,0.0430028297646717,0.0586449507832976
-0.0869194028770009,0.105750792467343,0.0567007610755103,0.0630725927076843
-0.180855726403541,0.024585609547715,0.0504768256530285,0.055249964212196
-0.158177946828222,-0.039477945656981,0.0305508239403612,0.0414950413715138
-0.0319281904982188,-0.0969522071429265,0.0135692582978415,0.0274608161808839
0.0830595167383735,-0.114096126603175,0.022767804712561,0.0171590151409204
0.0927351787854096,-0.0865634241340743,0.0423964556332942,0.00905837062449431
0.0112735659676101,-0.0304333457818016,0.0331889220468127,-0.00584884193429214
-0.0605281250448045,0.0272179829462513,0.0019054277959584,-0.0333989960052748
-0.0719878950610286,0.0395838548275023,-0.015236631489182,-0.0640886176313317
-0.0459175400426663,0.00498697133593722,-0.00623934188218367,-0.0784907790884644
-0.017764546783185,-0.0212969470729259,0.0158112517067329,-0.0671686249872765
-0.0195705883734851,0.0189566948860545,0.0302459490853674,-0.036701468980721
-0.0571454679343257,0.100084595149238,0.0254830948385961,3.10963051067537e-05
-0.0983731170437032,0.105730857183366,0.0082911451775185,0.0290873677455614
-0.10499672575525,0.0127172041759246,0.00249709250289464,0.0411306748078322
-0.0719502364485585,-0.0603870902227901,0.0204874489183175,0.0379121145281854
-0.0232619965236908,-0.0627157744733557,0.0290512330701315,0.0280624107470516
0.0297132295626222,-0.0679909415606028,0.00319297522941362,0.019403881682847
0.105404922738394,-0.13638415236763,-0.0362333305905904,0.0141136289467854
0.198928891827531,-0.222678006364055,-0.0711580166717052,0.00707021902673414
0.260745481751294,-0.260841914634587,-0.0980963115420449,-0.00864362358185045
0.256892883331099,-0.26126881545774,-0.110033393918508,-0.0339511395374377
0.162409393256085,-0.245972673939364,-0.100633339938749,-0.0573314584072145
-0.0233409089637667,-0.22411526125437,-0.0730873509614302,-0.0614755153225766
-0.199246732371271,-0.201391244908514,-0.0433320194947518,-0.0434052840226834
-0.254611283421175,-0.136996951720848,-0.0203340259465047,-0.016112035988923
-0.223524709880411,0.00455056916142399,0.00387542057274724,0.00728751151606551
-0.235818280174075,0.176908063026542,0.0317400125966858,0.0214575533691116
-0.325127650144077,0.319066599206166,0.0559010531357164,0.0277739773820712
-0.373160559934681,0.402805169526976,0.0656679958320477,0.0294691853051523
-0.302487221694282,0.393644903052875,0.0532850109494463,0.0302726483733985
-0.166430414172507,0.284243942697079,0.0167503052620872,0.0335476235292699
-0.00755110421736105,0.13944757826888,-0.0280963498892338,0.0356269596154517
0.18396759408749,0.0197450332950742,-0.0476707396090072,0.0271052007304492
0.374665617484843,-0.0766010936075553,-0.0445915828206068,0.00231474833818582
0.453827380855704,-0.138839074076318,-0.0479847944029157,-0.0322419792564706
0.355442620939813,-0.168355383921031,-0.0531387665833569,-0.0574867762408278
0.167154165564075,-0.216562002534884,-0.0441883792140902,-0.0599614253482147
0.0370088821654328,-0.281125003350742,-0.0296587523101855,-0.0454193243679379
0.0104769138646887,-0.299609075383847,-0.0233357506749783,-0.0260237186989305
0.02569057901556,-0.235258261596538,-0.0103651947865294,-0.00532601933152076
0.0109196651079164,-0.0895332322903571,0.0104137978327504,0.0187931179919388
-0.0538485650271677,0.0743559914933641,-0.000121892253402221,0.0413898218616146
-0.123344379019007,0.155542936602065,-0.0247011615313781,0.0500176724036098
-0.13444132153539,0.141208249519482,-0.0121240906307105,0.039555831210354
-0.0826754500651586,0.117191692656571,0.0170117213495406,0.0194403492637387
-0.0310061178651959,0.134808980997846,0.0175274182712407,0.00287761670067587
-0.00433656973664173,0.152859024587557,-0.00564755587853794,-0.00733737696207756
0.0326619003496787,0.149469980107814,-0.0175003207519721,-0.0169128071517215
0.0564471389350002,0.159538975036446,-0.00452933796963399,-0.0280391399661187
0.0307950408138627,0.184886704829652,0.00760997492283491,-0.0342537168300626
0.00549120015970077,0.182595613508791,-0.00963928719892373,-0.0271329493860921
-0.0133775855422309,0.144047100164381,-0.0213545628338409,-0.00766865120477351
-0.0373302558425452,0.102560718128347,0.0189775790699391,0.0134425651479757
0.019786268978069,0.0551143638588378,0.0594799454974094,0.0267299328871356
0.149833304234288,-0.00915762470295778,0.0487088303348723,0.0318009061902073
0.212367922296057,-0.0529192711788285,0.0271593548143466,0.0332526662774403
0.150688258756122,-0.0681785915225909,0.0290343141037788,0.0309797400073836
0.0493312038082309,-0.0757165128896151,0.0476496102473098,0.0220274430669867
0.01774311955698,-0.0480410944019894,0.0702195185644319,0.00944997441481867
0.0773076369180734,-0.0105059792432269,0.0655180867100866,0.000614764191742966
0.166947683197861,-0.0243494276093061,0.0238904839350552,-0.000382510551712177
