-0.0310532983863478,0.0778365887199634,-0.0138170478322466,0.00672462942352038
-0.0200589408020734,0.060937242542102,-0.0109609214152229,0.00350334179710065
-0.00301409287470557,0.0447244212946638,-0.00740561276634084,-0.00190493788287987
0.0142427205155885,0.0356552193207699,-0.00243727115487959,-0.00576020221726692
0.0286946812807693,0.0213481961332255,0.00340012207123042,-0.0060995611698456
0.0307691172027118,-0.0031794679365012,0.00560911801691209,-0.00352981751689139
0.0198588842214438,-0.0233501517031718,0.00532868681392301,-0.000336191080237578
0.00655296679643397,-0.0304564262653823,0.00389396122135605,0.00155134705284978
0.00104570846029791,-0.038406910043004,-0.000788452821760037,0.00165725262218374
0.00515441943562504,-0.0538507845344569,-0.00798899800853521,0.00041945169787319
0.0089015915095811,-0.0564487482593515,-0.0130330055376859,-0.00100083588076684
0.0084657103650772,-0.0374228367283741,-0.0137766973789439,-0.000875031903470267
0.00903615465345781,-0.0151489717580215,-0.0114458297104719,0.00136247366480398
0.00778548266806514,-0.0022087597211595,-0.00742906118521584,0.00424901828091261
0.00395630966122995,0.00391579653208793,-0.00441507312769614,0.00598189207534086
0.00396618274139248,0.000429046948160598,-0.00571873611848185,0.00597275215227082
0.00591925028933126,-0.0138102153537086,-0.00923563461333368,0.00457828783596511
0.00611634253426616,-0.0227346031919868,-0.0085898926472636,0.00268190155921202
0.00583095157784014,-0.0172525090549736,-0.00405299279324304,0.00169384962189066
0.0046046563794755,-0.00911928491180317,-0.0031195129092287,0.00211053458644672
0.00228931981097649,-0.00846894471609769,-0.00771056534882571,0.00225658744329
-0.000244822291218517,-0.0116419746212357,-0.0105459979571943,2.74043103788693e-05
-0.00420694857749436,-0.0157531042270275,-0.00818103804169607,-0.00384521668099586
-0.00841180377005169,-0.0232550709390109,-0.0054211713463117,-0.00609429364517824
-0.00901339305524527,-0.02649974569256,-0.00533220102397983,-0.00508908348820472
-0.0125433350294039,-0.0168988017278196,-0.00570306573132921,-0.00223290757726332
-0.024954513622065,-0.0035621357140319,-0.00451640391166995,0.00042034678702078
-0.0344711584446408,0.00348718722496091,-0.00254447577654045,0.00155342490491739
-0.0318666257775884,0.00338324318348413,-0.00234438959495949,0.000719727120837461
-0.022843407070617,-0.00431412203850286,-0.00439456921596621,-0.00152971551001654
-0.0160843217779544,-0.0158384561384371,-0.00425551005260918,-0.0044347257178843
-0.0119221037247149,-0.0224599096901315,0.000340208739951095,-0.00686751385480465
-0.00500526146143255,-0.0153549158970924,0.0066773332674046,-0.00671719636008027
-0.00185499328275282,0.00215716269373224,0.0089689913097754,-0.00280796796160467
-0.0100692068607188,0.00816683550961805,0.00523906906565836,0.00276797552496202
-0.0167715707635261,-0.00875390766289718,0.00330546412212909,0.00624224024112464
-0.0160054023934385,-0.0237660389492838,0.00714506379758137,0.00657413943436959
-0.0171735281505262,-0.00866050793933768,0.0128615710117635,0.0054755324515821
-0.0213984612279563,0.0198723700468283,0.0159939818749098,0.00402584052403616
-0.0287040011784395,0.0264381308658407,0.0163568545810241,0.00235827919764739
-0.0348541274407825,0.0119001725728153,0.0171223215799226,0.000887261859375013
-0.0302519032629747,-0.0011766959992667,0.0186054210132316,0.000494483573084761
-0.0197683290152718,-0.00493273136276839,0.0187681966705475,0.0016109891323193
-0.0141608936710302,-0.00226542432752621,0.0148254451024062,0.00343382103465769
-0.0108206613659226,0.00066895616581444,0.00926322857919144,0.00436070217207277
0.000334209430139471,0.000989890988646127,0.00899411605743531,0.00309316224928877
0.0168195673672751,0.000702378790571292,0.00843793937397558,-0.000223723646316473
0.0245014894382694,-0.00628579793053324,-0.00037441530278454,-0.00482209097466518
0.0173586653922199,-0.0219623892777617,-0.0100290970939369,-0.00970840756274619
0.00124725929309963,-0.0296969964965153,-0.0132252328025422,-0.0125422077481682
-0.0173981486191201,-0.0185574321158858,-0.0113217199190142,-0.0112058796128558
-0.0348798321613878,0.000274304053493969,-0.00829371035738201,-0.0062586632698153
-0.0452630549051148,0.0115923668881862,-0.00610315760154156,-0.000906398332952489
-0.0466816758162054,0.00945203977291163,-0.00293647651514453,0.0018468276065416
-0.0458547443964093,0.00186170818973035,0.00299950031978137,0.00178715157120453
-0.0465994926639129,0.00308332347849472,0.0095204777301642,0.000532470321608702
-0.0441498993794244,0.0130519921570312,0.01233268279583,-0.000622312272563233
-0.0360000316809021,0.0208366867678695,0.0131193433562251,-0.000902254342342232
-0.0244610836588034,0.0234241647968153,0.0165366463508411,0.000429658457653307
-0.0105383511461819,0.0246415345554053,0.0203519646058794,0.00297457296494425
0.000965211208648894,0.0223284885316645,0.0193069346634638,0.00507601705542175
0.00888627218563276,0.0169812727214063,0.0146871781906875,0.00561613833275167
0.0157769423164025,0.01707425877908,0.012515757660833,0.00471901115743068
0.0194734003935992,0.0185375960800953,0.0129172013209023,0.00310528486245455
0.0267042690738223,0.00896005103501072,0.0109662705453193,0.00135977261115825
0.0392577386721256,-0.0117459598594972,0.00323371499952798,-0.00038569940698964
0.0443993395804427,-0.0245069782900201,-0.00317936742333219,-0.00235365572093786
0.0385083593127402,-0.0143314935154909,-0.00100410135014864,-0.00475950774786304
0.0229993156087343,-0.0036285578797765,-0.000255090634224853,-0.00740785768247402
-0.00117133618644708,-0.0121112750180404,-0.0041207700115989,-0.00956777571207301
-0.0256519699019373,-0.0225177799854666,-0.00414545803798656,-0.00972201219886271
-0.0428674872416926,-0.0222479128374032,-0.00294402164339625,-0.00695904246758928
-0.0501156999792244,-0.023331208909693,-0.00371582871481897,-0.0028113518495508
-0.0529702134867658,-0.036342877738185,-0.00469181856090849,0.000605013694595145
-0.0529880777178208,-0.0453522323521689,-0.00603446210031246,0.00291403294444765
-0.0385200500160979,-0.0291380781470092,-0.00365238460587324,0.00445305227414043
-0.0162078465049806,0.00358766955470722,0.00334818434281377,0.00503306731043806
-0.0064882144570035,0.0286330798441234,0.00940521468605694,0.00431313928687643
-0.0117240920695587,0.0351843250439921,0.0134311786413954,0.00217774963441714
-0.0167438648279947,0.0299379371800311,0.0154497488672461,-0.000453228211656368
-0.010711981780079,0.0193273372037412,0.0123400226599873,-0.00186228381351051
0.00502761392970862,0.00571928463911234,0.00478452596135035,-0.00178355731713214
0.0258414111661794,-0.00243474025947668,-0.00374228394577585,-0.00172464497679976
0.0383096777650235,-0.000973620648743111,-0.0107702811934993,-0.00258420060091221
0.0302852817395866,0.00790892980469443,-0.013957077226987,-0.00366986962283725
0.0126191160692133,0.0174451267153637,-0.0135285374256151,-0.0043864330342202
0.00259327235993651,0.0146874927104911,-0.00868581619405144,-0.00473470733060255
-0.00260715953730705,0.00134534002241737,0.00167994734420176,-0.00414845059097401
-0.0101477604125898,-0.00956558330082046,0.0102965183036557,-0.00215438901832848
-0.0162018086154122,-0.0171488205993647,0.0109664183392015,0.000561713398051671
-0.0208849929419485,-0.0213799699089014,0.00848929581488411,0.00310466362121047
-0.0265034678688911,-0.0197533634222967,0.00782063943525381,0.00541413524908762
-0.0294454504440264,-0.0177918544896147,0.00836173617895698,0.00717837040694825
-0.0274982415737456,-0.0181638414386334,0.00945521635926887,0.00712847457994383
-0.0227442757394409,-0.0148176615099701,0.0107163828127669,0.00491528204354709
-0.0189291982086638,-0.00368561813417785,0.0119442070479976,0.00214586092507454
-0.0153886645091878,0.00566189000535517,0.0107426287379607,0.000281289183984723
-0.00646206347955019,-0.000541039599849229,0.00444953235560063,-0.0012706319906623
0.00430832842870481,-0.0156066640165868,-0.00138752419007845,-0.00369157850175967
0.00950253285282595,-0.0174496580054907,-0.00112928616243618,-0.00651922107803406
0.00790219203718587,-0.00307556165797739,0.00317273812240411,-0.0079490311952851
-0.00580226902433008,0.00700087795148544,0.0065135250558303,-0.00648994698862369
-0.0280378034464493,0.00596122339506495,0.00539504048698058,-0.001888696884603
-0.0423314615419036,0.0015398749830185,0.00117010362102248,0.00418149959857049
-0.0436794542073951,-0.00375938839650095,-0.000875646723767342,0.00820927434407954
-0.0375114028427538,-0.00424087213540126,0.00121111622387864,0.00760793655702559
-0.0282132374892955,0.00371436137410867,0.00333982567128852,0.00347175550051503
-0.0182922895081448,0.0157790694914781,0.00276562839309049,-0.000875933708104488
-0.00959356756090222,0.0243702477631045,0.00121935774071771,-0.00306114270884802
-0.00463188090272522,0.0211761534144482,-0.00103211624489109,-0.0028419153888816
-0.000418812537808504,0.0119474028963672,-0.00331138000283909,-0.00135438334109892
0.0122231508055573,0.00748792414329274,-0.00272792810883716,0.000254146039470988
0.0262585011561246,0.00321617523934827,-0.00171374002734937,0.00158540172574415
0.01651629513323,-0.000345878170914256,-0.000982497452129196,0.00267488176974615
-0.0132126283489539,0.00576451937008832,0.00346991392108648,0.0033810375959366
-0.0317630671956991,0.0126701942859516,0.00860942699272122,0.00361082976010836
-0.0302303044656482,0.00295986004712287,0.008907701702238,0.00332083721890789
-0.0219714293703242,-0.0141841920921919,0.007005990927248,0.0027193726012626
-0.0181892360069684,-0.0135872308806614,0.00759483821652982,0.00279480929717599
-0.0168725599338261,0.00244562894018902,0.00940261278988739,0.00424657923202822
-0.0118047407591552,0.0128740820055522,0.00995028549097595,0.00686154615894484
-0.00464882851409114,0.0115251260844803,0.00805457838993346,0.00966546749607962
0.00031734177990541,0.00516330660905522,0.00485216133401414,0.0102666139686232
0.0068746741585563,-0.00275498544542735,0.00244086422897541,0.00583053883811363
0.0193558519316139,-0.00787867143771552,0.00186196040825386,-0.00384700202629493
0.0273526183850973,-0.00918205822106423,0.00614607609114372,-0.0138826689116967
0.0184892511484867,-0.00986056091392602,0.0124371721558347,-0.0179768724535966
-0.00356277962247691,-0.00304966723164791,0.0140453344477154,-0.0156320095242199
-0.0194551226414375,0.00545526584765539,0.0100953667122444,-0.0106163016200627
-0.01829251884103,0.000511248478250341,0.00109762657419132,-0.0042830339638828
-0.0123027023895858,-0.00587814562170538,-0.00767813234776754,0.00329465444774428
-0.0113295163956606,0.00276448248828123,-0.00830036417486574,0.00898444001323962
-0.0129753042309022,0.0152229175031274,-0.00370465175271733,0.00985892466363198
-0.0136669125050173,0.0176105780332828,-0.000982823954616279,0.00764065406489577
-0.0102861561951406,0.0126758158155702,-0.000801799447172333,0.0058081470505297
-0.0039560226070504,0.010009908566066,-0.0008568208609396,0.00565299970077966
-0.000887135111156885,0.0137015384822001,0.000790502277621702,0.00593305928875411
-0.00430137632903107,0.0159175109477529,0.00404923707362719,0.00449257353479892
-0.0089205843963812,0.00990756562241443,0.00647837515297101,0.000996321803908623
-0.00764524244015069,-0.00219123226527875,0.00578108696334116,-0.0025146461603308
0.000625968997398923,-0.0128991917342251,0.000633424382020948,-0.00418771672559019
0.0103596377501567,-0.0124116213433291,-0.00467935524160068,-0.00403648114729401
0.0129454042169645,-0.000281493666062067,-0.00225293826624117,-0.00301141174934807
0.00758534782008851,0.0078235058955303,0.00447846257616388,-0.00180792161586472
0.000310315061192668,0.00148784592266292,0.00576386851396508,-0.000927539144632244
-0.00625101583038729,-0.0137990784647666,0.0011955000504244,-0.00104866924736666
-0.00787193205681209,-0.0331688260889996,-0.00565803158937616,-0.0024195784566635
0.000103125703985397,-0.0458442842224541,-0.0119919132715237,-0.00397178840231554
0.0144750377215007,-0.0388472194019613,-0.0148357751569748,-0.00429695062280699
0.0272299119745585,-0.0200259894755237,-0.0157172776039176,-0.00293578831481551
0.0279388286896382,-0.00343686818832002,-0.014476653772782,-0.000663127724077241
0.01493791684045,0.00562958599554281,-0.00980825055057351,0.00109685258497993
0.0032538307295064,0.00583084821681382,-0.00644167411119415,0.00193467241505664
0.00510726666939881,0.00393250145837907,-0.0063807843049508,0.00238785245702559
0.0171018400865774,0.0118840115951697,-0.00577482631471395,0.002613564714239
0.0250417527402784,0.0242887041448342,-0.00271912208806064,0.00251399826522769
0.0199202552164385,0.0262268165539614,7.04146492752566e-05,0.00214146099955299
0.0120205500188669,0.0213573981976204,-0.00026236124454055,0.00190703302864186
0.0102593630118778,0.00896169774873515,-0.00396211998927434,0.00204745743043653
0.00735973400541748,-0.0130246994825689,-0.00678745530654948,0.00162951913629692
0.00192253239112262,-0.0185870142346343,-0.0027915874101197,0.000137072896347596
-0.000945793906619242,-0.00240709666547644,0.00400819251054479,-0.00127529966006755
-0.00543620579104868,0.00798956015172024,0.00557566869932554,-0.00185835359074739
-0.0118012153118586,0.00727551753084231,0.00298215027558172,-0.00249539591768073
-0.0120207081764256,0.00528063739037152,-0.00117011891598963,-0.00372849809051375
-0.00736394121024287,0.00210386123065492,-0.00736653584441798,-0.00444405552052614
-0.0046627862031847,-0.00200816908550626,-0.012311018853174,-0.00375120634947463
-0.00332936652360116,-0.00547904666259067,-0.0116819272549489,-0.00175322175792288
-0.00195189560120905,-0.00868566501085951,-0.0088542980729806,0.00106004433133931
-0.00673019646485145,-0.0110531857194354,-0.0090667220131819,0.0034462832931803
-0.0174078110608497,-0.0119130217890457,-0.0114825901017117,0.0042018644000237
-0.0151232716093065,-0.0102178619986161,-0.013024836465851,0.00362436874221262
0.000568079951053166,-0.00316425074837336,-0.012191445432653,0.00339252472257026
0.00593215969251705,0.0111814032924145,-0.0101129559525662,0.00452272949606057
0.000470569642497563,0.0301915932704452,-0.00656771082685728,0.0059785355324394
-0.00180263090831109,0.0456467148156995,-0.0003808729509924,0.00614339923597028
-0.000765021571944555,0.0511639699096177,0.00588251667025963,0.00424190785940144
-0.00222528562379091,0.0514679787691582,0.0119877912488355,0.000988149234240548
-0.00878884704807245,0.0481827782306154,0.0155927748549789,-0.00181220021251084
-0.0178362454342535,0.0374437835333418,0.0127291960450548,-0.00355184063481327
-0.0251928191434833,0.0238070582535911,0.00892773474774325,-0.00476408471217771
-0.0276414078212347,0.0111265098187435,0.0103096516238045,-0.00517683103859774
-0.0249101049798749,0.000990317342627448,0.0150544665488034,-0.00390084242976199
-0.0248547703228635,-0.00107853333437537,0.0172885220313473,-0.000731587263759689
-0.0252501066442011,0.00335958631055935,0.0153622718656436,0.00356929420375246
-0.0171856454193156,0.00339408273873064,0.0108742057959532,0.0074831189441101
-0.00997142644627852,0.00253010845635345,0.005833586834927,0.00885165935067343
-0.00706999417489857,0.0101770236863236,-0.000816747606715032,0.00661642314629525
0.00760285399411988,0.0083287685791725,-0.0121435849988191,0.00284649881144926
0.0369181422259649,-0.0299609294925915,-0.0249351894689332,0.000289740118182702
0.0615302463100606,-0.0883862776948777,-0.0343727935375563,-0.00108021544521308
0.0604643012405339,-0.102263539983429,-0.0332943398674851,-0.00237433189456878
0.0322542657038244,-0.0531292761535991,-0.0206455785387776,-0.00322958983905436
0.000234722823304584,-0.00192938406072313,-0.00971432478688816,-0.00275367181506563
-0.0149994780742445,0.0159742481803993,-0.00596750308335531,-0.00100234743375906
-0.0179021473108046,0.0166515915651988,-0.000670928836981922,0.00105570472642891
-0.0180820884994407,0.012164564821461,0.00917580982200815,0.00250740514104846
-0.0163232962990987,0.00559223125981409,0.0153838831840932,0.00275646216071954
-0.0128962610842701,0.00379393070885255,0.0149280887415669,0.000839185101759613
-0.00790733257467426,0.014358507783955,0.0146153053429706,-0.0030883022793804
-0.00226847586952381,0.0287068437621993,0.0152285056309021,-0.00676766835246664
0.0013445433862018,0.0283241741322322,0.00975994502472099,-0.00881636021491054
-0.00293092492006148,0.0165224654459749,0.00172921027359518,-0.00886863585607282
-0.0166233297586783,0.0061615705143117,0.00119497460681842,-0.00531395370493962
-0.0257228597752805,0.000476968369432559,0.00581527539365445,0.00176543653196694
-0.0202196114415787,-0.00214563322147667,0.00681686982970267,0.00847769087591805
-0.0112307148055855,-0.00697593945355281,0.000846688259246123,0.0106940218050701
-0.00807989293994783,-0.00721535135896702,-0.0050363771761476,0.00753907030786028
-0.00526030834874173,0.00942888269832905,-0.00359133231610597,0.00140594077322165
0.00285029167799643,0.0266682001977185,0.000240287227017041,-0.004178255266397
0.0155845676500167,0.0104327909140622,-0.00332631871150909,-0.00649186843887296
0.0321749595225486,-0.035577640818951,-0.0148377496540346,-0.00518736257685504
0.0515722108332957,-0.0633900265974883,-0.0245260966645136,-0.00216753679947204
0.0633467970801446,-0.048863012768356,-0.024022889440658,0.000648036853083895
0.0553555585707311,-0.0165148923093168,-0.0139617684336995,0.00236628869930532
0.0372255186622188,0.00593874225451172,-0.00403089093857208,0.00230824192434475
0.0304839983042533,0.0124210976190474,0.000235332105186056,-0.000287856992066907
0.0335300755258444,0.00517081103340456,-0.00155069843315364,-0.00516402325549181
0.0334144002590219,-0.012139988845804,-0.00790245990322684,-0.0101913129965482
0.0300525206692762,-0.0240848255698947,-0.0105818362039544,-0.0119578771808858
0.0229829029943048,-0.0183041868345164,-0.00532229993089225,-0.00878483653584429
0.00955718775986408,-0.00493823025193657,0.00244314460395323,-0.00309197216642234
-0.00460866037314802,0.00688842923310203,0.00519869123294115,0.00149796618678325
-0.0141644253200771,0.0195794823833666,0.0026740356285169,0.00353339592721281
-0.0167934727932744,0.0267010570958101,0.000186334160930184,0.00324533889874342
-0.0131176722414131,0.0171304588705104,-0.00195706302307271,0.00147410830049401
-0.0103815580669435,0.00219107157129305,-0.00297049580119504,-0.000253959229156891
-0.0161766500517789,0.00454889115199082,0.000477971379947133,-0.000777679231881208
-0.0286361447637788,0.0173434944176594,0.00484828176737116,-0.000422976637064925
-0.0348825374461209,0.0227376476562033,0.00485167952210688,-0.000185103143924245
-0.0315133656943593,0.0225151074769577,0.00316115823827144,-0.000674179487044591
-0.0275007940610925,0.0204453454707905,0.00414032994040325,-0.00161963509991267
-0.021124577147949,0.0161007439995782,0.00365706794328033,-0.00234282581640639
-0.00693794430968504,0.00677442392575817,-0.00177564286096965,-0.00266023248521973
0.00854871238019684,-0.00590579100087376,-0.00660555811295933,-0.0027460533491279
0.0156657472344571,-0.00487158342326126,-0.0057994790624436,-0.00260089428561648
0.0146289885539826,0.0109520858593341,-0.00220803528654414,-0.00208880200436631
0.016003069956787,0.0171182865625089,-0.00100025017401549,-0.000793683365558251
0.0254181346705269,0.0100189983826917,-0.00249673190242769,0.00177326550600452
0.0366349772339992,0.00971353881660311,-0.00312746432972598,0.0049877258705891
0.0385535258904026,0.0151394316040659,-0.00109909141226256,0.00708214914339502
0.0268676595883514,0.0054564022904256,0.000643577216978245,0.00693350216387948
0.00927352961772809,-0.0159637872351663,-0.00122645187746386,0.00505828822275781
-0.00817713134677992,-0.0223286806837561,-0.00323490275176742,0.00248705551460962
-0.0281626575765775,-0.00654634717602695,0.000280355884493063,-9.13118193434856e-05
-0.0501414180239809,0.014440126798839,0.00557966810412101,-0.00221433760496426
-0.0661102411378463,0.0277193280815884,0.00562072195826593,-0.00380694228532939
-0.0715205218983206,0.0305070494864694,0.00295440702525639,-0.00455345892051922
-0.0693685743213241,0.0272140896438308,0.00317250582974122,-0.00373766571857479
-0.0620069125050216,0.0185442717537064,0.00555334948089877,-0.00138642084482921
-0.0479530953021579,-0.00787340554218842,0.00536883381241472,0.00190635648087172
-0.0319610532942654,-0.0381858100531255,0.00131971238543036,0.00510095175447691
-0.0201773384643836,-0.0365502673825755,-0.00254311070592509,0.00661822534285786
-0.0107274366932148,-0.0111733979380331,-0.00387517651470936,0.00573848619979795
0.000533241920370416,0.00161974522733874,-0.0066966239301795,0.00322318022321114
0.018880301451387,-0.0078127606049816,-0.0132912282682572,0.000264005940564249
0.0432555818510108,-0.0196914449273714,-0.0166761481438177,-0.00221908661764137
0.0531938940662386,-0.0150523800748544,-0.0128606052210138,-0.00323572155108693
0.0299434254852116,0.0023838988367048,-0.00349250108849008,-0.00220338307406377
-0.00510083599908197,0.0173699147087856,0.0063601409824318,0.000170646892384739
-0.0207810797372444,0.0242717565774238,0.00974859296830498,0.00251754365499769
-0.0196893088390254,0.0260343085504273,0.00942604692703683,0.003824112996712
-0.0149864900698506,0.0230577444410618,0.0100010955679921,0.00355232484987344
-0.0119108277014504,0.0145670196208113,0.00846680817262974,0.00173203131705018
-0.0100211093200889,0.00380824194473943,0.00447574716119978,-0.000594198800855279
-0.00740494625760268,-0.00247682516416069,0.00130014216690344,-0.00182010437912511
-0.00773012361062845,-0.00272041211335216,-0.000996827042405091,-0.00135955697560564
-0.0122024668503392,-0.00174629713207713,-0.00306146362450995,-0.000412918939029452
-0.0118426982726125,-0.00462008516117678,-0.00711337533097273,-0.000181536695705703
-0.00286607507340775,-0.0103389712671618,-0.0143175089894103,-0.000473470189722145
0.00147273678524531,-0.00600637881608031,-0.0184823756767233,-0.000599138276252663
-0.0044166623125166,0.0124062823870134,-0.0148259311399579,-0.000350159457062185
-0.00860671342208549,0.0243012796046722,-0.00806779261162694,-5.22932389281534e-05
-0.00636072241579509,0.0194212391600573,-0.00478921770527507,0.000169107331631025
-0.00250015863787284,0.0143519315067559,-0.00602188884749291,0.000297171453255237
-0.000494589853935193,0.0184782870478998,-0.00830380020785512,-3.32475460674483e-05
-0.00197890006213873,0.0219402428570507,-0.00876832202370718,-0.000894407200075261
-0.00529076131781325,0.019805961587601,-0.00683627166700957,-0.00146634353443685
-0.0052401329270004,0.0136969687697815,-0.00391344323683244,-0.000860550944785268
0.00214451833633189,0.00479780750000505,-0.00102816640007686,0.000527167833596739
0.012147449752535,-3.0005926529672e-05,0.000223005146728684,0.00142942577705511
0.0152597330623252,0.00230083939363434,-0.00118367824160891,0.00123248203119863
0.00922755305160066,0.00774108439593327,-0.00179248089046622,0.000244218961864742
0.000377411041917185,0.013011822144157,-0.00205756124393772,-0.00118971780338918
-0.00369440653105551,0.013311405104969,-0.00384486716158872,-0.00300619365217232
-0.00257477224138842,0.00986791036277996,-0.00462379001711392,-0.00533728457169139
-0.00108051413764023,0.0120128451696988,-0.00474573481453277,-0.00777042734702763
-0.00130768064477474,0.0176874979221402,-0.00398835554228041,-0.00829971549515626
-0.00172673392935409,0.0176753927821301,-0.0015898732143307,-0.00510558574801699
0.000592959267925873,0.00778550778436781,-0.00610953385109672,-7.66953899147965e-05
0.00861522767783544,-0.00476026385428838,-0.0140505107242424,0.002320486096088
0.0194655989252751,-0.00594561610738252,-0.0123201435027477,0.0010891373698167
0.0229008287164838,-0.000460326868035325,-0.00758343497638253,-0.000649101965540214
0.0159270434226308,-0.00107027964244366,-0.00658673237556807,-0.00116241009908101
0.00464162022277912,-0.00421376688767641,-0.0041478257650405,-0.00107972320330415
-0.0071446569490713,-0.00153218169527052,8.90519330943567e-05,-0.000697196090198741
-0.0161140739978302,0.00627408452486134,0.00457753437329327,1.06059767896747e-05
-0.0223566288159335,0.0123867685632174,0.00938143037787798,0.00053440934569838
-0.0249516669545844,0.0153394946381675,0.0127601895252007,0.000650598277971471
-0.0218597940892565,0.0168268617127688,0.0139547925062437,0.000921886359116974
-0.0182989802727255,0.012086657195126,0.0111040299592188,0.00145684247898687
-0.0152422075210292,-0.00299480768308015,0.00583008789822895,0.00139865195955557
-0.0114076691822033,-0.0124120762849653,0.00502825261755484,0.00050533663535558
-0.0107238997393197,-0.00222817775482464,0.00881420682198787,-0.000442567249822044
-0.012963872328493,0.00172305663446114,0.00820881887296284,-0.00104129451242591
-0.00912216246465118,-0.0155621966268576,-0.000932423434774251,-0.00178253036612497
0.00582568292077405,-0.0229292367703265,-0.00780152682121757,-0.0032843189551429
0.0148058847049985,-0.0076493715922862,-0.0056932829485044,-0.00510471780753659
0.00476694593978622,0.00895269337697036,-0.00435797083544409,-0.00561529156265131
-0.0050173146843674,0.0187586024559279,-0.00826731421418987,-0.00362859534195232
-0.000721273526069011,0.0228264212765787,-0.00925654319372863,-9.64276105560671e-05
0.00160421897277689,0.0174013163353076,-0.00303238624657754,0.00282470196021861
-0.0118017069797965,0.00509234082070104,0.00415343679556567,0.00384218764126221
-0.0258049335630427,-0.00497829007636497,0.00654361736306616,0.0027794693509755
-0.0240553041866281,-0.00818681421489487,0.00514422195837657,0.00055914680420891
-0.0158091021287677,-0.00896823898816787,0.00435112218854227,-0.000807887013760021
-0.0115072714726058,-0.0123578675340804,0.00618758779069958,-7.7660104889307e-05
-0.00805830715616594,-0.0181325916853046,0.00812526045924863,0.00168319433728588
0.00120803367660683,-0.0263170162169234,0.00817533299787237,0.00275525300971603
0.0189495462000509,-0.0328899767169739,0.00622689597112416,0.00247785604615704
0.0324476721775516,-0.031716712485259,0.00430053592509771,0.000856354430914791
0.0300024518800997,-0.02513832761732,0.00479590439325304,-0.00141619689448051
0.0224265583113923,-0.0149557167505798,0.00549074067355779,-0.00287653628777727
0.0174800006055863,8.30478366836123e-05,0.00349994607003568,-0.00275718634429637
0.0095724460443392,0.0162633725832942,0.00156414569418047,-0.00205297706641047
-2.96389672845392e-05,0.0259575739330594,0.00304131602430266,-0.00217605347192476
-0.00339623377656862,0.0227728987837274,0.0046747318442478,-0.00271255036089857
2.96209524499429e-05,0.0127769303655128,0.00372146552216738,-0.00190501396963
0.00130232491283899,0.0115471950870152,0.00245661077995504,0.000373737495367816
-0.00322763385657577,0.0174817558034329,0.00138591395924058,0.0026774864772832
-0.00622158291564602,0.0143017089207809,0.00063354872368601,0.00444536509804853
-0.0037783530353867,0.00182939677544395,0.00119034860558324,0.00556681820075369
-0.00116051657273307,-0.00654090929425832,0.00155011115695699,0.00551992726784474
0.00245554179058832,-0.00770271703570532,0.00194040709129889,0.00447069949677102
0.0131600769366436,-0.00323051162340407,0.00393487713740228,0.0032902524761886
0.0225293284508935,0.00388855620176018,0.00433022667171663,0.00235473454128323
0.0191951661127392,0.00671103424475178,-0.00191014290748877,0.00127387047342152
0.00947295862351973,0.00450386102705427,-0.014110121819239,-0.000469293025822904
0.0054602804029764,0.00711341583927529,-0.0174542308438467,-0.00278146238752165
0.00616525616117464,0.0259957946504819,-0.00421685067864041,-0.00432985512856495
0.00743790421510345,0.0502359843908384,0.00859431037355024,-0.00344607855121423
0.013939712632587,0.0627563939782693,0.00899586508682856,-0.000519795870034616
0.0222622470703979,0.0643776256995042,0.00384852694492127,0.00213982556078202
0.0226911848461692,0.0489452829887649,0.000335688804261039,0.0030808046641095
0.015287133741508,0.0181206506913363,-0.000974348550891193,0.00258916810752991
0.00834714896677798,-0.00596536291747142,0.000630504376230447,0.00156753354341232
0.00812310835175454,-0.0217581480200242,0.00167149687601546,0.000924720151095944
0.0115073559472874,-0.0343363666725287,-0.00308569044482145,0.00171368159252979
0.0139562172598526,-0.0414438080375507,-0.00992320053125686,0.00470185176280415
0.0137610555332185,-0.0480490843287726,-0.0141928779590925,0.00859385284983389
0.00909846404803603,-0.044378015244548,-0.0145657117892971,0.00987519880519497
-0.000104925614496862,-0.0212118161817906,-0.0116896568008767,0.00677742286213609
-0.00885196213480681,0.00445583213676654,-0.011495553556903,0.00210489037091963
-0.0121829030020275,0.0150436828418149,-0.0173954804551021,-0.000774746533732036
-0.0102234042158726,0.01522271344301,-0.0197448976452473,-0.00225854030597502
-0.00676494414473896,0.0162078678447643,-0.0101088176112618,-0.00344337750872822
-0.00539401598131327,0.0155705373563907,0.00279211545537825,-0.0031484538360606
-0.00870773685538991,0.0137530170727966,0.0114676757406598,-0.00116697380232658
-0.0170661384186624,0.0138251547736302,0.0171672741808221,-0.000312409553312435
-0.0244386166352433,0.0117901535237028,0.0187999540899147,-0.00246755364486776
-0.0257860802324627,0.00837016101779381,0.016251404645624,-0.00516100699199501
-0.0181711972254826,0.00202031501059108,0.0127600272547727,-0.00452540655652277
-0.00218277092716768,-0.00973850427084442,0.00974034877732099,-3.94123252631107e-07
0.0147136984493848,-0.017881027954097,0.00589762977649272,0.00561949417350452
0.0298181497567734,-0.01863916615039,0.00206982814334401,0.00932304599629971
0.0415773004947235,-0.0210564221767069,-0.00228756119885323,0.00958768448291798
0.0446439858491184,-0.0245957608098927,-0.0106130365252183,0.00659210335720485
0.0430312100001695,-0.0213220055480114,-0.0204317939396399,0.00188545040635871
0.0400866241586519,-0.014787008905339,-0.0232248663013084,-0.00242317149694472
0.0300291897030162,-0.0117010425468116,-0.0164578554325134,-0.00441592909758536
0.0126983592583433,-0.0131179543461569,-0.00793370745409977,-0.00371480990903414
-0.00511182833944066,-0.0190145331027038,-0.00289555040445862,-0.00184826226976838
-0.0181893287875469,-0.0230984152306285,0.00108105551806934,-0.00029663119438666
-0.0269026978608865,-0.0153690761809981,0.00606816609917954,0.000925848810915905
-0.0315653262732586,0.000518855996716538,0.0102697886037548,0.0024223731520436
-0.0268626983202691,0.00791431243912959,0.011051078523067,0.00383712609680215
-0.0136568535468442,-0.00236022663451938,0.00692015646367101,0.00436392501132742
-0.00257973586042732,-0.0164924013913055,-0.0012739606670753,0.00372921756875278
0.00178343816372471,-0.0172946051231809,-0.0088456389942991,0.000893940619206423
0.000456689803730078,-0.0107920855926333,-0.0103753181143469,-0.00499597123243562
-0.000921071791675546,-0.00998565053342519,-0.00655519159940727,-0.0111604390045722
0.00686150959139491,-0.0141190210316437,-0.00134928126409719,-0.0126761801801595
0.0172247299996885,-0.0133225555114716,0.00332949727051874,-0.00769757570184451
0.0162951497265658,-0.00628005484886184,0.00583391937047051,0.000835326671583442
0.00997823002236219,-0.00602898458724764,0.00769539388273855,0.0079092568253443
0.00884090390463197,-0.0205315672864299,0.00768671095225087,0.00996826070086452
0.00484367437829914,-0.031538265966895,0.00316036947492294,0.00680943260547735
-0.00731838112101366,-0.0178717655916055,0.000387067757214033,0.00120988974332673
-0.0145965791519994,0.00578961064698701,0.00299534498113414,-0.00359092126574309
-0.0107146137939717,0.0140476728436623,0.0058332929094434,-0.00590054411881905
-0.0030528057427029,0.00755020398278197,0.00488347603690287,-0.0056322084647514
0.00260978974385439,0.00161287829158647,0.00386665539027284,-0.00403176088508788
0.00208239920766711,0.0023346543339351,0.00863435589799129,-0.00282035797399392
-0.0061954534174638,0.00578371670333215,0.0128561435454472,-0.0024691522452881
-0.0133626756418793,0.0079319388788374,0.00906558394700021,-0.0020200299335795
-0.00342136323996331,0.00188636104853235,0.00354450490496432,-0.000425095419017738
0.0145635878684031,-0.00936161588188325,0.00125112633086546,0.00263373192128939
0.0116483727527496,-0.00509284857609397,0.000222231168639054,0.00672888246360204
-0.00462674545110761,0.0167606009409308,-0.000579194694843558,0.0111170197235237
-0.0139371815686793,0.0279780461856488,-0.00213769423377342,0.0140814983368808
-0.0213355916804208,0.0222535897376823,-0.00129462858572504,0.0129614240884232
-0.0206074889664924,0.027058449399896,0.00754163533377202,0.0071325399953367
0.0030812279374019,0.0417122884860665,0.0159635202909843,-0.00149843209170119
0.0294015967043248,0.044788240268745,0.0152251444395951,-0.0108081481250744
0.0263365736906898,0.0331391768316894,0.0110291431219377,-0.0175031728489699
0.00123338851700438,0.00511066595879948,0.007205589472383,-0.0177352391504186
-0.022557155030311,-0.0265892425128202,0.00462322014953801,-0.0110495373564982
-0.033482124447963,-0.0375892782290275,0.00578179246701495,-0.00112733288731111
-0.0272367157760444,-0.0282130238302863,0.00830532716254175,0.00689800221091535
-0.0161613227774199,-0.0163587845739052,0.00579264792615061,0.00979637632082429
-0.0154064819399641,-0.00746404060635656,-0.000352798617401673,0.00739343299053967
-0.0243755082781464,0.0137007590123944,-0.00484977087224626,0.002012767399318
-0.0348397283556682,0.0432495633186642,-0.00873160337966941,-0.00286365314833143
-0.0365625664833206,0.0520706622764681,-0.0106368909754775,-0.00484495163140317
-0.0295775981251516,0.0362819995255789,-0.00605576800862301,-0.00352910315482002
-0.0205832023672017,0.015443335264033,0.00362792107507052,-0.000390840130149461
-0.00926736588050985,0.00639863663522834,0.0141479675486421,0.00197049652805198
0.00383373188468987,0.0153078122282002,0.0217942158170794,0.00236005036152618
0.0187777573056966,0.0231504329686622,0.0197892487568684,0.00183054487338707
0.0367037476080897,0.00367929844000972,0.00984786050682603,0.0015931941011543
0.0562397738802899,-0.0397719068097694,0.00209367350740565,0.00198219839228886
0.0685791706292574,-0.0677386732028307,0.00157444569447739,0.00313812570236122
0.0620070056408809,-0.0486878095992799,0.00755049505513207,0.0048035730406372
0.0443506127930985,-0.00788717526395247,0.0124395794134453,0.0055608136374384
0.0328142282527162,0.0176524077349253,0.0129118321161378,0.00413212081706416
0.025562289373341,0.0219039023988735,0.0110180551883488,0.000809215711595528
0.014318930947426,0.0125444465253031,0.00756663825399815,-0.00300253211718693
0.00209768601739393,0.00623893287981627,0.00511842475790636,-0.00547147641972978
-0.0121779151975557,0.0131890445787699,0.00293096973456243,-0.00569369997991393
-0.030367982561629,0.0230984662084943,-0.00297742283793691,-0.00484634854146314
-0.0411960776887815,0.0262254071176421,-0.00740767952434676,-0.00471520476548042
-0.0370650046168088,0.0245104206152146,-0.00316336565534717,-0.00555972633489071
-0.0230961948091536,0.0181634058609208,0.00157452380413883,-0.00622910137495419
-0.00853185646456407,0.00794035613090405,0.00112749443699692,-0.00605764001481055
0.00180358688594124,-0.00111608789454664,0.00189261456929353,-0.00480846296279218
0.013397394050233,-0.00911264855312066,0.00409874877859447,-0.0018235732845315
0.029082379929691,-0.0158745531135252,0.00430714885908519,0.00235685198121092
0.0419496675865379,-0.00695435309495963,0.00536488454964448,0.00524536786919692
0.0421837817020361,0.0197761393591742,0.00846671397735982,0.00505083360510839
0.027199053313039,0.0328844625041751,0.0104299523313229,0.00269347719699847
0.0112435321681915,0.0170710727753866,0.00913091625125655,0.000294680438393646
0.00590430216026857,-0.00713772306107637,0.00392560078081304,-0.000544759872805431
0.00382456554034143,-0.0224544359057473,-0.00328024018205068,0.0002882911924652
-0.00134938112774961,-0.0262287040493082,-0.00963463600569891,0.00151770619018426
-0.00495092156024573,-0.0216147165309429,-0.0156686210808976,0.00236910339005734
-0.00862226631489585,-0.0142903050661384,-0.0183068526982526,0.00284379500505024
-0.0149482286398995,-0.00531173879599493,-0.0111573824396549,0.00297819710740066
-0.0156210682680297,0.00693285515764539,0.000318929804366404,0.00302158739364958
-0.00727081949408449,0.0174395984545534,0.00508951594423903,0.00276632433317443
0.00325666443008973,0.0189364559808941,0.00156676246161088,0.00118067480787273
0.00908784252792009,0.0155039491907693,-0.00592529220866767,-0.00187170724620932
0.0116044191229601,0.0172521593049388,-0.0130273758506461,-0.00464181765250587
0.0139274500224297,0.0227639657154981,-0.0138043845926918,-0.00506789780874119
0.0135388686549261,0.0259375976452965,-0.00394628158885579,-0.00291023351268777
0.0143342367128957,0.0229752377787136,0.00883519327695063,-0.000130718021896805
0.0193043953529776,0.0113218342102469,0.0134805661424617,0.00123145930617245
0.020490034682153,-0.00661818728633922,0.00987955605836596,0.000917848726945247
0.0153974024033659,-0.0313435984529423,0.00246441104560504,-0.000145542301783165
0.00545880485540793,-0.0502449871107294,-0.00235062162646548,-0.00126681605272187
-0.0091107946922995,-0.040150156790604,0.000905890216638419,-0.00198394450839433
-0.020829694326466,-0.0131361415207413,0.00738422424765137,-0.0010812821790037
-0.0260620801344481,0.00476560671534423,0.00662401534323305,0.00189827293208655
-0.0275307508939902,0.0111480711202034,-0.00215662819450228,0.00489904893863951
-0.0266321183470788,0.0122487006167108,-0.0086589065400746,0.00565312232936174
-0.0255558740354417,0.0119232437408318,-0.00853196353385164,0.00384565598811245
-0.0243398133064921,0.0121073603682042,-0.00676798033424627,0.00087513566909083
-0.0194137682970315,0.0124653171242781,-0.00607867074548677,-0.000967749217311011
-0.00754234815934582,0.0125492013982193,-0.00708324992633002,-0.000309119355295348
0.0065536927796335,0.00856741129127338,-0.008986161788357,0.00215700638630666
0.013341181593538,-0.0077652161657234,-0.0109943754105478,0.00438342161036013
0.0129867430258589,-0.0299025856122739,-0.0148062299328149,0.00449054889244917
0.0137614232480282,-0.0426808346277696,-0.0178505750949207,0.00223605067921091
0.0187340614214231,-0.0413952630673709,-0.0156204799983453,-0.00107200929765142
0.0252265429187104,-0.0255698823880306,-0.00882257332084808,-0.00350633698355947
0.0311023232855457,-0.00839217715255642,-0.0032077628217314,-0.00380908973632027
0.0310733484795886,-0.00475904557142219,-0.000989357042887431,-0.00256050673802017
0.0235232434480524,-0.00585797691125615,0.0014848943837525,-0.00101072971055156
0.0178023254348194,-0.00337876366650749,0.0052790264960942,0.00015906248049842
0.0164686682085515,-0.00409945690478471,0.00772672550757522,0.000598724858633355
0.0168486234314223,-0.00965306831611543,0.00843126001210088,0.000287951093115137
0.0172672438534504,-0.0138879499485324,0.00759877989107027,-0.00041307703726489
0.0128001089377548,-0.0159050079026551,0.00377896509948792,-0.000510632108753461
0.0075208563311769,-0.0176633036802198,9.14523037013164e-05,0.000513509872418829
0.00747448096932087,-0.0175547541869329,-0.000515905568080784,0.00157885403380411
0.00989035212377203,-0.0192877559788984,-0.00323457791727325,0.00159343735707582
0.0127309648237266,-0.0246452901948319,-0.00927741308417862,0.0005655124456741
0.0121143692876732,-0.0280361194430635,-0.0133623498405606,-0.00105292833800453
0.00681392614474902,-0.0278328035383669,-0.0150869730116588,-0.00320742583666087
0.00971422369037684,-0.0227709589312748,-0.0143211899479438,-0.00560543550794895
0.022854582403866,-0.0126032703687145,-0.010535951841341,-0.0071349312682744
0.0276000133638784,-0.00153445408210814,-0.00760955610192784,-0.00700131284992052
0.018206770484288,0.00675856361796806,-0.00753563603228173,-0.005435994263516
0.00627506352467761,0.0127047831217818,-0.00745579806113801,-0.0030221505501082
0.00086784068935955,0.0200877090342257,-0.00502694581149192,-0.00033582716992566
0.00416524815568477,0.0341982739702585,-0.000212397818858961,0.00164363646565717
0.0115871328021261,0.0506918740615275,0.00392006064904486,0.00220769739814654
0.0147358354248077,0.0526620716554339,0.00581381207957783,0.00151756357306712
0.0100144832738188,0.0382928488909216,0.00841316640531745,2.43306636236309e-05
0.00416335999253553,0.0255880224721523,0.0116449555073584,-0.00153079379390854
0.00312684616528128,0.0203829480910962,0.0126062791097825,-0.00250441957482224
0.00444337381190053,0.00807031736238643,0.0101466615339524,-0.00324752290405606
0.00476483097104741,-0.0152971396704126,0.00429891441156874,-0.00422668008656876
0.00691544847531226,-0.0355522370286035,-0.00291176286123731,-0.00486370076608167
0.0147893105932623,-0.0445078087537307,-0.00530425336001277,-0.00456882263609143
0.0196129748260014,-0.0403931918107517,-0.000380878442552888,-0.00367563148212184
0.0152167413004872,-0.0262627941348766,0.00323495361043557,-0.00272836676130189
0.0145246975245826,-0.0221028249269783,-0.00127631922685669,-0.00220220157414921
0.0218152947898482,-0.0311606573800971,-0.00824675885018961,-0.00203523322228623
0.0220598152977486,-0.0227004304681743,-0.0107990950388864,-0.00151363529361905
0.011303419664343,0.00655117762524755,-0.00721000307749748,-0.000610690936133601
-0.000391744946889809,0.0293538784359508,-0.000443443177019257,9.9182450597232e-06
-0.00661656531290408,0.035025315774362,0.000337238230534087,5.83094909951303e-05
-0.00878539438446925,0.0299154571100385,-0.00534860364138031,-0.000587403762892173
-0.00966405256492303,0.0212828695343594,-0.00829701849396221,-0.00199138080449753
-0.00985361711013515,0.0110531541412605,-0.00616106857717241,-0.00332759834776334
-0.0164024440382502,-0.00113384408965887,-0.00479028712976919,-0.00342596299227111
-0.0316382150143571,-0.0100455425559162,-0.00372631068058598,-0.00228689516655707
-0.0406540498175133,-0.00829881936249477,0.00441327161890965,-0.000817104430218286
-0.0309193144974403,-0.00234976046244897,0.012253440410498,0.000230595480346533
-0.010973073599308,-0.00302681033251991,0.0110647065885603,0.000468914454338619
0.00278692447699955,-0.00652590574700642,0.00657021259289141,-0.000421908333963
0.0112268228158975,-0.00593676365665434,0.00391807060666057,-0.00217387543412845
0.0228843788916961,-0.00474435968538152,0.00270596366142342,-0.00317157245837977
0.0326988919902447,-0.00780914456010155,0.0013721974896617,-0.00199990130729705
0.0327923367991724,-0.0131713028300448,0.000471798409804479,0.00063809124261084
0.0260350655714112,-0.0187857214706243,-7.17146663534209e-05,0.00283188053228994
0.0211384794716468,-0.0239973081732843,-0.000405736002648979,0.00323417825204689
0.0184232458907133,-0.0256518474235419,0.00123367157034766,0.0016940210938606
0.0115645906561672,-0.0242466272483963,0.00222596591334763,-0.000557956054165711
0.000392725583086177,-0.023127921266623,-0.000434399273580246,-0.00159726096254826
-0.0147052050464868,-0.0226791632473134,-0.00527514942347965,-5.72913075100124e-05
-0.0325233405247951,-0.0213313123529843,-0.010196968223147,0.00315617625579497
-0.044665924155668,-0.0222119092015394,-0.0117698993509886,0.00536031872360871
-0.0434528869459361,-0.0317848274622429,-0.0101709847452672,0.00574020836174385
-0.0354547799883471,-0.043131505327234,-0.00896563182933831,0.0052671054259801
-0.0306504449055284,-0.0404985376441593,-0.0069207456468704,0.00451237785030218
-0.0219379888018664,-0.0201908712657751,-0.00192376122726682,0.00358784060576519
-0.0061255948100553,0.0068459667625192,0.00510927544938313,0.0018869935470315
0.00625986514764929,0.0214936820419489,0.0127557758618782,-0.000956606136851108
0.0149090938423703,0.0129932022229735,0.0153987722393683,-0.00390622272556644
0.0261501320269501,-0.00591973424872941,0.0094830747679736,-0.00531163738470603
0.0387790113241108,-0.0184361956599526,0.00209319858334197,-0.00412086719421621
0.0432511506164004,-0.0234753633061107,-0.00137791458351433,-0.000994478544622416
0.028502639481774,-0.0204334090198072,-0.000465615858100388,0.00217616607733493
0.00253967503978472,-0.00654729155759276,0.00471645293514316,0.00416558424848799
-0.0109664719786703,0.00642417694654703,0.00828409529952015,0.00468506528716184
-0.00784001313138957,0.0140436137642732,0.00747312439037685,0.0041008087571846
-0.00603936425662376,0.0276905420669201,0.0065607923310006,0.00358400945896576
-0.0148051887737733,0.03900898099008,0.00301698080330011,0.00409262986862459
-0.0272829619008818,0.0320884480036234,-0.0039401829531419,0.00513002624198688
-0.0351580498754241,0.0123339943542377,-0.00810555113104266,0.00530255752477904
-0.0377245286345661,-0.0065019995630622,-0.00783009225637908,0.00391888467021379
-0.0370954584150643,-0.0183324559505472,-0.00629843370368467,0.00147452661831188
-0.0269414464961784,-0.0313035101281955,-0.00672275530478502,-0.000715666993420961
-0.0012778908123116,-0.0411177721778344,-0.00518301542056905,-0.001580945931372
0.0251625918432694,-0.0219866713010648,0.00357164240361309,-0.00104685009054752
0.0351226541782163,0.0146606306242447,0.0136110568850828,0.000291030226540829
0.0349911009560418,0.0322867847915407,0.0170425381358895,0.00117278886686313
0.038333029547441,0.0282807557882751,0.0174432229590076,-0.000402883087203536
0.0487642111602757,0.017899871393252,0.0179180131719887,-0.00465908787209253
0.0622568249663261,0.0153657783930297,0.016536859544599,-0.00752034469968556
0.0722926144871102,0.0240538120921795,0.0115056729484518,-0.00559707556476946
0.0752555138583337,0.028553383828647,0.00381736595744001,-0.00106599816379207
0.0732972317373955,0.0164024092694421,-0.00027652513676019,0.00269968152706283
0.063569807151687,-0.0062103018250522,-0.00183841199196652,0.00498514718041917
0.0320565649516371,-0.0178905548858647,-0.0032899004648845,0.00605181263050872
-0.0146465696064484,-0.00705300945472765,-0.00190763143393708,0.00544485135518706
-0.0386533551508624,0.0136118309441847,-0.00140203004729786,0.00264795940255597
-0.0293744738120997,0.0288413300094256,-0.0038865190353445,-0.00133885179138043
-0.018620939870407,0.0338822229122951,-0.00460770129267293,-0.0045146610959635
-0.019489275101059,0.0288339032823003,-0.00133120857023123,-0.00604112340176924
-0.0174180047410835,0.0112289502696181,0.00209369189629968,-0.00617063658289983
-0.00871328544109539,-0.00995383400005414,0.00128218270603543,-0.00481800013805785
0.00181230126967271,-0.0115710311050857,0.00045559992832912,-0.00232791812728855
0.0128463099363374,0.00511897616658327,0.00269161315611938,0.000142426803281963
0.0183778147043885,0.0192864663202328,0.00322771317898844,0.0019514341107786
0.0160980532082412,0.0225079774209657,-0.00165937292883996,0.00288642828932304
0.015798030155196,0.0111165696592108,-0.0095443801967391,0.00272341133310646
0.0239879342384049,-0.0211669280710778,-0.0113956833153696,0.00171828957542628
0.0356726809173558,-0.0513877759987083,-0.00490129156390963,0.00058656477604182
0.0429126396678378,-0.0476134563339339,0.000165035479086195,9.30191592854266e-05
0.0425730868813596,-0.0241296969959196,0.000166641824235023,0.000128969028481346
0.0368467495318739,-0.0032131622433111,0.00312257148440372,-0.00016773712954189
0.0282370738900218,0.0111531968598143,0.00964232129855373,-0.000572002872103774
0.019582443842917,0.0101309498907181,0.0104068062155904,-0.00027486348359217
0.0135406315956627,-0.00402123905512088,0.00412150120366628,0.000495439935644425
0.0101342563281328,-0.010056926375201,-0.0029307763327011,0.00102973264101785
0.00800311169816077,-0.0026399647121656,-0.00875225551736064,0.00089084095749735
0.0032615097842763,0.00368711587554303,-0.0126288274999454,0.000131143027721069
-0.00636535223134475,0.00736997589386208,-0.0133488309074292,-0.000823187802869523
-0.0149358562306992,0.0133496663388228,-0.0118077107037535,-0.00160911733803233
-0.0162062866525299,0.0140419603451041,-0.00887020680788004,-0.00199381483400791
-0.0139668025722978,0.00535429237052315,-0.00821201928193183,-0.00228075009662009
-0.014816981419026,-0.00262771597879577,-0.00943159461240657,-0.00296049246053359
-0.017557343455528,-0.00131200210724088,-0.00651789404254029,-0.00304746994892239
-0.0173992682294015,0.00264557656836219,-0.00152824701605977,-0.000614758327434903
-0.0173217844255738,-0.000706253272947169,-0.0019880754741298,0.0042300406870081
-0.0198064973264522,-0.00542015521140441,-0.00647743915910978,0.00875385263473766
-0.0217097108599065,-0.00349864911959559,-0.00633554549264501,0.0108209720219449
-0.0228712481645479,-0.00197108982822451,0.000397063004894684,0.0106792673125145
-0.0237290286017842,-0.00716214730092838,0.00815887261068245,0.00926361701921382
-0.0265248365619889,-0.00848639321418167,0.0135450072266455,0.00701271097146521
-0.0313935153660313,0.00564832635321396,0.0164413813230255,0.00424862567967666
-0.0262428963835144,0.0257723090199564,0.0167218237126457,0.00161952894957414
-0.00333970283567864,0.0300729661658133,0.0137406178713583,-0.00017332998094182
0.0229906051358524,0.00752829458855324,0.00409313506863746,-0.00127843667471184
0.0349405151740364,-0.0301166950150114,-0.0121151061306919,-0.00267845567486052
0.0281921510595054,-0.0508060750036312,-0.0218797490821998,-0.00450243882336814
0.00891226244291197,-0.0368275857740457,-0.0145876178087325,-0.00532459421022364
-0.00880325762366055,-0.0116049836235972,-0.00226820971803874,-0.00408130388154442
-0.011796771581174,0.00166668127855894,-0.0010874831371805,-0.00154724887034929
-0.00447247590146411,0.00310671971418541,-0.00781617117105073,0.000505655699824564
-0.00154192303152996,-0.0104248758232932,-0.0127059684282431,0.00130126674398844
-0.00569318784844671,-0.0378754362483621,-0.0125452556677078,0.00195288843570359
-0.0131004412908832,-0.0482997140423912,-0.00653508241227843,0.0038515631985959
-0.0226435152395888,-0.0176266256617559,0.00100921934830848,0.00638718935582741
-0.0292981055730714,0.0265579068505809,0.0042826629847696,0.0075041474738481
-0.0310216785049501,0.045599326306645,0.00449224344621482,0.00637566840358375
-0.0305453604116443,0.0375366069806598,0.00436644868521846,0.00381608653522672
-0.0232506648908597,0.0192969145124998,0.00295295265076166,0.000519196988862377
-0.00289620569362263,0.00380749093370174,-0.000822280124475487,-0.00410048438597174
0.0199614099436705,0.00571208325481427,-0.00253614828821556,-0.0098063238267354
0.0235308531679382,0.02370354397205,0.00196324386335965,-0.0129372904643504
0.00889282606279268,0.0305972652101684,0.00736072475919514,-0.0100089371062189
-0.00338675704472765,0.0150807023944239,0.00751833673839731,-0.00298755179153537
-0.00543866025503281,-0.00555190994114029,0.00392977767172599,0.00288611583043421
-0.0053355293419567,-0.0199792272554061,0.000694929221302329,0.00507637979530646
-0.00873583234099617,-0.0250406833781196,0.000105062916913303,0.00481568747376094
-0.0124466723721118,-0.0165720977921704,0.00103719554779671,0.00382089667599063
-0.016370474710247,-0.00769943025242216,0.000695273916728993,0.00213995064847587
-0.0203138413184813,-0.014404711164794,-0.00551949723733225,-0.000631578910836096
-0.0225339276591097,-0.0178950921903606,-0.0125176728010851,-0.00361360134807234
-0.025864989847603,0.00476283013826943,-0.00764301436206098,-0.00518421034702767
-0.0344209065835317,0.0318423876231399,0.0039267168471503,-0.0045383663131181
-0.0420450609244489,0.0376863205317361,0.00986246469983967,-0.00264226352900673
-0.0386363233470326,0.0358420729909606,0.0097290023046828,-0.001113931537793
-0.0242283408088899,0.0416623503704294,0.00882395295218494,-0.000774297026834625
0.00153776624964551,0.0381151346192323,0.00857406730211427,-0.001836346158984
0.0287380790597415,-0.00405270536588019,0.00452039830431821,-0.00374579366872011
0.0431326766198392,-0.0661948566519453,-0.00434242877318266,-0.0045650014908604
0.0471713087874663,-0.0807644848431494,-0.0102814439053663,-0.00223480109377641
0.0414778144852036,-0.038011173959583,-0.00841239714078878,0.00232661438656917
0.0285966559039981,-0.000115353454414602,-0.00551599288440624,0.00540899259320736
0.0221334909661531,0.00175074086586561,-0.00708657950663562,0.00462499134869334
0.0211706957185858,-0.00698032757400837,-0.00593498477952477,0.00104141489541034
0.00718285841225703,0.00422978176210408,0.00119562300497952,-0.002601394624361
-0.0228961925251952,0.0279584843441773,0.00573335264702964,-0.00463112059421314
-0.0467526096206795,0.0354562118978375,0.00666176885971508,-0.00504983661802427
-0.0498902184541652,0.025336775537054,0.00820014657968393,-0.00409540556877081
-0.0428087513221353,0.0131680991267573,0.00774336213652387,-0.00189894149099754
-0.0349631273538774,0.00193255877403784,0.00356635544183753,0.000484848013387666
-0.0244169202597419,-0.0101626865906312,-0.00340552947851179,0.00167653049854879
-0.0100105481127483,-0.0235855358305283,-0.0128945696442968,0.00151481359959658
0.00739392189588547,-0.0333576636811192,-0.0188625127503604,0.000777572189940001
0.0214559700660572,-0.0262791244409724,-0.014328047525561,0.000193183211786625
0.0211059477939401,-0.00885032055304771,-0.00579922987258433,0.000212454946680693
0.00862279200412768,-0.00148678862843468,-0.00149746255689338,0.000786209478084381
-0.00610314318657347,-0.000786181252039733,0.000338221195901964,0.00165345555821765
-0.0230410936047107,0.00273960005929083,0.00210083705309912,0.00258849334673645
-0.0362034656605379,0.00534466810882726,0.00278000749465992,0.00336165632615773
-0.0358824221100646,0.00295910015027886,0.00115321037510497,0.00427844704124957
-0.0267795615891358,-0.00201399147199923,-0.000885926600243614,0.0056048087554552
-0.0176652514277148,-0.00403283848930277,-0.000613224075606985,0.00666148521226676
-0.0101148053118712,-0.00332284658242949,0.00211262414683531,0.0068023695413441
-0.00128508573859024,-0.00347179670530676,0.0045988622366882,0.00572920893447997
0.0117416537978464,-0.00803655669442208,0.00260183133332683,0.0023888291936064
0.0284508702275108,-0.0147302721932806,-0.00355892552731552,-0.0034854982605826
0.0446180238401012,-0.0196742739029198,-0.00851149063349564,-0.00895469421370264
0.0560761419370553,-0.0287560548799478,-0.0115592844915993,-0.0104603061702535
0.0542642581331696,-0.0382377390004689,-0.0147351876341659,-0.00813950230010687
0.0305822336384675,-0.0363401302218786,-0.0166426751085022,-0.00460734922335843
-0.00148335385191977,-0.0232059503515203,-0.018306312246173,-0.000940620158754853
-0.0190713851610513,-0.00833347982618286,-0.0204684225506716,0.00281089027377331
-0.0172437294982279,-0.00980960101152125,-0.0203499860960568,0.00544786542470165
-0.00717218625817141,-0.0260746734124579,-0.0175476360375144,0.00559598436783123
-0.00302217098508423,-0.0268467924280654,-0.0109209932271864,0.00347118749353961
-0.00645376113497448,-0.00818817210035724,0.00245144321043958,0.00137698417941336
-0.00973344630659389,0.00842975696447541,0.0159480764587329,0.0016582827840266
-0.0106996411985007,0.0169689985545553,0.0171813241140898,0.00409943640277638
-0.00929644305136068,0.0164433783371605,0.00766125842543577,0.00598659471269418
-0.00238313704311063,0.00313434077729345,-0.00252695690495207,0.00436690224851117
0.0063900980579142,-0.00149088011608522,-0.00226173191716351,-0.000731953721298906
0.00754769019624993,0.017014558072915,0.0100332141425389,-0.00556084621540079
9.68004425893759e-05,0.027266335189943,0.0138624644458825,-0.00685633505983307
-0.0107597683710652,0.0167142610488335,0.00435116852916109,-0.00542193424099738
-0.0229484262899136,0.00827153628951297,0.000774781999383328,-0.00385025068411104
-0.0356476367215895,0.00714688499693963,0.0062767242723718,-0.00296509227032967
-0.0417663209218427,0.00421366895181936,0.0100154300984993,-0.0022190526809396
-0.0317598610915073,0.000438522620337663,0.00875723782597311,-0.00146242589194151
-0.0122458570724218,-0.000271164605007375,0.00588131979213324,-0.000777745048569718
-0.00133108746700607,-0.000665564557756546,0.00295507818389667,-1.31814596797085e-05
-0.00353276304872518,0.000423309621592566,-0.000265446556527396,0.000751378067314544
-0.00654010384146465,0.0128560689050732,0.000554717632236782,0.00133316807644113
0.00019100983351877,0.0313067486414526,0.00640826746554389,0.00202870315389847
0.0109945366278877,0.0290042999399103,0.00815117879373734,0.0027805588208184
0.0157118609222571,0.00664498009173092,0.00385616143676441,0.00248284057591446
0.0175743581400164,-0.00370535049430299,0.00175195721002605,0.000431582881645529
0.0238599276129613,0.00883678231882721,0.00387209990567032,-0.00230329508528382
0.0316949011630401,0.0249486443049195,0.00645014346216637,-0.00396985192378605
0.0303824788670869,0.0258199634317471,0.0084893606567822,-0.00397412752215181
0.0173182283385649,0.019363985637243,0.0126513441319496,-0.00287951701615469
0.000455743550241819,0.0203056711516978,0.0196601916608858,-0.0015047477129652
-0.0154982858624752,0.0254947095392244,0.0242993162532083,-0.000761595913369018
-0.0247236577808275,0.0261591794086599,0.0234907630026366,-0.00110200529335502
-0.0223517576999646,0.019694540002719,0.0202087297280826,-0.0021225784397785
-0.0155302317915158,0.0160650263349601,0.0175584188470965,-0.00312877527116221
-0.0135366712471514,0.0239236508383158,0.0174337687657876,-0.00318506545428652
-0.0139111900186463,0.0323336426948243,0.0177018759124325,-0.00165762143559783
-0.00869960979694368,0.0328626242448716,0.0130160330471621,0.000853774624460599
0.00329522182285,0.0304741119067566,0.00136038646630136,0.00281082683524511
0.021492181982988,0.0188832035182913,-0.0132567162145096,0.00296723318452473
0.0366107092338118,-0.00855251508120507,-0.0217053088375036,0.000961991444756093
0.0314730949004917,-0.0243761540730651,-0.0180436066817315,-0.00227744028426815
0.010445384277759,-0.0126397997505548,-0.00851266901460618,-0.00412788651853086
-0.00824171547090002,-0.0097148445475696,-0.0019784442860449,-0.0027017395468087
-0.0192707088433346,-0.0249332674342703,0.00315456942285745,0.000462427367494599
-0.0217684929624702,-0.0270497410107443,0.00904272921440402,0.00257311938833663
-0.0141179085716774,-0.0161574192860585,0.0113016605454025,0.00282595616178891
-0.00227158573091746,-0.00978283238246062,0.00903096961086588,0.00196562695258548
0.00889290374992928,-0.00688966031329137,0.00592306962652089,0.000931585848821511
0.0202758349150664,-0.0016956869301047,0.00188631900127979,0.000183357490214515
0.028557243389193,0.00149656265209544,-0.00253088642324973,-0.000281069425220716
0.0295065848578024,0.0010765616137044,-0.00453746395799962,-8.37317483259781e-05
0.0245166961719649,-0.000651706546772268,-0.00717771599917111,0.000579587869135715
0.0141227794532838,-0.00552677768975806,-0.0102123956726676,0.000248954617121577
0.00169695156815496,-0.0120081420431295,-0.00794512284412794,-0.000894263459215132
-0.00633979126653241,-0.0140668312979292,-0.00267440421921585,0.000146424068878517
-0.0126338780606506,-0.00770314592585728,-0.000301278782013357,0.00480830404209352
-0.0221845466792509,0.00123571141329258,-0.00215597403009508,0.00912927781792782
-0.0311814237871439,0.00149966981754632,-0.00693547314480331,0.00728926922650898
-0.032800076844117,-0.0085469907817942,-0.00974392672974221,-0.00106142644587782
-0.0259422412542132,-0.0203869514811269,-0.00798998166881834,-0.0105330372478341
-0.0148377507130667,-0.0281756122518553,-0.00485468692025438,-0.0160254926047139
-0.0026188387312989,-0.0341814925850444,-0.00225153575246173,-0.015438296000634
0.00878449641257797,-0.0372546615752315,-0.000283300545210871,-0.00944814361863272
0.0216099717155886,-0.0262291216561017,0.00297646588891945,-0.000968911383689007
0.0305437956570087,-0.0073380230680354,0.0066738168018982,0.0067641830561385
0.0258892454494152,-0.00728282958619474,0.00361277699044317,0.0118097495225477
0.0233930300940397,-0.0280054033152887,-0.00415251978709193,0.0132119108323972
0.0315502415840615,-0.0460124202224284,-0.00789265314568751,0.0100733988656409
0.0280330614809331,-0.0425167207588583,-0.00828222978082839,0.00228817331750409
0.00822079216424045,-0.0143312371844993,-0.00669803380762849,-0.00701607623734266
-0.00988848168622998,0.0177009500713962,-0.00145862869588179,-0.0118320013352075
-0.0239737979542403,0.0297673446632233,0.00528964933832465,-0.00871322083736925
-0.0376440737479034,0.0205588065942291,0.00833250050170333,-0.00064123744276256
-0.0427920294902597,0.00435033645035422,0.0059194626809778,0.00622268007201827
-0.0386608390462541,-0.0055224599447353,0.00416695151425533,0.00857865339800783
-0.0314159151284478,-0.00528101141067963,0.006263916204086,0.00719950051642205
-0.0239597768778016,-0.000270404448033687,0.00692919654791362,0.00423811845301121
-0.0209005019563569,0.0038957209378928,0.00290647940811183,0.00138414869382888
-0.0198863855974871,0.00775021959877951,-0.00166268039873012,-0.000790779630096841
-0.0122463482820011,0.00791851331043248,-0.00434560236524593,-0.00229474117743268
0.00123754478388469,0.001019822441897,-0.00659883341525929,-0.00324880127305111
0.00894705471413141,-0.0091322077759565,-0.00332819697065693,-0.00368119859851353
0.0061304530081964,-0.0119867039286256,0.00604070611375894,-0.00335792348507097
0.00279745547633315,0.00212935966880519,0.0140193058944016,-0.00234755323080063
0.00310873911687691,0.0224443610805376,0.0186182576188497,-0.000753905297272029
0.00100407212746792,0.0303180241730651,0.0192473902778568,0.0010545904228908
-0.000890404428446622,0.0267577520509258,0.0164305202387725,0.00212653213985665
0.00452376806292827,0.0229125336043535,0.0133025332343894,0.00188625963885056
0.0132340038691957,0.0127946735305062,0.00959553893586563,5.12864753098499e-05
0.0162983285346887,-0.00676539215632982,0.00436292855720188,-0.00307566244157685
0.0110114424986153,-0.0125398837993529,0.00065090083403023,-0.0055576903536791
0.0039601018895538,-0.0015891870828928,-0.000703370114408906,-0.00530595197460172
0.00727638235532992,0.00175269123595711,-0.00197996440582505,-0.00243426236635613
0.0202755430617385,0.000659451926216287,-0.00382409667486181,0.000991279039439156
0.0247535484730546,0.0132143711541535,-0.00422754260617829,0.00324245676937422
0.00747007238917879,0.0293414060832397,-0.00362783281881046,0.00421118348534296
-0.0205639393668311,0.0331010053485331,-0.003982719460316,0.00464054553134185
-0.0376575562299667,0.0298341448581527,-0.00377856008861648,0.00534097683173377
-0.0391749930764568,0.0282065689806334,-0.00254526704957432,0.0067694332473977
-0.031438651173362,0.0244830266298594,-0.00215031424359884,0.00837678060953511
-0.0201733481155423,0.0159781177244595,-0.0052396031729125,0.00884529243280488
-0.012675308293542,0.0112646507119284,-0.00780528797904926,0.0074043280022348
-0.00934990609539303,0.0141253234854299,-0.0041832243990135,0.00364326326840271
-0.00456846023321919,0.0202678343356012,0.00100571502091642,-0.00316792127247977
-0.000967284349017231,0.0259488762927627,0.00269883117652476,-0.0118044438113864
-0.00567059661355014,0.0211406735797327,0.00280770665298627,-0.0171835473902412
-0.0136585705486104,0.00367489304254623,0.00200979705472542,-0.014836809703906
-0.0134869317371437,-0.011411090680768,0.000162464346765947,-0.00635262536482122
-0.00822797462499587,-0.024146123161245,-0.00178311889772375,0.00320564329643836
-0.00881680171564254,-0.0343856632508443,-0.00495590477953629,0.00972155172803123
-0.00776020917612241,-0.0312994613604983,-0.00728247411584067,0.0110085279092077
0.00708169793270216,-0.0178127741122503,-0.00358973317601156,0.00779893360480557
0.0215322281181476,0.0021115714899138,0.00401590344890198,0.00329829810412181
0.0187010134560918,0.0111841882042747,0.00532420502129167,0.000401527402949926
0.00332105854323932,-0.00649439217268979,-0.00197661830135467,-0.00016084168805345
-0.0159847180151058,-0.0235228927804287,-0.00965700697314776,0.000612290412338275
-0.0332188039246831,-0.0157942210826568,-0.0147898475189116,0.00151243701599794
-0.0357907539673131,-0.000538398902114511,-0.0164527457396373,0.00188731763992782
-0.0172405309589305,0.00428873236375638,-0.0125699529378822,0.0012588629871301
0.00704689269730269,-0.00992940984030709,-0.00805277544508232,-0.000420890457882352
0.0167467616496612,-0.027509048967345,-0.00632310894773235,-0.00230187505937554
0.00984249920621554,-0.010632194169634,-0.00408570412525179,-0.00349318977050852
0.000504004214279943,0.0236164321917461,0.000482266837479465,-0.00349283278395633
0.000295675470517089,0.0313331373097471,0.00203286142580913,-0.00232923120419682
0.00800173220730647,0.0160389351591858,-0.00274398829490627,-0.00113538902570802
0.0157353277009315,0.00337513286641508,-0.00526065215245828,-0.00102428893282966
0.0193439314101511,-0.00239705235193116,-0.00192052400009454,-0.00158217011920745
0.011708958210451,-0.0150209486409626,-0.00144245668180723,-0.00169370995080652
-0.0111491411295334,-0.0291345143490832,-0.00467630793201464,-0.00106739726199247
-0.0360488033963384,-0.0183319301166649,-0.00565243725888795,-8.34696096285435e-05
-0.0472398593963672,0.0141702316260468,-0.00755486018643455,0.000724616283032782
-0.0359959971001497,0.0255054493630508,-0.0145282922644324,0.000858692354467582
-0.00946987552405197,-0.00160899546516102,-0.0209389880051312,0.000436568384125509
0.0125070746810872,-0.0332444980737478,-0.0229208198534661,-2.12932935097666e-05
0.0224674950160394,-0.0418350217219371,-0.0203125958030522,-0.000499186365136246
0.027704920857885,-0.0422907581809476,-0.0137588410369124,-0.0010571162908157
0.035271884610739,-0.0569352828797231,-0.0104070330101612,-0.00110094118480134
0.0454947629645689,-0.079085246808564,-0.0120548781905399,-0.000698164149619378
0.0526913825297998,-0.0814318182878233,-0.0097837240568395,-0.000672760395645264
0.0477799849929644,-0.0487945484238491,-0.00218302156527397,-0.000877715003569662
0.0285800837334531,-0.00244045367171562,0.00318135290544757,-0.000812539164040975
0.00484127955238668,0.0267391892319999,0.00523844005988661,-0.00061330134538402
-0.0151241428170337,0.0346816533375483,0.00667558856634328,-0.000622979666538494
-0.0291523731705838,0.0315658778626183,0.00795926547080891,-0.000951115640722552
-0.0341647729448838,0.0236662587445556,0.00994839605061716,-0.00132238534153405
-0.028816308791013,0.0124655931725509,0.00925124737059819,-0.00145679807347385
-0.018722280949081,0.00253908554253227,0.00337888254677127,-0.00134968920913389
-0.0109813881465943,-0.000444655280806879,-0.00198491600808711,-0.00108967686886634
-0.00655347345387265,-0.0016259681500124,-0.00544493314988323,-0.000548611247246918
-0.00306854508560137,-0.00498127364714522,-0.00718798747918734,0.000314028944818954
0.00114184470909609,-0.00870679130647837,-0.00484778550514887,0.00125216376638755
0.0113992724958765,-0.0147270816013336,-0.00631657659790317,0.00207378375393034
0.0309318239488895,-0.0159539215920536,-0.0180433997621851,0.00234151264656879
0.0484546530256857,-0.00312250796651481,-0.0286377578486975,0.00160889585744827
0.0500061976382451,0.00768699833480598,-0.0268426537708094,0.000208281943663312
0.0333140692450887,3.29617112110412e-05,-0.018808030936718,-0.000914618348016938
0.00691348612889528,-0.011507295895182,-0.0139215312900942,-0.0010142088654541
-0.0173740690329642,-0.0126968856598614,-0.00979779415937315,-0.000244485862921892
-0.0308006572292976,-0.0172885369537619,-0.00361275193323873,0.000695966716720509
-0.0304082882009308,-0.0271460308837891,0.00165230504248841,0.00143903711421786
-0.0260777837226937,-0.0192086922269191,0.0067534074673907,0.00194140674228211
-0.0281359556129556,0.00104155843432163,0.0096559875789643,0.00229682761191435
-0.0326755271748294,0.011187824835187,0.00591656863645883,0.00221277969056454
-0.0242761961197484,0.00672341031973182,-0.000974809419587126,0.00068684169989455
0.00629452749483804,-0.0169407840055203,-0.00681463729705531,-0.0020695946494971
0.0419556078483666,-0.0499080689906889,-0.00877465208601694,-0.00403152402060601
0.0584064662319018,-0.0530022126448929,-0.00498816242160603,-0.00361465713914674
0.045147063315515,-0.0208288639488375,-0.00101555141592642,-0.000806363901067213
0.0173682329727231,0.0045884247971966,-0.0002684591803533,0.00277924141222851
1.50925883713321e-05,0.0159426372046722,0.000143148984993816,0.00479580006942015
-0.0113511279058363,0.0340702280408023,0.00127694602262101,0.00423227034330988
-0.0220672628550681,0.0482357633790197,0.00262154493009627,0.00215024806757534
-0.0192283502730496,0.0415813271461942,0.00430962985870738,0.000508495063097501
-0.00817821476865968,0.02330144737083,0.00406724950575433,0.00012079231639563
-0.00139946106947293,0.0113013504431409,-9.86823789717681e-05,1.24183352134046e-06
0.00115778736483944,0.0125621120450538,-0.00329665458027773,-0.000699711179113189
-0.000472439458734823,0.0218359347671692,-0.00185159566203291,-0.00142313967069071
-0.00411745651080664,0.0209932320168184,-0.00064341470567244,-0.00137168894559027
-0.00641226819925645,0.000741785156170578,-0.00204417816398959,-0.000673395746593156
-0.00608167546037904,-0.015620867479775,-0.00150784279323828,-6.64616581129295e-05
-0.00308291553388056,-0.0175719313565767,-0.00119364843559811,-2.91800548456393e-05
0.00025091244811033,-0.0264869868284109,-0.00410771569988806,-0.000521662782918408
-0.00178214714775396,-0.0436378672796875,-0.00550759396042591,-0.00112235930329069
-0.0165524241458614,-0.0438025795703358,-0.00377641447907715,-0.001226745077307
-0.0354557380182489,-0.0198987706118086,-0.00193026537917349,-0.000562144186721079
-0.0368642528630341,0.00509678772818892,-0.00224651736208403,0.000234983769974842
-0.0219472536856979,0.0125625808773531,-0.00463898160392853,0.000182585880617166
-0.00762262225063995,0.00307249399441921,-0.0089059406145403,-0.000978010741194765
0.00385361263034018,-0.0052064261904376,-0.00947997816879366,-0.00264588591813898
0.0148010674776627,0.00137427579724076,-0.00444818344328062,-0.00351576400213835
0.0238902244182098,0.00689578546103197,-0.006176627698039,-0.00280735424515005
0.0319120913081651,0.00342678596779598,-0.0140898375136767,-0.00156979707477286
0.043356629567821,0.000701661506175772,-0.0169386618539071,-0.00103638827665977
0.0585108204942552,-0.00217614280676034,-0.0157370924295993,-0.000630085645585727
0.0634931168656222,-0.00400114795241917,-0.0130218000293448,0.000359247796341369
0.0467246863379893,0.00302594207005643,-0.00821878518487949,0.00110352286855355
0.0192933008740191,0.0117958755515208,-0.00398696250407356,0.000547802211664407
0.000598207606564261,0.0107175464209735,-0.00371974677651907,-0.00120348273733115
-0.00247211874233228,0.00732376859562844,-0.00648527324609267,-0.00309865357019537
-0.00289938930780697,0.00659238802437302,-0.00784147535980281,-0.00459714702828167
-0.0185195523704348,0.0030827958879324,-0.00668797652099636,-0.00566629154638599
-0.0390778316003456,-0.00310165254612745,-0.00699685201983445,-0.00565443686686608
-0.0434008149705338,-0.017540046823488,-0.0131890662183176,-0.00370606761906445
-0.0324040710180444,-0.0343156076373171,-0.022127312653317,0.000209022250141661
-0.0173650889207882,-0.0332208892083873,-0.0243743714426095,0.00483623232376288
-0.00673700230716871,-0.0183751585485796,-0.0178436732939231,0.00810920836699709
-0.00558165707353768,-0.00612198104017836,-0.00952776588324085,0.00862167370273837
-0.00906886392910265,-0.00181397638756259,-0.00615218904227595,0.00662065311213644
-0.00873451593954731,-0.00495978802612069,-0.00721957869547526,0.00333208196909432
-0.00480863636946009,-0.00916184628016454,-0.00722511547332874,0.000107356179150914
0.00249026173811534,-0.0100072254698043,-0.00466900342770922,-0.00194733462602937
0.0113688484202591,-0.0116554781605367,-0.0025382698494565,-0.00271782173649089
0.0128972554359454,-0.012019001757232,-0.00246927477499681,-0.00318473677552964
0.00624711088288991,-0.00137906267345629,-0.00206854872375331,-0.00379151736927804
0.000964310625557411,0.0158563127344743,-0.000147435567077487,-0.00366435007005132
0.000354719295452796,0.0203950783570714,-0.000139077712819506,-0.00230723769936382
-0.000246594082264729,0.00907426572178619,-0.00272794436619236,-0.000506074620669966
-0.000822422791796479,-0.00064852149065291,-0.00503112195292639,0.00087887098787649
0.00327812249900058,-0.00380933071883216,-0.0070024070331106,0.00183251928652919
0.0100238650760266,-0.00548533630646248,-0.00954564580991911,0.00238354225165361
0.0121036428263194,-0.00165468209986725,-0.00827758546826225,0.00211293358070404
0.00986958222040861,0.00382918496021022,-0.00218823247845951,0.00156995837198331
0.00862081549308627,0.00157637460193385,0.000226233481149174,0.00211056998625629
0.00709223634986001,-0.000326246229287317,-0.00340407455906559,0.00389212121861973
0.00247098066354084,0.00683280565053211,-0.00508642248648494,0.00574534022166676
-0.000220592940246671,0.01028758712856,-0.00355760312350332,0.00670249500937658
0.000713994894144797,-0.00635341158357527,-0.00489459725599459,0.00626830339513914
-0.00163476843775169,-0.0271666064906901,-0.00520965483983478,0.0039522106468784
-0.00588580371735941,-0.0242978914682973,0.00127477392483089,-5.09180644667059e-05
-0.00577429604808174,-0.00825634760838878,0.00816961510346444,-0.00417621050168703
-0.00518053592233207,-0.00181982556566038,0.0110367401169996,-0.00567578588064871
-0.00543992996246032,-0.00678579754417573,0.0126334551562999,-0.00325087516639945
-0.00167955258437445,-0.015900649601299,0.0125921201489323,0.000889844292397521
0.00254279149907778,-0.0164577340870517,0.0102551148302655,0.00343410940419731
0.000531674986196967,0.000223932718312402,0.00849547833888503,0.00293139078099299
-0.00509373794682625,0.0192536334573289,0.00961085547773763,0.000485868205880001
-0.00970314465660897,0.0228327706239269,0.0121443360903904,-0.00131429324882941
-0.0147894488837273,0.0205525816759366,0.012360476907404,-0.000216737138149834
-0.0187592168065784,0.0231941399588159,0.0106009232921555,0.00331696378536958
-0.0197145816832222,0.0218085114618147,0.00882160797368671,0.00576988273585961
-0.0186294020950259,0.010430419466602,0.00339040259910644,0.00445318260991188
-0.0151143805916393,-0.00209896354447667,-0.00688186421756197,0.000622796383916541
-0.0134903534980523,-0.00212785226696908,-0.0130794383651612,-0.0024982821479201
-0.014034841359308,0.0117761114477448,-0.00851686657002734,-0.00381185875419849
-0.00879211094374838,0.0262557798971644,0.00155557725209744,-0.00409817181913149
0.00200133448677231,0.0329497058887005,0.0090278913018361,-0.00358073554051772
0.00913600618480327,0.0327424735367254,0.0119645665586536,-0.00248763184577941
0.00802662028863613,0.0268264221140189,0.0123738629015842,-0.00165666599095159
0.0046285729003702,0.0218219697645249,0.0125206314820897,-0.00144863049233957
0.00257889217382573,0.0217604943162373,0.0147505212581333,-0.00131119361549414
-0.0017661814189977,0.0215452217887927,0.0175618467454858,-0.000674005708381703
-0.00638922129298146,0.0194440992363206,0.017330857014587,0.000467091644925917
-0.00855726424989221,0.0157662410507282,0.0145011419706386,0.00144400575525442
-0.0142549615530705,0.0095729736769158,0.00968461995113665,0.00121081778312411
-0.0251479384982519,-8.6485684117496e-05,0.00450711788799944,0.000244582901666159
-0.0329491256330532,-0.0121978892416829,0.000425941689691102,0.000669170978329843
-0.0306931591945509,-0.0209319667156837,-0.00492360056351448,0.00271253966105648
-0.021806361344008,-0.023346523732222,-0.011265087947819,0.00348109785295448
-0.0219589862892728,-0.022071091621285,-0.0166351885582921,0.000828920451631455
-0.0327886288403934,-0.0144889697754166,-0.0178454315845929,-0.00322276703238332
-0.0372980798763763,0.00482981898920593,-0.0151029774060016,-0.00449624935238598
-0.0331144534016379,0.0276472043084472,-0.0139470580398879,-0.00181146418149435
-0.025358672509528,0.0379084466074366,-0.0122781302161776,0.00136071152031934
-0.0130750553898581,0.0345071689754366,-0.00684194724095236,0.00137106426227629
-4.04743205827118e-05,0.0309724641549538,-0.000408739042081746,-0.00134867877046448
0.0115486448629466,0.0330901506733897,0.00529503803714946,-0.0040093351994156
0.0225084948347878,0.0379830992155928,0.0105403197725001,-0.00463851257607887
0.0237433609167825,0.0433131710205732,0.0157346891089428,-0.00341048593960795
0.015052173919076,0.0431510075524875,0.0192388225958711,-0.00238483549663889
0.0128135113925201,0.0323250464662995,0.0173106027427864,-0.00239523544255571
0.0158103782566758,0.011486944428517,0.00883578369924969,-0.00208472009690863
0.00885523680244424,-0.00649487023185763,0.0041271377166299,-0.000388607691067445
-0.00473939729369384,-0.00940909333050514,0.011927944656487,0.0029854315642727
-0.0146400294170675,-0.00523660248947842,0.018405251076241,0.0071501465881485
-0.0223979080759498,-0.00388666563507562,0.0120806687363563,0.00934627276334013
-0.0215683379440481,-0.00937354282958032,0.00185962903668445,0.00756228604075808
-0.00590584484599717,-0.0207156397967884,-0.00377331818263908,0.00269238846703299
0.00876151721167253,-0.0223372017844263,-0.00454410864870609,-0.00235137574192262
0.0111342612932625,-0.00709448055953799,-0.00478246129468291,-0.00444374230090083
0.00641215080549096,0.00636924259701948,-0.00630023122517775,-0.00267885085026777
0.00124884611209556,0.00877112765313193,-0.00541348724728322,0.000776824905225936
-9.33884390980425e-05,0.0152445942849328,-0.00125382164628387,0.00309131073806827
-0.00210584846527257,0.0305729296497577,0.00149646575927719,0.00281898758700447
-0.0079304397049163,0.0384556788971809,0.0011971874506911,0.000250298765809229
-0.00964756724881475,0.023319848125007,0.000201051973183954,-0.00280380512991313
-0.00708997933772684,-0.0060277331964994,-0.00139233579069066,-0.00451912084090562
-0.00743842017655504,-0.0151895956012901,-0.00258538998376852,-0.00496402017027526
-0.00877914781016986,0.00555046367430137,-0.000922577508380343,-0.00532437908913778
-0.0040765018411729,0.0249057295690812,0.00482356692785838,-0.00492845920542038
0.00593984401464522,0.0269107594105321,0.0123632325095552,-0.00171236720756689
0.0163003226209456,0.0201325906008986,0.0154283377307098,0.00354896413770307
0.026568332306548,0.00664881401212358,0.0113464623875642,0.0070905201725599
0.0311111643400999,-0.0108156860966206,0.00480213580798653,0.00670852791948489
0.0248109131841777,-0.020635315334831,0.00115065568513533,0.00324935854915664
0.0148386028972158,-0.0161361705281334,0.000869382137110167,-0.0010921410122952
0.00734553875416008,0.00199108025086633,0.0040881254041719,-0.00396429943008486
0.00253649232504793,0.0272693130613657,0.00773508752724844,-0.00416405037703853
-0.000125002287670921,0.0471159888291909,0.00699909995187853,-0.00185567805556905
-0.00230971685522792,0.0596597300285228,0.00522573568659886,0.00229113974156647
-0.00456382851128002,0.0716236360144113,0.00469634379272538,0.00660879473474716
-0.00492518140643599,0.0700727329840535,0.000557905043398025,0.00825093867796691
-0.00165911463204268,0.0344829384871564,-0.00713695453985769,0.0057045330687374
0.00323503292442795,-0.00816648952684436,-0.0107991747319402,0.000427957467642461
0.00373833724985695,-0.0148306674220252,-0.00777044092406888,-0.00593630699901682
-0.00136321860791716,0.00080450391586648,-0.00157097652688432,-0.0128264221701215
-0.00854994580680755,0.00991705735538463,0.00254161878089647,-0.0169186498255098
-0.0116047454922056,0.0069500096170316,0.0015938738244556,-0.0132793372430114
-0.00769157752719517,-0.00841395996589305,-0.000651662776293487,-0.00273194503337557
-0.00740155826259665,-0.0242700007553129,0.000439697125128384,0.00792344246422843
-0.0149875495573532,-0.0217753349695448,0.00283328934144158,0.0126538645673233
-0.0168501312196887,-0.0111141575506561,0.00138487506525816,0.00989030203993028
-0.00981719056578877,-0.0115099864209543,-0.00299213276489152,0.00243472041828491
-0.00706670240644209,-0.00755831973503284,-0.00549328286209201,-0.00467987175667424
-0.0149047381563974,0.0126007680505365,-0.00603859868302453,-0.00813683171173881
-0.0203702409823584,0.0404733489124803,-0.00288320591059768,-0.00778833337741418
-0.00804892001908899,0.069546159781882,0.00577312088621596,-0.0047757321528151
0.00833125202524718,0.0903586785737154,0.0116429972059933,-0.000596092197660704
0.00916112912555722,0.0934963927130889,0.0092519573159758,0.00281945625434689
0.00178646405912784,0.0747871279808422,0.00410122825772163,0.00429313088640897
-0.00106963980800898,0.0411651121964316,0.000543753373647883,0.00420373910810776
-0.000322742500459359,0.00539821424292798,-0.00255910813402578,0.00329596375762457
-0.00591882390631127,-0.021278506961331,-0.0035113372152603,0.00204429228106304
-0.0182888695250633,-0.0204159975085652,0.000147395233825941,0.00109821679692732
-0.0229569080358572,0.00674436360241771,0.00573783525396913,0.000692597179549741
-0.0203006960765641,0.0203124504375903,0.0101856726993317,0.000728512509313095
-0.0216619365535077,-0.00356877504379467,0.0116630545998373,0.00117153450268296
-0.0206926932776385,-0.0353020832521012,0.0100284527672454,0.00154867341621376
-0.0115242292436284,-0.0447021418431364,0.0101236220339122,0.00170163845305988
-0.00484540018320665,-0.0387805238111457,0.0127923178222233,0.00181999744604097
-0.00973762785813613,-0.0198226947532087,0.0147607143433768,0.00161073545108295
-0.0149283001091703,0.00772613394166143,0.0121986069368337,0.000691079702410899
-0.00466434466830067,0.0178546725453608,0.00152147037969652,-0.000690990284887707
0.01037901035913,0.00348031379253189,-0.00959379590334312,-0.00173471857784606
0.0148902933631382,-0.0260073162392066,-0.0142182611513283,-0.0018749283857923
0.0167827420671057,-0.0454293988082043,-0.0136967636098998,-0.00123956855457894
0.0303539402659592,-0.0338344230068675,-0.00879020468929221,-8.51976181616052e-05
0.0465448848710844,-0.0222051574758313,-0.00466956166647154,0.00131292431555272
0.0540505259507596,-0.028442655570693,-0.00423370666421108,0.00218007327486779
0.0611880248471225,-0.0249425118453299,-0.00214024818320868,0.00221356982613721
0.0559850343225843,-0.00607372856202675,0.00239606291495368,0.00191564557737474
0.0227230510483117,0.0101820426571108,0.00576217383341272,0.00156793285562614
-0.0160173385176246,0.0181847883348684,0.00953033588270909,0.00111351341383597
-0.0327955226546872,0.0199913797431815,0.0136387737072851,0.000856861266368243
-0.0297623128861986,0.0141443505145072,0.0148168865926133,0.00142994724190065
-0.0233550924729302,0.00224848007176787,0.0141253801972566,0.00280796262832243
-0.0200268589186031,-0.00699582444239332,0.0128615173447725,0.00392360875110128
-0.0166821623222539,-0.00634127853620751,0.0122108929636211,0.00390384234090074
-0.0123084615597665,0.00396148143433459,0.0172822838766406,0.00310729421022021
-0.00397944509541161,0.0149954496148817,0.0233922296026414,0.00224367951808167
0.0192323142346375,0.00942425181848137,0.0150391918040481,0.00147288623492199
0.0470193083370402,-0.0149593928204087,-0.00496998186686935,0.000445891244780538
0.052180379660829,-0.0367417384672335,-0.0186964170553654,-0.00105736870949761
0.039640303993962,-0.0454686222976409,-0.0235901504766178,-0.00281362444156874
0.0298941623493454,-0.0447024586191221,-0.0230446775364788,-0.00432603360468746
0.0293349286918957,-0.0326193732217789,-0.0146865710850825,-0.00476438982280689
0.0352207170762937,-0.0150633292168928,-0.00371944320662121,-0.00349565708596876
0.0374968618563018,-0.00839164248967565,0.00242287365394452,-0.000640665870377606
0.0301517722249741,-0.0165914550285352,0.00339761768178077,0.00248177431690865
0.0196000620490897,-0.0250009500863743,0.00309316560092299,0.00382478184666226
0.0149619024187969,-0.0206706746375578,0.00295117303683349,0.00280310341204
0.0157922728505535,-0.00943761009860322,0.00272971493061269,0.000658377944319095
0.0130936022114296,-0.00376890349184388,0.00229266927915562,-0.00118908982944044
0.00679317396631168,-0.0074245903309609,0.000215845629630413,-0.00218274783515937
0.00682627043508216,-0.0181156887017412,-0.0019163740134176,-0.00283275359929851
0.00977885952485301,-0.0230973401693272,-0.000843530378839346,-0.00362699141206259
0.00484587554919525,-0.0140806622765188,0.0030442031401771,-0.00398986724113235
-0.00268203311287239,-0.00324831377333443,0.0071136650083334,-0.00318792120113378
-0.00424344103717278,0.00652941638226938,0.00962078593090833,-0.00143581866702443
-0.00287327391504853,0.021251236677229,0.00951282322632671,0.000306913949595387
-0.00141835642242451,0.0319269742287659,0.00829801085382052,0.00122223537637774
0.0016237750691028,0.0330321888867657,0.00822896964489763,0.00142413571841558
0.00371645402251938,0.0325779508635215,0.00863419893859532,0.00150851275734186
-0.000939635029507998,0.0315289210141864,0.00860671364734456,0.00167530380975969
-0.0114327452195337,0.0209908810614012,0.0075702939538907,0.00135091141818684
-0.0183313820967515,0.00304448546574784,0.00533835568679893,-5.58614153908753e-05
-0.0132102196698716,-0.0116441065679138,0.00351458309220343,-0.0018466065777598
0.00396115740033616,-0.0216048982227883,0.00246832478060654,-0.00276752485159381
0.0178702881235672,-0.0340197627864057,-0.000516709694913265,-0.00288549480982763
0.0159225944075615,-0.0467841884038725,-0.00485048936421463,-0.00311573331694464
0.00743916219544143,-0.0425761567056576,-0.00584858786618235,-0.003051217126862
0.00356526150646164,-0.0245363963736967,-0.00388191577067409,-0.00179741665047757
0.00593615262552326,-0.0137152482389982,-0.00359885950858899,-0.000367508413114638
0.0122937891216538,-0.00929244820274654,-0.00929207061943725,-0.000519972907713607
0.0191977597719441,-0.000396905619974526,-0.0162523113525239,-0.00218623369489583
0.0257238202505956,0.0100003193200308,-0.0152364817468661,-0.00367443164970247
0.0294221885723897,0.013703561445151,-0.00882044507462142,-0.00342882718789389
0.0204768307195797,0.0126337463504894,-0.000310589397857296,-0.00125634087302601
-0.00178772138003824,0.011549025042411,0.00956907451438193,0.00166567233880817
-0.0227665207541779,0.00851428397389582,0.0147163852234776,0.00389273134518078
-0.0322038999077635,0.00515632737037729,0.0144165136785716,0.00470461643584627
-0.029566899651427,0.00286391341059549,0.0116883175470581,0.00424605708306791
-0.0214540983574769,-0.00383193837063351,0.00546201325972161,0.00297185536942218
-0.0156402200663816,-0.011883330429826,-0.002973419268032,0.0014636758739925
-0.0103549360198893,-0.0141014595183819,-0.00881308095084996,0.000146930230304652
-0.0028968556140829,-0.0129526141044395,-0.00983097534259552,-0.000827748422918636
0.0063609619074716,-0.0125423054856947,-0.00868020840595992,-0.00133107162173078
0.0188899326242286,-0.0148520927205799,-0.00949000610593478,-0.00147222811862921
0.0268101847155222,-0.0197928863366011,-0.0129616679965043,-0.00110175031468661
0.0235302154369223,-0.0220515481781199,-0.0150027358155175,0.000349217596385269
0.0190896339236047,-0.0184919474355442,-0.0143935228984525,0.00257531258506735
0.018357486658463,-0.0142148657284445,-0.0146135954656881,0.00377227616932434
0.0132132481293181,-0.0159603901554585,-0.0151581262996575,0.00216437459297161
0.00165321282196979,-0.0215422866780518,-0.0131947931956479,-0.00165512634567953
-0.00715003008989081,-0.0206728006032396,-0.0095695510934421,-0.00493215619849896
-0.00934737257947279,-0.0101350003703377,-0.00556375134761815,-0.00638996154378793
-0.00944791644576952,0.0030993508438363,0.000770991076549669,-0.00724947971661683
-0.00853798850957339,0.0145626291786364,0.00600532898009597,-0.00754473841681439
-0.00752125604431257,0.019355280342568,0.00497190661086216,-0.00527820332702338
-0.00646221323170569,0.0150896026684,0.00161953539059933,-0.000183656591958693
-0.00417791961743755,0.00861472446234437,-0.000114520831026248,0.00507752539930976
-0.00151024557453116,0.00322519724854792,-0.0015746154374384,0.00796675238607171
-9.63259740570863e-05,-0.00109812199244156,-0.00540738664872852,0.00794808325215194
-0.00105112459327136,-0.00316729673253049,-0.0110816818398043,0.00587790872930269
-0.00201047608088342,-0.00277797800220867,-0.0137386652405493,0.00294753274717059
-0.000129329653639237,0.00148244737387339,-0.012942629809276,0.000255381219151383
0.00149216572418254,0.00738451491643508,-0.0123156666427545,-0.001125283012595
-0.000196911098911741,0.00842248961435105,-0.0120659010575544,-0.00106523200706694
0.00198474413799026,0.00229924881629984,-0.0112035280386052,-0.000722294734334179
0.0130537227526888,-0.00989031095065797,-0.0113615357358696,-0.00101783064284258
0.0257841705746249,-0.0163104892499537,-0.009680276330917,-0.00184915031813545
0.0291811615328412,-0.0101019604292925,-0.00450297625421761,-0.00231978955228207
0.0217313741887903,-0.010246402135271,-0.0031222516317709,-0.00208000898098181
0.0119928860895473,-0.0237146588925432,-0.00451742799096144,-0.00237388136153076
0.00169108004507633,-0.0355253458689719,-0.00272787759357453,-0.0037629058122879
-0.0151890866137638,-0.0377561549348801,0.00133502846506934,-0.00456800400236577
-0.035406378044073,-0.0305169166670569,0.00514187077507551,-0.00330952246967598
-0.0493865185792726,-0.0166584013927271,0.00818320913903397,-0.000436815127495016
-0.0584285440676309,0.000723684983586395,0.0112617400666482,0.00284249192298957
-0.0621675913182851,0.0182599348470601,0.0120083484097433,0.00540685264366046
-0.051960067606562,0.0314550408617595,0.00948741560933334,0.00647483742501105
-0.0307949118711942,0.0365378429866041,0.00722737123509514,0.00616365567238343
-0.0116039738655927,0.0307354693776832,0.00750792398851586,0.00496265015677182
-0.00156317471518806,0.0183566649161521,0.00895007710486539,0.00290463047186417
0.00497129086682067,0.0107420578689363,0.00748524675815033,0.000356750563776654
0.0174927605647538,0.0126764711201935,0.00250020842332467,-0.00125198717821523
0.0326385620246253,0.0117924163823914,-0.00142377241594067,-0.0011262105773124
0.039706334066541,-0.000949303670901106,-0.0017704959590768,-0.000444906704658799
0.0402087504374869,-0.0140605299937341,-0.00069019133331711,-0.000457789880405425
0.0355826463432231,-0.0173047830575109,0.00105716941693732,-0.000581758870126444
0.0179610303850763,-0.0160320805075099,0.00536770540865236,0.000452202621754699
-0.00687945549533339,-0.0171545836627742,0.0088940646983098,0.00170133647147762
-0.024908150655403,-0.0154697697504945,0.00718873737267579,3.22929797263013e-05
-0.0329394564704211,-0.00573793502960098,0.00428402503032706,-0.00518338628429902
-0.039013020766334,0.00485129910378105,0.00317351307848189,-0.00988793248755817
-0.0454194511940161,0.00860064640284783,0.00452477515236118,-0.00924427538177564
-0.0427801720498304,0.00872325359179935,0.00927459336452737,-0.00239629461232561
-0.0348909618719644,0.012803461653953,0.0124455583300036,0.00668763260011412
-0.0351541636064362,0.0221612058344302,0.0145774840262741,0.013041709023159
-0.0439776015139663,0.0308300144264479,0.0192471717760518,0.0142577851064705
-0.0537860397067783,0.0372470421103359,0.0219160449424239,0.0102005379226207
-0.0562623858506929,0.035029807096637,0.0217922914681108,0.00293918194318145
-0.0444518435301062,0.00803642148132875,0.0207404567403535,-0.00316920881139508
-0.0261831764684869,-0.0228067243254919,0.0172577188226443,-0.00471685124419624
-0.0135344236955526,-0.0208703480539927,0.0142368654288814,-0.00171336130448242
-0.00433496550507544,-0.000464600646511233,0.0154171750036965,0.00347793133058183
0.00180153007089084,0.00909138359357046,0.0167900554705361,0.0078153795990879
0.00431858835763916,0.00243526229997073,0.0132921441054399,0.0085213078004111
0.0136329393919441,-0.00754541567814345,0.00453626015588109,0.00470798604735028
0.0318277136315208,-0.00352958834422074,-0.00558525711780813,-0.00128076584495614
0.0467693502283263,0.00470382612290931,-0.00959338616664468,-0.00601735968234524
0.0489582349746114,0.00441835452882576,-0.00807658659294543,-0.00833636563499222
0.0346366101360341,0.00490354274005547,-0.00834882656054868,-0.00950710139944208
0.0112545599304436,0.00774744193683522,-0.00838249465279303,-0.0108888933582848
-0.00734814522269053,0.0118578417546088,9.80052592048156e-05,-0.0114382358923316
-0.018733849768203,0.0246976044968152,0.0153157866403862,-0.00868176674515975
-0.024000302331332,0.0402290677589095,0.024850570404851,-0.0027355404806773
-0.024889449657322,0.0399741737391389,0.0214428577095335,0.00324761854639542
-0.027800718210598,0.0178165530758604,0.0116307788905118,0.00612775865020571
-0.0294571095769052,-0.00932447895877356,0.00635608088026357,0.0057204212086718
-0.0207427831897158,-0.0191114765902614,0.00742433499348478,0.00493251790474838
-0.00466522669214671,-0.0143820523972758,0.00842450717961346,0.00545552594450562
0.00892952424307331,-0.0156180470236823,0.00510343762084643,0.00539215990292487
0.0150618202335617,-0.0221408488328069,0.00102209129803861,0.00312356529590037
0.0130025299647247,-0.0242063947974789,-0.000618350738292191,0.000163160183930425
0.00825416385275845,-0.020834059532322,-0.00123534725304716,-0.00156853989264345
0.00728088758890174,-0.0140099853749052,-0.00246039527570165,-0.00219978296939561
0.00727713170324152,-0.0186606626823148,-0.00658939308956657,-0.00310836976274568
0.00318339748508588,-0.0312357833135765,-0.011686538717906,-0.00507265261302295
-0.00307392018781138,-0.0236064156611506,-0.0119623463904303,-0.00713671262689105
-0.00902675543644984,0.00403809970493896,-0.00784789636951458,-0.00742677505278855
-0.0136919273958503,0.0260829548865674,-0.00411337884770252,-0.00531985454919516
-0.0109263209234599,0.0297947442571213,-0.00382833590906192,-0.00302830591294161
0.00136673832492869,0.0201619640023497,-0.00550343586062761,-0.0033833762387936
0.0190264925025145,0.0018140920129121,-0.00525543650880745,-0.00523926958535902
0.0384009608440451,-0.0257793720350996,-0.00578579432767098,-0.00484403724288938
0.0475252236649385,-0.0431026604727583,-0.00545992017866653,-0.00155661086813004
0.0353052573445799,-0.0288642438092846,0.00269138882458146,0.00221775705589698
0.0184370342316728,-0.00480563569978274,0.0115962264586029,0.00490583749595867
0.0217198765131775,0.0011914619047244,0.0112040274885698,0.00612198116077459
0.0377573124181642,-0.00379113127852488,0.00544334945006422,0.00531919704258091
0.0408765198307047,-0.011396456420547,-0.000378000978731755,0.00254696895077446
0.026230998956439,-0.0235454084507197,-0.00658522794953764,-0.000801164186354322
0.0111097053945573,-0.0263853561837732,-0.0109611086489998,-0.003327766546471
0.0065922431701702,-0.00868568840287516,-0.0101409981533289,-0.00460304326136045
0.0062500584155931,0.0173750276656437,-0.00415887844713223,-0.00473187401900671
0.000909019409392441,0.0307959468968092,0.000770709938495805,-0.00368586771523663
-0.0106471248414877,0.0185469700531579,-0.00177614001761834,-0.00153151453513493
-0.0211755356259472,-0.00996356763726613,-0.00732098358607433,0.000753532708173523
-0.023886310931583,-0.0303607704186664,-0.00872207927522136,0.00196370084976338
-0.0235084713357338,-0.0392242845719389,-0.00795782464804235,0.00191474479364363
-0.0214392043925737,-0.058278314909218,-0.0111341293375509,0.00118241215669636
-0.00706874297761791,-0.0819217227766465,-0.0157623269368152,0.00027319621454626
0.0160558775597625,-0.0738766457979288,-0.0131897112185508,-0.00059806757747851
0.0293838623080272,-0.0378668251349075,-0.00447764129295287,-0.0012595371384978
0.0279183884859943,-0.00974481477336124,0.00180278462602547,-0.000880091825789261
0.0256524896979832,-0.00105413886104931,0.000273037990470789,0.00114968480364508
0.0342237866691732,-0.00133493044816917,-0.00802065305586613,0.00366182586000684
0.048513240236629,0.00378268364456649,-0.0151089261861836,0.00520837999293584
0.0618942725353481,0.0225768987165847,-0.0116027534006067,0.00545068843416022
0.0641207820621101,0.0371798330966472,-0.000323785032545952,0.00444120240301068
0.0395471464237069,0.0247005454125454,0.00763078227825678,0.00240668333671204
-0.0015101200259469,0.00439030836880318,0.0110973023982501,0.000133862129193681
-0.0314079740640238,-0.00260239068608039,0.0133586785211607,-0.00151211906356867
-0.0399146823545792,-0.00664011083450229,0.0120347073842371,-0.00233073071429159
-0.0333081782988087,-0.00850931958042484,0.00829200455252041,-0.00236330935818462
-0.0204726212323202,-0.000808802716333006,0.00776875379496149,-0.00139745472428188
-0.0110756748896036,-0.00241995180478565,0.0065137828060595,0.000694762848051658
-0.0129568332604681,-0.0283433774760767,1.80746015428276e-05,0.00258506878370708
-0.0210071139323034,-0.0501522127591569,-0.00219440629445522,0.00203142658645591
-0.024426335155316,-0.0405410090191087,0.00276867235449269,-0.000697559758880186
-0.0148137004221723,-0.0173668666001225,0.0028906112287078,-0.0028022342387575
0.0105964010495197,-0.00978967921083355,-0.00476109463481177,-0.0028092937539944
0.0330898536724989,-0.0171813393282307,-0.00876529851196756,-0.0010859837403753
0.0340860420015541,-0.0215276073247079,-0.00427380982063645,0.00204187442192972
0.0219592374364767,-0.0174038984878067,0.00125161831957806,0.00567772884666587
0.0139500455940539,-0.011335990058943,0.00401497284815929,0.00810290562312913
0.017328988821882,-0.0127855752066239,0.0019228902123001,0.00800468595929745
0.0236865287540059,-0.0181540042743732,-0.00579234938157358,0.00536935728293071
0.0205076973652609,-0.00891151502786979,-0.00971741464943537,0.0015649480188958
0.0103494160146267,0.0048885989129631,-0.00424302454953846,-0.0014720476830538
0.00187629840271199,0.00858991960043068,0.0043732180842212,-0.00212788447935808
-0.000498651261059959,0.0191278384408414,0.00915264607646308,-0.0004359366115008
0.00846526403160566,0.0350916612194651,0.0105044564308993,0.00176336986151612
0.0259808184658555,0.0366364942884272,0.0114639463003894,0.00243208151143348
0.0325762052611502,0.0263059797873742,0.011370482924462,0.000841198707041526
0.0195874007566329,0.017888861799047,0.0095394338831935,-0.00139569056799002
0.00530960114027266,0.0120483911027,0.00536985346001263,-0.00219861205618602
0.00123742288624887,0.00433958395893232,-0.00195364135421904,-0.00194145344519726
-0.00181233513895895,-0.000576698590347806,-0.00598987311907088,-0.00180615535653126
-0.00909820807179954,-0.00448016392517503,-0.00469603050308709,-0.00135402776735721
-0.0116570792513158,-0.0145177815372429,-0.0077773438337012,-0.000234111993717583
-0.00549259107203626,-0.0227653765788488,-0.0135044651307731,0.000537511142177342
-0.0039375489575268,-0.0206988233566238,-0.0114308239153259,0.000365012711434904
-0.0183473777484544,-0.00994377033485585,-0.00347041882196514,-0.000364197366458775
-0.0433699565064186,0.0089442914009823,0.00125424534501904,-0.00128568200867564
-0.0605125955108274,0.0275920112179467,0.00149073896841686,-0.00191915624061546
-0.057206508682902,0.0322919260946592,0.00366851336066192,-0.00138063648676107
-0.0400397981537616,0.0279619509314927,0.00856423108997628,0.000953652056535568
-0.0196225498968897,0.0283622131483579,0.00966647068690465,0.00421065321122144
-0.00389216510957261,0.0329289381152208,0.00695017259117721,0.00637613676499469
0.00353504840553612,0.0339726713741153,0.0064858645188304,0.00634776141657859
0.00318292185401503,0.030933491179398,0.00849021795199357,0.00474944080180662
-0.00396852449678626,0.0264856756452499,0.0109609855602078,0.00332018892858127
-0.0132362307106928,0.0172712641874046,0.0125805616545399,0.00283505581804664
-0.0196427939268244,0.00207547152271799,0.00944250101335872,0.00216882339920425
-0.017982744144588,-0.00909381462000717,0.00291297178877854,0.000575398330824468
-0.0100087190878064,-0.0105768711790677,-0.00161424829976533,-0.0012848366809282
-0.00555599155594575,-0.00909661489814681,-0.0036447003595385,-0.0025726274839563
-0.00700186315930701,-0.010644614943924,-0.0049930633787476,-0.00330815867693633
-0.013629730896343,-0.0157987301109348,-0.00625921554676281,-0.00422178878987439
-0.0259041589914762,-0.018822474029211,-0.00708499538308509,-0.00523192179906281
-0.0354152928723052,-0.00765485967300617,-0.00996532838424853,-0.00525157788430522
-0.0311383422808465,0.0134198262952379,-0.0155025264537674,-0.00374296856816336
-0.0160776074459945,0.0206699350797302,-0.0170959276381832,-0.00109022825903783
-0.00360530563539747,0.0123174363017002,-0.010581396373146,0.00204234532796698
-0.00251302021321038,0.0129449742354667,-0.0011018596952131,0.00467783460985663
-0.00912985494082926,0.027040356319556,0.00433005160784407,0.00566250839398412
-0.0161849608176707,0.0369134965530899,0.00513158764299093,0.00452917132984953
-0.022298040015488,0.0366504399664972,0.00376404888116729,0.00185733185956968
-0.0279740070213037,0.0247884346912919,0.000731199143814221,-0.000968276427802645
-0.0336907508608983,0.0066415037676068,-0.0024976456108659,-0.002717575043785
-0.0372276351164858,0.000945603096786186,-0.000508252239160543,-0.0028560017467198
-0.0358618955270594,0.00731360337050001,0.00462550707802809,-0.0016969407781969
-0.0308406958477803,0.0103674562136819,0.00454349368764485,-0.000569678897102325
-0.0230484739287842,0.00475382084447825,-0.00126561404703467,-0.00012413525272689
-0.0127065796988839,-0.00699413329104444,-0.0083170403752178,0.000350452225479638
-0.000671761667164859,-0.0184942346901072,-0.0126783149658558,0.00104437761975901
0.0139162848953707,-0.0227172907235996,-0.0121807162668265,0.00141279260627657
0.0302039048951367,-0.0250825179009273,-0.0104810863858092,0.00115536071498567
0.0444655156017798,-0.0414369431031255,-0.0146308539631322,0.00014478142527853
0.0506345982240856,-0.0540788620187056,-0.0214576422216964,-0.0012590016748675
0.047658808916499,-0.0375692344119436,-0.0208252405564239,-0.00236886377527298
0.0363444049216533,-0.0161254619688632,-0.0123166698059724,-0.00269582730759224
0.0124082721778958,-0.00685775626540631,-0.00408376475844704,-0.00231314571628543
-0.0162508483878272,0.00497069787816817,-0.00111424103501364,-0.00225463821674795
-0.031787035422871,0.0160308789531318,-0.00123399865516475,-0.00289127352783218
-0.0311553565670734,0.0128167190030816,0.00193361484496068,-0.00288986865561381
-0.0261527859759126,0.00377721893733418,0.010270241915463,-0.00130517744809188
-0.02424067475745,0.00325218928221204,0.0179465285215892,0.00105753871864429
-0.0261674811039721,0.00958222489654066,0.0198207225485462,0.00265643967596898
-0.0291104642074274,0.0163652705807715,0.0162722418702027,0.00232167764562556
-0.0231242319393952,0.018077774611975,0.00957821286329099,-0.000110169620358942
0.00942103521789325,0.00772630622171795,0.000515191863638541,-0.00364453050263535
0.0576919131767719,-0.00448067874458961,-0.00791531285588653,-0.00644741484297097
0.0731834658775925,0.002266215055461,-0.0103426417076082,-0.00670137613211291
0.0493200174480418,0.0271350190607389,-0.00469611325094883,-0.00414024602725932
0.024746875781661,0.0444429305971121,0.00162208545493351,-0.000319842860536308
0.0154320800636051,0.0260917390897103,-0.00306113878784646,0.00220313029405287
0.0147029036910622,-0.00922058812329424,-0.0137136068850124,0.00103742014475013
0.0217848911803139,-0.0195863767274389,-0.016839208849571,-0.00304269550109795
0.0333750916001488,-0.0158916594276245,-0.0120243289594306,-0.00598126473545505
0.0349221005509435,-0.0310112775808102,-0.00670069278964947,-0.00553191654912225
0.0268281555310597,-0.0470945419863415,-0.00300677569249034,-0.00262999807119904
0.0204165866753475,-0.0302160744476349,0.00410436468529688,0.00180605306328339
0.0187165956980231,0.00205795356905815,0.0117617815556334,0.00749658157757028
0.0170193640850184,0.0260572921891785,0.0113310746491529,0.012769653913653
0.012967580013045,0.0423481971954573,0.00643547063194671,0.0144449200722964
0.0109823179148495,0.0457469283689469,0.00929278162904877,0.0112845406861912
0.0089688097223843,0.0390986544430001,0.0202771138253562,0.00511691910482497
0.00570110982597692,0.0355459606702508,0.0248356906120945,-0.00236761629728365
0.00653860403735722,0.034655641330865,0.0201498288382767,-0.00977617946508241
0.00633163198659939,0.0301772178554356,0.0177489726378133,-0.0137909960296476
-0.0078701553859754,0.0281712096672011,0.0207314844428481,-0.0119206752709564
-0.027035588169855,0.0318054746848859,0.0232197868990902,-0.00633727562874524
-0.0273438448013971,0.0275766159622192,0.0200270981587345,-0.00176777965053474
-0.0122252923898749,0.0130495364061688,0.0126204102999888,-0.00100919114868681
0.000818575289622051,-0.00671592336360642,0.00660698469700051,-0.00317341877005664
0.0114457013982324,-0.0408685169544268,0.00285899483616405,-0.00499894328622986
0.0188960712522733,-0.0722666982780709,0.000583578253254849,-0.00415122160892697
0.0139942304535562,-0.0622930033706392,0.00327122377407515,-0.000757521017535213
0.000362326504545923,-0.0202377115834902,0.0092409694606199,0.0038313970034534
-0.00634427154294112,0.0134864144161167,0.0118670737375572,0.00770644277664097
0.00186928217729564,0.0249109004008427,0.0111792278384813,0.00893179601974963
0.0161199933378597,0.0232169385506344,0.0103310291441329,0.00711173054617142
0.0238068998000799,0.0191957893430155,0.0106031338009761,0.00371062788680032
0.0190131112958926,0.0206444614313252,0.012617562390189,0.000646504737512813
0.000445400861092286,0.0313540182350311,0.0132812664141054,-0.00104034810360118
-0.0202180624488107,0.0440680668586398,0.0105141747350918,-0.00134999864994205
-0.0293776811656343,0.0461974904856144,0.0073149023336258,-0.000769961641208599
-0.0266256179489191,0.0339287990504625,0.00528862980012107,-0.000219404899798042
-0.0192212707716039,0.0195981515294507,0.00652293396120663,-0.00054675516839724
-0.0186562640093912,0.0134226196567086,0.0120145749264125,-0.00146927055337614
-0.0254094080561345,0.000658696776190045,0.013950957859517,-0.0018353310811187
-0.0213822348913126,-0.0242112432574148,0.00784916026396412,-0.00126623218014196
-0.00180274370960531,-0.0441331879955296,0.00246009358678415,-0.000507532456991255
0.0148034032219248,-0.0498030725705943,0.00375736573964087,-0.000164029509682096
0.019394258595492,-0.045783062627294,0.00580270020545294,-0.000229042032354785
0.0195089840534318,-0.0414854215440196,0.00231096157768857,-0.000698603065312355
0.0203913384907499,-0.0303675025990343,-0.00262016171791242,-0.00206680798559003
0.0149186750049806,-0.00739068647524677,-0.00181720292757889,-0.00417322516677049
0.00307437165531554,0.00806399334195717,0.00343696610562666,-0.00557299973015586
0.000413562496455876,0.00275457024506091,0.00412737183616963,-0.00549360531278368
0.00967916918632786,-0.0117182356673405,-0.00109324687636199,-0.0045879990281033
0.0144662230092826,-0.024342410751549,-0.00525538513282842,-0.00349389345444237
0.00980219183075094,-0.0353288563786472,-0.00787322194957605,-0.00227361538110583
0.00950280610293018,-0.0340606776818851,-0.00822524833651578,-0.000877058539478301
0.0125166774476536,-0.0115916322511966,-0.00473009822886848,0.000416889521537926
0.0042844153008245,0.0100398146026231,-0.00105288635572845,0.00120089467496901
-0.0131532146642512,0.00820078408987992,0.00162921743823434,0.00152505898188287
-0.0244698179451506,-0.00118639718617944,0.00549157778808726,0.00163102850523574
-0.0242159296879305,0.00412580233110803,0.0101486518162595,0.00157555896453085
-0.02320749838671,0.0163051250723594,0.0121223036039776,0.00153794115238612
-0.0263872847900353,0.0157097928815307,0.0102919998828934,0.00177548524997127
-0.0231329764263929,0.00385426035757688,0.00476197437957554,0.00207038725738315
-0.0112819598456159,-0.00295888042226817,-0.00444655790667997,0.00148460445139521
-0.00041498346308861,-0.00497164211376759,-0.0128423692753817,-0.000608417339770256
0.00765156701882541,-0.00993327827816731,-0.0154731845495183,-0.0034559672335982
0.0155325190717939,-0.0126302289814483,-0.0122136939033641,-0.00506951076731616
0.022184691413713,-0.00655471645072108,-0.00803406797626468,-0.00360934905165135
0.0275522311951511,0.00553698942515982,-0.00583010831028761,0.00016649745774524
0.0302190726736823,0.0096492261218875,-0.00632163218375943,0.00337814487776912
0.0309530864445626,-0.0101341787231503,-0.0130191329032093,0.00435056850719671
0.035825922587468,-0.0426932958267275,-0.0223330155692846,0.00380420511244607
0.0384417630961482,-0.0540388102908861,-0.0241373703827685,0.00312473032233691
0.0300129686698418,-0.0340267035824356,-0.0170260843345675,0.00269653547441532
0.0204411152586748,-0.00507492087240265,-0.00712855893105563,0.00204731400528664
0.0156233822963259,0.0134689435436144,0.00133654332369296,0.000911508381972589
0.0102001724904403,0.0192845684295805,0.00687938230159347,-6.30939937489167e-05
0.00507723314616016,0.0178601202748528,0.00839772763043447,0.000292152988381441
0.00225518833752568,0.0154126636780363,0.00663572595744552,0.002141445975123
0.00122493707913624,0.0135177976075433,0.00435350293495189,0.0038712392085168
0.00198322316082438,0.0101931874832804,0.00260146123133367,0.00394821135433544
0.00365788912294699,0.00695490028694616,0.00156722836084147,0.0023817639593073
0.00626299713462115,0.00612955993766407,-9.75035174044419e-05,0.000198193416463631
0.00963248794517858,0.00509870204340121,-0.00512038715863252,-0.00180584844479511
0.0123589197167385,-0.000304463572751308,-0.0123235073626657,-0.00355707582961618
0.0133086829536246,-0.00489930721367394,-0.0156225317389621,-0.00433652913327584
0.0125024943857333,0.00417157142631901,-0.0125216632209586,-0.0032044871657325
0.0106138468501841,0.0212226277956709,-0.00839170957347058,-0.000396094649470326
0.00828590089409777,0.0242384924157022,-0.00752195161486148,0.00309778722144133
0.00577399535146842,0.0109111115949788,-0.00958189727375846,0.00581426625230201
0.00326869055040373,-0.000141966292805266,-0.0116994025456464,0.00643738294304608
0.00326231783819755,-0.000497459206598435,-0.00944666498444355,0.00505920455210859
0.00610633137840079,0.002816040341699,-0.00294549232398373,0.00325921305316956
0.00414637317350585,0.00373071817006096,0.00284060652483472,0.00264622111504919
-0.00616241828509485,-0.000825636227215831,0.00418739179848614,0.00331884854095495
-0.0136245378282571,-0.0097804057175373,0.00359094566363823,0.00383134185857309
-0.0110440561573973,-0.017268184746908,0.00429943492066559,0.0030273699066503
-0.00536411837220681,-0.0181508943640421,0.00445110315603328,0.00160014228664565
-0.00324620266071485,-0.013625598553378,0.00121901498624087,0.000775373526481449
-0.00661809137341787,-0.0129593443517513,-0.00583360900677973,0.000140366944051218
-0.0129019225200966,-0.0151631280548147,-0.0120339596853459,-0.0020760974069234
-0.0176085770333521,-0.00364772957140328,-0.0101540414781776,-0.0056339025351982
-0.018944216717601,0.0168762470737577,-0.00162067171806776,-0.00681527620166707
-0.0155751862005023,0.0201164088297253,0.00284847388284679,-0.00347964328643002
-0.00834983080300187,0.00589749923929846,0.001579608797159,0.00177577993460528
-0.00121265462674059,-0.000735165780758145,0.00097236485321941,0.00531187083011068
0.00242107217237806,0.00966627418378639,0.000859709689542471,0.00567809146191873
0.00373999668618707,0.0191559897525613,-0.00122269497864344,0.00332682648193695
0.00616981645648976,0.0143979342496527,-0.00376723771663427,-0.000479252236614719
0.0098513308423675,0.00347679158759819,-0.00553366723591716,-0.00390735846659578
0.0142575324788118,-0.00426661979645321,-0.00586113645636876,-0.00534463344795827
0.0165638113448538,-0.00550526416100415,-0.00420191315056038,-0.00441299194695234
0.0127380923718299,-0.00171257932732504,-0.00192178665113008,-0.00188813508516991
0.00459153159112693,0.00424926340564808,0.00107657980328214,0.000515573650626158
-0.00477208603870414,0.0147370961642905,0.00552865638737537,0.0013954465930251
-0.0129417556126342,0.0223403983166828,0.00906737833876454,0.00100240837618586
-0.0143700407244407,0.0127980964869894,0.00905576714843314,0.00028583223377657
-0.00961106316246543,-0.000945170015573812,0.00760139030126737,-0.000449375071351513
-0.00641108413221046,-0.00522517817661604,0.00438114621763872,-0.00115863587924212
-0.00552298547507633,-0.0133482271842502,-0.00447365206597173,-0.00180564005140652
-0.0056744189685121,-0.0171825877360078,-0.0100283176336364,-0.00232706720103877
-0.0122007150858274,-0.00171533013176845,-0.00373269906568479,-0.00168905283006375
-0.0227588652944459,0.0153715204239585,0.00345704947954845,0.000881078930732983
-0.026041726074416,0.0209697805968553,0.00246263519888682,0.00372858127768878
-0.0211177521042533,0.0189748578512429,-0.000833062280004022,0.00442824610473705
-0.0196698926369836,0.00633824508367815,-0.0038108045806019,0.00283630362954344
-0.0304062978350549,-0.0238923216335251,-0.0120844998981386,0.000412667272233594
-0.0411550620311668,-0.0585011598854102,-0.021835997253043,-0.00170137734601184
-0.0362152429481481,-0.0633159376858746,-0.0220845638678549,-0.00242135417190803
-0.0237210004630082,-0.0327911159976034,-0.0149127430064206,-0.00116620002395754
-0.00993713919740877,-0.000197947529406245,-0.0114470719971441,0.000879774268257976
0.0117058339620741,0.0175669653406852,-0.0119833971737182,0.00188115712825142
0.0313333724616274,0.0280218730165909,-0.0085817334787257,0.00149891903509684
0.0345081565629395,0.0315086171278606,-0.000493108190573603,0.000584159087944281
0.0324113333365025,0.0215732120305747,0.00446431239662419,-0.000437984522911127
0.0409132106560134,0.00840783926087431,0.00432272151162292,-0.00165521949804255
0.0539703138249838,0.0145462412505297,0.00383079264063478,-0.00260387742691853
0.0588870073437202,0.0405915678369903,0.00265477738389882,-0.00249817642060705
0.0507956856175103,0.0548684905942309,0.00187876372093813,-0.00151701979207112
0.0299271551436954,0.0429659490775051,0.00330100188799889,-0.000126135287853161
0.00597357065676075,0.0240113978322996,0.00342266906387783,0.00143065367362934
-0.00959777692025042,0.00452064139021556,-0.000427383417572327,0.00227096254325997
-0.0141153775484673,-0.0201511554842279,-0.00684188957708401,0.00213187671728714
-0.0138210385749406,-0.0340742066236625,-0.0104446250856634,0.00189989726236489
-0.021421895406958,-0.0197206671956407,-0.0110921647192797,0.00190844674605841
-0.0287324107055628,0.00263443017667092,-0.0126953925774899,0.00183682701684352
-0.0157082322937799,0.00129287221767814,-0.0148435797756896,0.00173326948484699
0.00864748900530874,-0.0294217046947666,-0.0176676352554668,0.00182269474439748
0.0215182411603087,-0.0589845710713541,-0.0197098192256662,0.00166442780611976
0.0207921987930394,-0.0421037821865911,-0.0163271229724254,0.000612955017006818
0.0206739602194979,0.0103934284686546,-0.00917377196925218,-0.00102534567180775
0.02071482048597,0.0451360150896143,-0.00366029871452889,-0.00213010379332114
0.00838252606719924,0.0476001507254328,-0.00038271828540039,-0.00224464213813768
-0.00892833239685728,0.041383951017949,0.00145358747803115,-0.00196163522762348
-0.0175743360213954,0.0426851848014784,0.00391353268110468,-0.00177880563820224
-0.0203498973293439,0.0472829138098983,0.00720666330126744,-0.00169909648557783
-0.0218958688365586,0.0469370868242161,0.00833404115432571,-0.00147781779528246
-0.0189178289122536,0.0379936598478389,0.00654779066781813,-0.000898552943023349
-0.0090920652302653,0.0187141327164661,0.00260414408140304,-0.000395559620446149
0.00183276874218662,0.00249307240059191,-0.000864475102476687,-0.000412867397323222
0.00802891309314863,0.00162613908470915,-0.00263921907529531,-0.000556710109301501
0.00888305259762216,0.00441375612026235,-0.00221849666139131,-0.000318402680080532
0.0113341106415003,0.00356810735558615,-0.00066206113634882,0.000350656266534478
0.0163068693845497,0.00611285420482358,-0.00237331933066465,0.0011336556810334
0.0139036279234142,0.0111723836685395,-0.00945604784141684,0.00150540577333371
0.0109198809192576,0.00741435984674747,-0.0201091466039379,0.000928501559965628
0.0168480302300523,-0.00229405454165456,-0.0271277910314645,-0.000423953975905414
0.0172793445124929,0.000694053323334597,-0.0252214146120347,-0.00157032918002325
0.00176718885128996,0.0203828397770033,-0.016066644754675,-0.00155514946198708
-0.016688126556285,0.0365834114568601,-0.00980209757840846,-5.71133729920159e-05
-0.02359779762027,0.0287390166901699,-0.0142330753261118,0.00193622373597172
-0.0123766345035267,0.00175460487996405,-0.0165530721893076,0.00212671260878106
0.0136787544377987,-0.0203490170341698,-0.00683174167256408,-0.000444630038670995
0.0313599279777048,-0.0205381342874997,0.00334366121654019,-0.0036163456770252
0.0240095654785656,-0.0044097292361233,0.00642191174100634,-0.00452378011600433
0.00925986587647304,0.0114606324752806,0.00807439133680139,-0.00260663166587747
0.00506266827500675,0.0110043348309854,0.0083544362364126,0.000116648811125407
0.00258287252230311,-0.00962744695777794,0.00428515048872417,0.00161945282661763
-0.00435481781075694,-0.0315001254659542,-0.000562621381048666,0.00162741363539172
-0.00882716495816288,-0.032441833250162,-0.00409442116550116,0.000715463673508365
-0.00949047685298315,-0.0114214746444041,-0.00447509450742587,-0.000384202493627684
-0.0118499498024282,0.0112890298276354,0.000200033055573525,-0.000789544252258849
-0.0196924125776831,0.0186071426419692,0.00492781776854576,-0.000139535163140976
-0.0266282960023754,0.0133462451986542,0.00374235762654837,0.001079237061317
-0.0280770452921767,0.0101648421011246,-0.0021178152155141,0.00186850885166583
-0.026896978603902,0.0144555504218779,-0.00598922940328458,0.0016146880099636
-0.0208635490304322,0.0197516016725356,-0.00405706287000147,0.000730105887888933
-0.00575480324416467,0.020768110142118,0.00184990483203409,-0.000150125019457312
0.0143689101439138,0.0154799935433079,0.00630597889467443,-0.000984677815393653
0.0310029556932451,-0.000767524789385202,0.00424873189529417,-0.00195666888507377
0.0413771602182436,-0.0351517044205142,-0.00229651331977544,-0.00297521367460721
0.0377462234476267,-0.0677899558157613,-0.00679761516892226,-0.0036854785044062
0.0137946929460493,-0.0654014891190198,-0.00473351105763292,-0.00350952522300037
-0.0117474390708056,-0.0345478324882007,0.00377839712578126,-0.00234426902884184
-0.0169156666128758,-0.00856241379156945,0.0126393195944446,-0.000480780835503028
-0.00536467187167417,-0.0065474300519679,0.0149806310490776,0.00223403982705629
0.00724011874233966,-0.0185044181339623,0.00973575338062194,0.0057534529949792
0.00635825484863433,-0.021127414038225,0.00290063646889409,0.00932502998160391
-0.0151473476310635,-0.00875922985198898,0.00269595048720692,0.0115447303935463
-0.038599272351352,0.00295496768380258,0.00871797330267121,0.0108866149598532
-0.0392076575304387,0.00506944912928578,0.0139201872074636,0.00720668109055327
-0.0236922636242556,0.00956216373270732,0.0170412774271374,0.00184320969751172
-0.00550194838121802,0.0205112389507171,0.0194326662744085,-0.00346887394609793
0.00887240230819327,0.0192378736466274,0.0182555647227296,-0.00730432588363019
0.00518368011938253,0.00235543445424702,0.0132896101496172,-0.0088490112859154
-0.00975879830568199,-0.00833312705079316,0.00971416911890169,-0.00793322715107831
-0.0130564790706922,-0.00610222958651965,0.0109046898805689,-0.00543146663048927
0.000442618346345749,-0.00846766030779855,0.0135016487078197,-0.00289266932803506
0.0164925525625142,-0.0302349556277076,0.00994409716035303,-0.0013486944727994
0.0154566914726414,-0.0512788025643478,-0.000418944523547603,-0.000772748856616988
-0.00302891319286624,-0.0424471044649408,-0.0090343720864073,-0.000521662642135422
-0.0219235113431699,-0.0163797850089614,-0.00770683330638038,-0.000203798624027188
