0.0452066410361247,0.029692109402865,0.0329679090820162,0.00549553593917532
0.084252094693516,0.0463136223179893,0.0354404205938586,0.0102651875425592
0.0958412362060411,0.0641270067559297,0.0358526051604665,0.00934469616583915
0.0819506710906884,0.0969271384532066,0.0392054709739635,0.00440903437496242
0.0310283223240313,0.145483680086266,0.050152042811957,-0.000126507104191029
-0.0295151345820433,0.144052910843225,0.0556103031511805,-0.00178797113098602
-0.0313172589863702,0.0855453598776171,0.04339356439978,-0.000356088770261084
0.0231107725036377,0.0415308078637125,0.0324333209682418,0.00274270004890653
0.045491547899179,0.0178693568693873,0.0266906923472165,0.00376101749052958
-0.0130167820588518,-0.0104992483339478,0.0148537532898033,0.0012462183566245
-0.0835576797486541,-0.0302470769779997,0.0078416838041931,-0.000651545297894241
-0.0935228396406291,-0.0378986156487828,0.0124732847889927,0.00189557151091531
-0.0647434675372116,-0.048208433985567,0.0175385363236025,0.00729994670661202
-0.045027967583991,-0.0578490109100038,0.0173375978125352,0.0113032461626151
-0.052375215626198,-0.0479793540453162,0.0191956047162232,0.011100178260356
-0.081514941120258,-0.0178458662034788,0.0285953072418561,0.00535814283258356
-0.10095566238456,0.0123655133103337,0.0394271584959424,-0.00617482327782351
-0.0740031087337001,0.0274460911533083,0.0401531382177523,-0.0174187598139106
-0.00859810055268728,0.0296039678039405,0.0274283908861727,-0.0174165170919501
0.04590227109522,0.0250778082485912,0.0103964152518333,-0.00429860873827732
0.0684076913566002,0.0128731165410833,-0.00106096931504644,0.0107360336749547
0.0853168402156233,-0.00129235948812659,-0.0069583327573546,0.0161634394621611
0.0926414594856335,-0.00907064278738177,-0.00972983565060797,0.0109971844473382
0.0591718931719751,-0.0121276209347844,-0.00758185528545193,0.00294428011677553
0.00819631966594711,-0.0091480521281616,-0.0023229692668957,-0.000985751426193969
-0.0173017693733731,0.00471906135028682,-0.00178409908633405,5.1144818501765e-05
-0.0144639168514346,0.0178939497661338,-0.00839585730489095,0.00327854759432565
-0.000726203259311449,0.0151088771488126,-0.0152989663075543,0.00616438321200795
0.00947889092910609,0.00571278983711727,-0.017636552674886,0.00752604571540045
0.00776891476733661,0.00883537778898153,-0.0128878864379213,0.0072449940282451
-0.0029123364551008,0.0352601538485403,0.00447924892122268,0.00581096927510003
-0.0143240599553747,0.0677871256535587,0.0258416643087645,0.00357088152040527
-0.023611505072524,0.0659663615304074,0.031757050472942,0.000876662800137634
-0.0294323332744046,0.0298387008852656,0.0220607259915814,-0.00098884590725066
-0.0294576790455143,-0.00371681411814741,0.00920847745627171,-0.00097414810495173
-0.0248948206663601,-0.0153449641220945,-0.000278170500155699,0.0006368563767366
-0.0196155742734918,-0.0100842951498177,-0.00386384327860737,0.00286957285605503
-0.0162426245183897,-0.00265196418362364,-0.00255983595988108,0.00462149103488317
-0.0151638304496049,0.0011412033422283,0.000654003996940607,0.00543539626715817
-0.0119717393247122,0.00612668829812425,0.00301358403628704,0.00523489272675192
-0.00576365256244489,0.0139316442237199,0.00284296878733685,0.00363843588296749
-0.00357274613713017,0.0133692200482684,-0.000860319249463289,0.00109880658938325
-0.00808528942894855,-0.00396633632585379,-0.00812596698265608,-0.000559486907469382
-0.0125020992100865,-0.0209551635232486,-0.0145385941368911,-0.000280634635745072
-0.0108111717348923,-0.0218635218819518,-0.0176354932354419,0.000675403637879321
-0.00736210101223347,-0.0136665043629125,-0.0167237171560411,0.000842333243204011
-0.00528666379138743,-0.00542146426712613,-0.00972738316515552,0.000184975407458701
-0.00133338292679118,-0.00189058149617024,-0.00371126437160064,-0.000843060035050132
0.00253499059549498,-0.00367910998934971,-0.0079378636895198,-0.00190334089603779
0.00523825907866968,-0.00354741099984558,-0.0158254184736047,-0.00288068439339685
0.00898329623617389,0.00045492512410974,-0.0193425919165974,-0.00367568345772335
0.0149527914654936,0.00100893621902502,-0.0218138345992556,-0.00409847438537198
0.0213998323081138,-0.00317896749808367,-0.0250055461915478,-0.00424032287607351
0.0219983032460065,-0.00828042392960946,-0.0274700138085972,-0.00403369131355261
0.0151598275563282,-0.0123369766346218,-0.0277063408467782,-0.00337979340698144
0.00901711816550646,-0.0148125416142298,-0.0252323964621399,-0.00287546153322474
0.0109458885089411,-0.0184215094993658,-0.0229093893038315,-0.00310489821535915
0.0100466207283649,-0.0218067972804329,-0.0216864137736125,-0.00394329862436299
-0.0136239448572606,-0.0166616102516462,-0.0174488253646642,-0.00477720580468202
-0.0383693115738601,-0.00160209040145751,-0.00921973804175974,-0.00487137252485239
-0.0203309221881945,0.0115006128018529,-0.00267188646698981,-0.00394634472464475
0.0191153992926282,0.00619219486668111,-0.00119197696072836,-0.00221687720726994
0.0305736972428386,-0.0146204235944433,-0.00195538212717901,0.000116395861937195
0.0203321981034682,-0.0271164070136295,-0.00216062637859644,0.00255963134155791
0.0158727219854649,-0.0278339560836507,-0.00395651147261981,0.00422197284482694
0.0264356002974629,-0.0317079653159381,-0.00609448104495885,0.00434476653452699
0.0395226962030293,-0.0394787534767891,-0.00545326311389229,0.00255015918999934
0.032235814321956,-0.0362627089327121,-0.0021688898854604,-0.000568530455956814
0.0126685850354431,-0.00978614306873533,0.00353315195371969,-0.00415322030447658
0.000629449816607779,0.0221998436900418,0.00825338910049502,-0.00790008931315354
-0.0042740867279951,0.0258643398390035,0.00853561590427656,-0.0105673842347844
-0.00589483302608288,0.00395527272482816,0.00632967122257457,-0.0103279681942507
0.000741131748720443,-0.014618021944984,0.00633087488395066,-0.00690853470703563
0.0121661820835471,-0.0205718502948019,0.00974058748058577,-0.00194680257798904
0.00563789677571108,-0.0131665693235683,0.0147345007524075,0.00193280318274764
-0.0149279633722158,0.0153784761757591,0.0191920626248352,0.0027914941856788
-0.0199833591343508,0.0448695469041003,0.0203618496859915,0.000800576122944084
-0.00794650628539375,0.0367828656851163,0.0182746667799206,-0.00171695300943386
0.00147219863989234,0.00151520740331684,0.0164072070887042,-0.0023105209620964
0.00349281846408892,-0.0251464429627749,0.015858377002373,-0.00103871576314511
0.0151434225377414,-0.0389154479247219,0.0130829858578103,0.000314974389921444
0.0467703983023167,-0.0490225828237158,0.00508619348694286,0.000621621856013682
0.0747444749558021,-0.0523309991134638,-0.00316481651676344,-0.000269064719551706
0.0707482025709478,-0.050581626197302,-0.00738919643915412,-0.00196849161801238
0.0407303304592067,-0.0522174497122574,-0.00910924565766464,-0.00330605102469577
-0.000790434802260431,-0.0516665519238491,-0.00809745355431563,-0.00315247622801245
-0.0598634753248294,-0.0488243883369381,-0.0105283840504976,-0.00153684469001665
-0.110931972712864,-0.0435509840504404,-0.0139517881419896,0.00107721968510377
-0.105496890003192,-0.0237010851277049,-0.00654857823547674,0.00365185464742135
-0.0662778014309534,0.00612704358383503,0.0047370641356386,0.00499389769480186
-0.0345460989723434,0.0341188844795316,0.00990588196987511,0.00537712519445584
0.0012398342245355,0.0590442159382479,0.0094390743804457,0.00558634940825462
0.0358129650322559,0.0820367403969137,0.00827137487024456,0.00548946776876156
0.0319664178829771,0.108597091182377,0.0102630616854896,0.00430883327051843
0.00474806726525916,0.129455759943073,0.0128729212798294,0.00136644328782475
0.0149875625203806,0.112680674733408,0.0104348308085758,-0.00256271545156291
0.0726557448065831,0.0590994305267242,0.00210000060327793,-0.00511434371079103
0.126234952316375,0.000359390483549521,-0.00557773679999187,-0.00505153314345054
0.137897480525507,-0.0493664403664642,-0.00804592916343075,-0.00353606392426701
0.102364957517063,-0.0800294838996754,-0.00817758272578374,-0.00207391690175631
0.0412867997334956,-0.0850936096422538,-0.00854944988359749,-0.000888645790656136
-0.000901557576668377,-0.0760688527390289,-0.00786922648524823,0.000422392809653047
-0.0305463241821982,-0.0637658188735599,-0.00862678303684074,0.00202451015854712
-0.0765459668859907,-0.0544196579483534,-0.00888794078474802,0.00404368849143078
-0.101903692552067,-0.0499803572355964,-0.00223529582943111,0.00596650477035489
-0.0814957941789397,-0.0437454583473203,0.00313610541612142,0.00647408815454084
-0.0468249375654201,-0.0342500114420161,-8.71733988662346e-05,0.00490960249629881
-0.0189796114433957,-0.0252657592171252,-0.00737623306955889,0.00186809567012532
-0.00214785572623086,-0.0115518473988041,-0.0142046895864316,-0.00091833013875648
0.00439223524046762,0.0257968585883809,-0.01486066544276,-0.00179768365043613
0.0127342010603964,0.0825082131043663,-0.0102225375799302,-0.000761658544393647
0.0358412348405424,0.110935686552838,-0.00735661160902712,0.00100573467472882
0.062364856485557,0.086940541302904,-0.0050422232608991,0.0024222210672568
0.0634849648289888,0.0428958312952938,0.000390132394295583,0.00312081513741004
0.0476713919145881,0.0186023267149678,0.0041468838263602,0.00298107476648117
0.0432496127147517,0.0134227559337077,0.00235664020401912,0.00230679102425095
0.0481075113188142,-0.000733036499497301,-0.000952463477834189,0.00197688728709688
0.0505832409721201,-0.0249340427781324,0.00321006903164858,0.00167017149163839
0.0378976764985577,-0.0395888155080053,0.0178857293680075,-0.000712703145585878
0.0052680442655867,-0.0503923304212041,0.0320935191798494,-0.00592543603278516
-0.0207974617221177,-0.0682376723893742,0.0358954241348487,-0.0104364329613218
-0.0169007331904618,-0.0733349477044293,0.0327791643972356,-0.00959944299261939
-0.0237908132975363,-0.047696538088629,0.0353968825211911,-0.00379455780871516
-0.0780457189333222,-0.000990449303726063,0.0480103678719933,0.00160681262501514
-0.110525447618505,0.0477567949367287,0.0562540116885539,0.00245317228022481
-0.0723954782759663,0.0583382098402429,0.0488114011188315,-0.00022522493104497
-0.0178581330878547,0.00254454690450908,0.0341584417116203,-0.00274126901562155
0.0092274703903435,-0.0713132131238562,0.0236530572363807,-0.00295100211417685
0.0157663203683368,-0.102991381652766,0.0182231164254862,-0.000785186891403679
0.012135431225004,-0.0926327681340508,0.0145522533112108,0.00315108872428578
-0.000428307018453727,-0.0705349857940642,0.0102086028208828,0.00750450373978127
-0.00817755388222569,-0.0443862377057509,0.007093006111205,0.00987815200849774
0.00484134179739046,-0.00702645338800294,0.00718471407933402,0.0085164818908413
0.0346708252932168,0.022301002812304,0.00265733975492326,0.00423594484132623
0.060221047917906,0.0345362416013471,-0.00949779557120016,-0.000434809901118133
0.0642437505640544,0.0446325834316538,-0.0179646590805409,-0.00370455036609138
0.0487106290057677,0.0561075676605206,-0.016226546238396,-0.00515099580245653
0.00978507981904227,0.0718784223276711,-0.00943951915595842,-0.00463134700547508
-0.0444493537188318,0.0921189105278668,-0.00803942436381978,-0.00218401872573371
-0.0633713274265957,0.0912873043821641,-0.0157636660233774,0.00128684839301791
-0.0302279918471108,0.047693944926278,-0.0204478610134313,0.00366216447892406
-0.0116079330305276,-0.00167841901519883,-0.0130057829253336,0.00275792064257853
-0.0473303646693229,-0.0148651722960664,0.000240386309933185,-0.000545453389442094
-0.0724020004152245,-0.0132282539051901,0.0126977216187721,-0.00314421665877697
-0.0406676237433503,-0.0224075930618092,0.021503531121885,-0.00365749371810878
-0.0022146733338009,-0.0284859391761016,0.0219758082558442,-0.00274459502024321
-0.00491580207575092,-0.0208856048284593,0.0147734827332721,-0.00124815824090724
-0.0362909341244805,-0.0115012091891002,0.00821129778026097,0.00019167572529883
-0.0627776577506978,-0.00478748787132876,0.00569750634149936,0.000766129725837216
-0.0666391942864073,0.00761344086080184,0.00294225324336257,0.000450881410471407
-0.0546025123455087,0.029940413018428,-0.0017023309379739,0.000179281916666328
-0.0355829164958851,0.0549939829967962,-0.00624492502903848,0.00029278155417029
-0.0103727007372798,0.0664724282099046,-0.0110754994341943,0.000257528613222822
0.0104157275280841,0.0594214612358259,-0.0184170272721086,-0.000131949845957947
0.0128661113043949,0.0488418610027464,-0.0290521400484736,-0.000331529568272625
0.0042306889328792,0.0489849614780255,-0.0388298948478325,0.000728182234036877
0.00895875085669826,0.051881438520309,-0.045665140193275,0.00357152483264756
0.032263376160706,0.0395839800886032,-0.0530437397674622,0.00722209539923491
0.054938751102454,0.0153637441211514,-0.059267114864848,0.0101170761342745
0.0667350983218384,-0.00391402318377325,-0.058879627967319,0.0104703508144061
0.0657632705878653,-0.0131019579700178,-0.0555508155999324,0.00685137336012632
0.0415685510830771,-0.0108081549476687,-0.0553695333917213,0.000943785479272796
0.00315815996301037,0.00331920669993985,-0.0537478979348159,-0.002993741305707
-0.0234352070520365,0.0178543862623025,-0.0481599542572151,-0.00347655787531314
-0.0318806758346965,0.0219757050981999,-0.0416148901144767,-0.00289091360081981
-0.0301432096433342,0.023991956563453,-0.0316493355433125,-0.00313177727513905
-0.0297999453922775,0.0328513593492589,-0.0212258445156706,-0.00393363194155671
-0.0384624201631717,0.0359697108948516,-0.0168481979513041,-0.00468376275983822
-0.045846052595163,0.029038412998516,-0.0157585173230403,-0.00519041716320071
-0.0371988780594679,0.02523832524378,-0.0124843511419529,-0.00478983448736884
-0.014336149326894,0.0293689851364091,-0.0052505589071914,-0.00246565675930849
0.0109002391065459,0.0297824532048519,0.00114509360938622,0.00139660326544954
0.0288901119161322,0.0125992475741271,0.000648330679759749,0.00443480111128203
0.0332223062180701,-0.015396929079259,-0.00594461172657599,0.00457474314110343
0.0254823207901313,-0.0315357313115043,-0.00834999967845962,0.00241834289129516
0.0150580333604215,-0.031104750752883,-0.000647169570813542,-2.94270696520253e-05
0.00541164967050744,-0.030134078360474,0.00944687406629015,-0.00124952458291893
-0.00746076028193472,-0.0341882782442256,0.0150468784809933,-0.000319848488593923
-0.0110949814223597,-0.0367871528046451,0.0163703044351524,0.00223805225845019
0.00613716827706524,-0.0364101512777277,0.0154998222738894,0.00432609678670746
0.0286602215159962,-0.0272264277305609,0.0169307309570661,0.00360136107233114
0.0417400960723279,-0.000588402477385543,0.0247404571376267,-0.000121652261577228
0.0415945097723325,0.0294637966739163,0.0315232901283349,-0.004187485098588
0.0260988994330456,0.0220237695671653,0.0253942905547477,-0.00644488274787521
0.00345765289762676,-0.0258302125024583,0.012323216113173,-0.00666044973753119
-0.00696695377425359,-0.0597578384907213,0.00416384004794634,-0.00513323400471307
-0.00325234714964105,-0.0646177724808745,0.000252898446834338,-0.00250762418992693
-0.00871103113309343,-0.0614347534216735,3.94342789126687e-05,0.000354189999265833
-0.0235724444315089,-0.0465177681058648,0.00491902699312707,0.00247981834169757
-0.0213070786625284,-0.017607790053535,0.0129198696566197,0.00238658617597186
-0.00573835993397968,0.00650346506958808,0.0197015748864663,-0.000616773276566675
-0.00285813246985783,0.0114172515480931,0.0206426414312995,-0.00485509216461082
-0.0130678209602029,0.00245163752192015,0.0167216475070227,-0.00779869848673728
-0.0162001082805644,-0.0122631829197021,0.0114051692764945,-0.00814534102619976
-0.00432718554823869,-0.0287503254986877,0.00700484522112403,-0.00599988592788932
0.0101445340058674,-0.0369072178027541,0.00990443090804935,-0.00279431890125239
0.0130811085999268,-0.0289549229136116,0.0214199416191611,-0.000418988626233881
0.00673890892504463,-0.0188087459269914,0.0290182803012966,0.000690796503011438
0.000245322258281709,-0.026101788062825,0.0230438428859581,0.00145049168098881
-0.0073367251155901,-0.0410738647253414,0.00962524034463147,0.00235515092200849
-0.01493256245542,-0.0479768811337792,-0.00108051448443198,0.00368655635593366
-0.0119248322340793,-0.0470457102444878,-0.00116493288232549,0.00696026175214683
-0.00111665727704582,-0.0312115637888238,0.00999128704161755,0.0129762753115895
0.00289828908527118,0.00614585593819277,0.0227412194901686,0.0185018705137117
0.00119293933424313,0.0381015255230747,0.0271338381040772,0.0181478038076885
-0.000179679509055617,0.0325748447829565,0.0194463863229816,0.00974437366604312
-0.00138679654415668,0.00718979903017407,0.00645122744499634,-0.00296787049902642
6.81599534379995e-05,-0.00376273249125147,-0.00123878952067132,-0.0130230751844763
-0.00128860619324618,-0.00243446690478387,-0.000340331406534842,-0.0169161115911534
-0.00433379903222585,-0.0037928726845059,0.00239572789971943,-0.0172687481809503
0.0039805701465971,0.000412473813830772,0.00178681341464384,-0.0168121423508345
0.00969700836674564,0.0143894757127826,-0.000268907345205694,-0.014433775232197
-0.00984000324026076,0.0283330350510852,-0.00225983823771105,-0.00944658128116045
-0.032695917604207,0.0326597398063433,-0.00473052288491422,-0.00406856390490921
-0.0228896846724638,0.0159583015507315,-0.0106686267666844,7.01916116683052e-05
0.00210671685312911,-0.00963248323541877,-0.0184935909108528,0.00334111811307151
0.0047323068849281,-0.0208041296907771,-0.0216303252283581,0.00636862103133967
-0.0148806183367889,-0.0201084700818248,-0.0187581621944289,0.00964509397403918
-0.0346026887474178,-0.0211199525354228,-0.014450434155151,0.0130560947923399
-0.0405673879772614,-0.0252903031396422,-0.0096781793042543,0.0152190338940466
-0.0373366650716164,-0.0310727305390879,-0.00303460336668584,0.0132040094392453
-0.028055765983459,-0.0383998873027671,0.000449120358255697,0.00488471532325725
0.00216581175974833,-0.042710743549657,-0.00213804301787452,-0.00480974446649099
0.0475501453000812,-0.0368993415843268,-0.00598746876772055,-0.00634448792306578
0.0756007126145398,-0.00664486357408728,-0.00188837611089996,0.00131680724229187
0.0806759842733824,0.0439541566419461,0.0118435579054023,0.00816695320215884
0.0747721673461478,0.068554980689961,0.02031350271009,0.00581817726384217
0.0602028324572465,0.0459138640330568,0.0142837791968993,-0.00354668400388722
0.0438384118494747,0.0120607153978559,0.00494619048700062,-0.0113699177202459
0.0335947821248926,-0.00982493904400112,0.00134221551020159,-0.0114484465758687
0.0284333514445485,-0.0229698709977562,0.00168050049821359,-0.00405543723390697
0.0112129956622182,-0.0303710725127413,0.00432184780787298,0.00449306534091474
-0.0291575493592265,-0.0224527269658964,0.00611720272093602,0.00716339540479462
-0.0724169083038419,0.00574764804701539,0.00674848067866608,0.00309094034297273
-0.10833468984768,0.0377716523015274,0.0110044476848962,-0.00344942994035658
-0.128784066600962,0.0585871138020792,0.0143608975700049,-0.00794435909155845
-0.112490677062757,0.0597078151449554,0.0125821714901046,-0.00807518282454573
-0.0619309841665528,0.0528280703801154,0.0158097344923794,-0.00545137264628838
-0.00143545696567937,0.0522290608398675,0.0254426217176513,-0.00339273975384089
0.0418768448688361,0.0465200691264111,0.034719409758557,-0.00291252128478769
0.0602448803024141,0.0287603453725431,0.0374154232396653,-0.00311590120437222
0.0652445751601156,0.00654817050119498,0.0245510856246791,-0.00314118589396213
0.0735112951326602,-0.0228948801343264,0.00784361502445288,-0.0032201002970442
0.0842972501455467,-0.0583024910002561,0.00703589565415851,-0.00430121304780872
0.0717526219319731,-0.0746403708100383,0.0134373660417601,-0.00569928348096295
0.0351594320186353,-0.0601507222271318,0.0127939948187794,-0.00490929332922229
0.00645629870552127,-0.0378721564016329,0.0111260248046671,-0.00075183621884756
-0.00152712392501612,-0.0264802686266227,0.0121129071566707,0.00447611264062094
-9.86909504844258e-05,-0.0141544149175426,0.0104985481574813,0.00754973783733041
0.00367100431372852,0.0141030718673227,0.00712691794516153,0.00808167382882641
0.0002370754487395,0.0613360729703287,0.00896626766195934,0.00763078426239145
-0.0303449146159163,0.100530726038657,0.0160112895540219,0.00719493209073384
-0.0849270056932608,0.0896174396091479,0.0188271950362904,0.00753237667167972
-0.111849343885472,0.0399770550077598,0.0143360756049251,0.00875203339400628
-0.0726303428074869,0.00355798271825783,0.012684331018085,0.00857738753473149
-0.011113868728445,0.0023774867432716,0.0193178195725735,0.00437743736607993
0.0271550586974046,0.0147584277697271,0.0260347801023389,-0.00326340536813236
0.0580235386112263,0.0211870097720655,0.0281763114336128,-0.0106307899957461
0.0863610275110483,0.0239654193451746,0.0264588228378049,-0.0146380330105402
0.0890438373262947,0.0213450491587809,0.0169597924617389,-0.0145272640486728
0.0631083644798642,0.00336877115135293,-0.00165679001106087,-0.0101852002207085
0.0307395346713208,-0.0228018838991745,-0.0150590976471462,-0.0026966731891031
0.00991078436914652,-0.0378849414336169,-0.0111648269225321,0.00433711286569723
-0.0025730281070351,-0.0353292131638761,-0.00152421482334152,0.00714884761039817
-0.0152274241016819,-0.0253090175314775,-0.000151711101284667,0.00529804738798588
-0.032465430881765,-0.0206111376348706,-0.00811702247621494,0.00184863723248972
-0.0611495471334631,-0.021662257829769,-0.0174168145750383,0.000294207440594827
-0.0847633561179065,-0.0255057500589906,-0.0167141048371053,0.0013985794788427
-0.0635094849049935,-0.0278803512469465,-0.00784519648162579,0.00325406666474791
-0.00630658107088672,-0.019061806957049,-0.00101625310219091,0.00398146333836937
0.0318059217597031,-0.00156092551529779,-7.80678412704086e-05,0.00376657716107449
0.03455689936307,0.0131420399602254,-0.00221295904404564,0.00429583688175512
0.0238463953233523,0.0364607854558904,-0.000435503133381121,0.00610573020373754
0.0155945717278075,0.0716604246835941,0.00694136792394665,0.00774519917779245
0.0146522573976916,0.0723830891785193,0.00938615361196528,0.00774910636415723
0.015707626989208,0.0275457732156057,0.00162421489565936,0.0061299371629811
0.0116697318424706,-0.00629991639930447,-0.00581465306439196,0.00376594699720912
0.00774190153486266,-0.00283128580048018,-0.00754825648326684,0.00166844006459445
0.0106910056328885,0.00685023917252292,-0.00832044027479218,0.0011814573368878
0.0206443239590743,-0.00159365141658093,-0.00907644733559897,0.00246807476885668
0.0314773805660989,-0.0168450758102728,-0.00904422859652861,0.00376867580648372
0.0308556332024449,-0.0243547481075733,-0.00983832071360659,0.0035327768275225
0.0214005700666138,-0.0232051141073908,-0.0107958176677821,0.00120447984287428
0.0155782935099645,-0.0208640522148368,-0.0126333038358357,-0.00276326019518107
0.0150036470887246,-0.022169524843604,-0.016885983076835,-0.00640256794395149
0.0183306506561698,-0.0203391004574964,-0.0195542890465222,-0.007338877502356
0.0232983024400298,-0.0100513698205409,-0.0172466568005038,-0.00437018102197284
0.0242100827461735,0.00372500249736031,-0.00830859340399832,0.0014037006043423
0.0231495190625534,0.0157659116277266,0.00640720703775887,0.00641399643248355
0.0160301438402449,0.0149989961554063,0.0154183001363933,0.0074855383244513
-0.00526840588317985,-0.00537385965217363,0.0122700124355775,0.00482246910097437
-0.0235988595029597,-0.021079011656318,0.00895984200041449,0.00102126962805998
-0.0209616423239476,-0.0130534606292072,0.0132560464253271,-0.00199333359149063
-0.0140718075363775,0.00711350311835652,0.0160290425664928,-0.00402378921858558
-0.0267384783738916,0.0358404277402639,0.0139008775473714,-0.00561329139427641
-0.0416638721533133,0.0707993033616894,0.0126417288978132,-0.00722946668195869
-0.0333147960416818,0.074499235390245,0.00855116509620154,-0.00841062203472918
-0.014593352338896,0.0314088925745883,-0.000887429239303829,-0.00762697259321031
0.00281104199260714,-0.0148371716742991,-0.010996059079061,-0.00448971696512877
0.022935067077611,-0.0415723567500103,-0.022340315846521,-0.000180994680979695
0.0397126584405779,-0.0562190157956549,-0.0292946218335709,0.00472070977237543
0.0490099263510796,-0.0531674994758779,-0.0215194490016901,0.009434214908257
0.0508958670016079,-0.0325022682754909,-0.00425370534421745,0.0119473515464714
0.0385405126517928,-0.00217437461375415,0.00979012127857497,0.0112284652689738
0.0129003737433429,0.0314676935261681,0.0150574410590202,0.00797897080412313
-0.0191285465217192,0.0508926457660372,0.0157915281809166,0.00308924624170812
-0.0445493504166305,0.0446784255941071,0.0171817554554237,-0.00248009938554666
-0.0481734837918847,0.029457287799571,0.0185443693010933,-0.00742268719434377
-0.0367967243033273,0.0232878563822221,0.0224910889004733,-0.0102993530646768
-0.0190290960495418,0.0168209555079374,0.0274052618023259,-0.00977500810838556
0.00842093182205426,-0.0144729517512518,0.0255894754091529,-0.00645584144530566
0.0400044520349618,-0.0633723228774771,0.0209659825768453,-0.00350444334433429
0.0439765226176885,-0.0937578603858,0.0198712779511847,-0.00318076417949161
-0.000588717200290783,-0.0951412099587834,0.0210521592866155,-0.00411923625790993
-0.0469877756627853,-0.0735874279031499,0.0224304327348209,-0.00392825228302431
-0.0536521346947437,-0.037003957495936,0.021497181439943,-0.00264544256223991
-0.0504185998963514,-0.0181913063293544,0.0132113236800008,-0.00191115114898028
-0.0568321608368441,-0.032108866907514,-0.00553142814728208,-0.00208698750672628
-0.049230236599819,-0.0485786730857615,-0.0258643107524118,-0.00180128071595278
-0.0162634691409685,-0.0440859602050014,-0.032692575085086,-0.000325845625272905
0.02010008070076,-0.0158440872684884,-0.0277718215796362,0.0015142755537392
0.0367398762559844,0.028438621305076,-0.0260899114104304,0.00269689107194136
0.0421869393996718,0.0634889837747702,-0.0258307086441567,0.00286803822903054
0.055069668895459,0.068203372890358,-0.0166042836783028,0.0026165368915405
0.0680244602365355,0.0474707582091495,-0.0102307661776399,0.00284440840179395
0.046253744465858,0.0321946715746625,-0.0137278334158159,0.00374427341096158
-0.00825697930635039,0.0301098692542128,-0.0141541509649497,0.00425946617077495
-0.0287977043603681,-0.00143082818732812,-0.0150350137498714,0.00286840511673751
-0.000921045326614515,-0.0608787849316544,-0.0235896811158209,6.9620746056479e-05
0.00732994673978999,-0.089034317164472,-0.0283688324848463,-0.00230199458606589
-0.035428181539624,-0.0608668374333685,-0.0199042233466405,-0.00401094045946013
-0.0831046472827544,-0.00973005857010314,-0.00370504407603069,-0.00577100650049856
-0.0889790921614721,0.00705007991931441,0.00526355643729785,-0.00730993144899639
-0.0690185706476366,-0.0257790245831614,-0.00394072837178481,-0.0073517336736118
-0.0457068008185954,-0.0557111959354131,-0.0204015340150053,-0.00548025644167425
-0.000269978174367747,-0.0398862921040955,-0.022047405098985,-0.00341743771898272
0.0580320782850999,0.00729792160863637,-0.00899997707904647,-0.00273180618598261
0.0778746002768158,0.0484476636786631,-0.00179444994320333,-0.00272996094668513
0.0573976564318166,0.0543194665547492,-0.00853550159602107,-0.00165585602127476
0.037046029112957,0.0347611572706622,-0.0164512041336777,0.00112516617398705
0.0176761810748107,0.0143834356937452,-0.0192874547031091,0.00447045356087398
-0.0105211319010428,-0.00913307907234954,-0.0276488392664987,0.007414756425135
-0.0303194742532245,-0.0341292073341145,-0.0406263501203606,0.0101908364325091
-0.0499011954122445,-0.0494108422338856,-0.0450983900908091,0.0121893398611107
-0.0751366280317071,-0.0608702866893355,-0.0442108258462263,0.0117530082074637
-0.0621300682706057,-0.0752751336091101,-0.0454510719708442,0.00879457749358506
-0.0045058842601304,-0.083173893697134,-0.0446322166370297,0.00450669440265442
0.0377806397365812,-0.0700112504687678,-0.0384205264005196,-0.00083726875839865
0.03781388008449,-0.0446153541860382,-0.0333715099650422,-0.00691500129910862
0.034613411778623,-0.0437394746102595,-0.0363950836546812,-0.0119633124657206
0.0588585737782504,-0.0619660479863554,-0.0381962631154901,-0.0138169156188688
0.0906447734783113,-0.0443017137262806,-0.0286402491672246,-0.0121001401276485
0.0907146189292677,0.0124298420541032,-0.0189146190488791,-0.00852298278216983
0.0518435256674698,0.0602407029248683,-0.0148181526503209,-0.00451817575900175
0.0147358542736604,0.0707865873272625,-0.00459559150920633,-0.000599275421127608
0.01382802313223,0.0641032452244964,0.0132690896880024,0.00216482106149704
0.0315737838867306,0.0859014093392413,0.0286103124090271,0.00229106203941988
0.0379808794947101,0.133133219130181,0.0345748724657783,0.000226068653399804
0.0179860400366149,0.137198257581546,0.0319614533630704,-0.00182426476981334
-0.0436799907753397,0.0665755638398171,0.0233966760078131,-0.00214260726479855
-0.108895461012496,-0.00296344169711601,0.0126507706948003,-0.000187434405178981
-0.101459942013102,-0.0249550925974633,0.0028185681190688,0.00246346743369108
-0.0354689745298056,-0.0400654141567481,-0.00934680033647873,0.00391382160569085
0.01020817226738,-0.0550015260036291,-0.0209639350697331,0.00466172517441774
0.00604026381950813,-0.0429752400631552,-0.0193630523661738,0.00523291456954892
-0.0182157229685381,-0.0152256541417623,-0.00698057855855583,0.00448730794109816
-0.024340724933032,-0.00971939850064175,-0.00307451136128042,0.00211574486642119
-0.00510780932028617,-0.0363909740373718,-0.00656989363408732,-6.44074166093614e-05
0.0189294712084648,-0.0714947671742371,-0.000329632004730823,-0.000897978103691942
0.0261996076019362,-0.085746698386745,0.0114201692639024,-0.00158930212241097
0.0176196559043776,-0.067646809167959,0.0151549905367178,-0.00284287932760354
0.00848921351160454,-0.0232864997625603,0.0146812521427521,-0.00373271569577074
0.013696388778162,0.0397664066551544,0.0176228664874869,-0.00395374024464685
0.0343229977059976,0.0873177886596788,0.0205541442930184,-0.00441886833943357
0.043874349739474,0.0841604636490289,0.0197063685815014,-0.00548607748594438
0.0244651370358615,0.047072269506319,0.0156843218057111,-0.00496195251749549
0.00668338372978746,0.0209913308443668,0.0117889808475499,-0.000351999391481145
0.0128723357777281,0.0338302174889382,0.0142385574622729,0.00565120898771668
0.0177538252377455,0.0650395728870154,0.0231551058232329,0.00741630474475441
0.00863365012389653,0.0752396718757328,0.0269946883013829,0.00419645437243213
0.00164454956224213,0.060804822891105,0.0195729614538907,-0.000511756439052725
-0.000715406751587901,0.045393480975206,0.00965550660608914,-0.0041415047364012
-0.015567807409452,0.039240766265197,0.00775243192200136,-0.00559890648163396
-0.0384582389311016,0.0352955868378419,0.017860362605033,-0.0052396417791783
-0.0426661325689804,0.0265692152886448,0.0312864793677479,-0.00507912511764228
-0.0291105761978473,0.0125087201746609,0.0378527726834179,-0.00543931534188577
-0.0196166236237434,0.00528185373793446,0.0392173728808061,-0.00424578238155447
-0.0129219600722129,0.00778946643456839,0.0356765206549096,-0.00123089202489972
0.00394520326861402,0.00763097237717263,0.025274581515677,0.00195390231473143
0.0221838562181283,0.00545558598932791,0.0123927770505624,0.00410854497496932
0.0226976175671362,0.00755580160424577,0.00153350955141892,0.00505811791048955
-0.00111626580644583,0.0181267551196611,-0.0032302303785287,0.00545843736322129
-0.0330430946103685,0.0356845827929284,-0.000337833115855861,0.00515005712509125
-0.0413536916548169,0.0401942803788153,0.00215206933907719,0.00362159920492219
-0.0212697360282577,0.0261903570403071,-0.00407503260266164,0.00220871932706094
-0.00430685643636914,0.0187910267549446,-0.0141100797878452,0.00290768255884968
-0.00672684615946854,0.0225202256836725,-0.0194214306273746,0.00510890196269465
-0.0114466484995672,0.0132530980948209,-0.0188939797831527,0.00577258387651617
-0.00582157603710773,-0.00714060314997254,-0.0122304627611186,0.00341128699910623
0.00577001146589677,-0.0152765404310163,-0.000877707374436574,-7.38445667742074e-05
0.0159437136237485,-0.00907419063313989,0.00915172456444028,-0.00221520141795006
0.0214585647752155,0.00113112892072233,0.012914724108521,-0.00289834989469851
0.0210301570246308,0.00707257875285954,0.0137088282051532,-0.00317563041344136
0.0132027300935644,0.00345361496884441,0.0172543153980062,-0.0031907589557073
-0.00117126790916949,-0.0025360650553103,0.0212462385247652,-0.00246213697992957
-0.0132933159578968,-0.00237503645008128,0.0228547348232928,-6.06169103781144e-05
-0.0129389378972355,0.000354440438123074,0.0228323341903653,0.00509631350681758
-0.00695317996826111,0.000663019944793352,0.0208245638496246,0.0115318047758056
-0.0174767122252962,-0.00312220099412834,0.0156761238546797,0.0147780045119616
-0.0469031152535856,-0.00746223347638685,0.00920882535981505,0.012684691937792
-0.0590128948235217,-0.00664249503353617,0.00471245113173695,0.00772070469951322
-0.0360845370051682,-0.0029880042670948,0.00270600593043524,0.0025815768071499
-0.00536898632867744,-0.00121817821733577,0.0005048523062763,-0.00188190627407553
0.00730954485907428,-0.00167491233734996,-0.00376922579501234,-0.00484277855247841
0.00197083015810086,-0.00137446439239406,-0.00813030206270901,-0.00547466313794287
-0.00517120452324904,0.00237623255912916,-0.00952368167062965,-0.00427387571934379
-0.00678576465873802,0.00814676779009947,-0.00643667388134473,-0.00275398420149738
-0.00428483341849672,0.011680054975217,-0.00261150508779096,-0.00205792130435966
-0.00163795006590319,0.00900225511983077,-0.00115207676899937,-0.00220851918641956
-0.00626840331704972,-0.00151605671950978,-0.000329947688225224,-0.00217396691334664
-0.018056174416303,-0.0148509404366125,-0.00254082505116979,-0.00067482134528459
-0.0378326677275973,-0.02384697795483,-0.00977062296978585,0.00227830812467199
-0.0505920873168363,-0.0302339342702498,-0.0171879668996564,0.0053000367130698
-0.0360820745452287,-0.0382241581912282,-0.0188825061400558,0.00710359787458973
-0.0156493214481599,-0.0455393008142804,-0.0130977508733874,0.00703072163026433
-0.0179403076275398,-0.047128917983516,-0.00459657270687976,0.00571613687673145
-0.0292530887354666,-0.0426676268135048,0.000587292698089527,0.00534803340514918
-0.0161738463516593,-0.0408773505614694,-0.000325648776269009,0.00681318415808055
0.0182107618545011,-0.0409754434573115,-0.00516094769899769,0.00786146584604832
0.0437976578016105,-0.0329512240804502,-0.00795534160753061,0.00604134956576283
0.0495532172886498,-0.0135778566033032,-0.00728333043077498,0.00179156009334033
0.0369176192235257,0.0106512561265541,-0.00512639219139348,-0.0028678235442044
0.0155599178450131,0.0079759150358232,-0.0043277673843019,-0.00685301306576276
0.00769885345067097,-0.0363403831207014,-0.00916473889406291,-0.00956158540102902
0.0200216232610661,-0.0812315341003329,-0.0148765309579838,-0.0100791675635619
0.0326495443192332,-0.090319451031622,-0.014134297510758,-0.00842719864306141
0.0248493399265386,-0.0678639240623246,-0.00931819727363671,-0.00585128910300865
-0.00516173799839713,-0.0318050496347068,-0.00341052994715752,-0.00342048235924421
-0.0359713967669018,0.00868110382067086,0.00387276748588667,-0.00172721791245301
-0.0375517806173835,0.0474513778911477,0.0110668063904799,-0.00141432133688682
-0.0194117681684642,0.0608410385071733,0.0127206798552708,-0.00281347470379886
-0.0308559200490693,0.0350841443676455,0.00459657290148542,-0.00608719326634797
-0.0729280545345494,0.011262123669588,-0.00914251348554201,-0.0100114438923636
-0.0796628104319575,0.0383639413990801,-0.0145251367428914,-0.0098191929823605
-0.0316886258945876,0.0734837542151139,-0.00626907382565257,-0.00251429078231202
0.0233932656204634,0.0399927064953458,0.000470912431613055,0.00719805093734505
0.0570507690852762,-0.0348104525172093,-0.00243478687093719,0.0124598686427343
0.0558597211208738,-0.0797940828995802,-0.00505134079992592,0.0116861217333958
0.0216461880259936,-0.0728775526603055,0.00192851050196164,0.00720326791594867
-0.00737264880369317,-0.0324776842846583,0.011985975024631,0.00124066904559968
-0.00672249824325498,-0.00174163930357958,0.013515633468277,-0.00407092157381245
-0.00145833622956177,-0.00379562390489338,0.00913412558429423,-0.00644817515453145
-0.0289604609282984,-0.0112120373306658,0.00995944759837297,-0.00577801130379737
-0.0649786490193227,0.00868011719474907,0.0197032861230804,-0.00453185919262469
-0.0539338462032144,0.0359142165315486,0.0287678855577604,-0.00504795758735181
-0.0103597352614875,0.037070099689362,0.0273204608371997,-0.00728184878693442
0.0195828116579347,0.0177465707397262,0.0151773603119998,-0.0090199277253127
0.0308882713220618,-0.0064468712582911,0.00095010673012888,-0.00810843390986273
0.0407023330092345,-0.0176096259889545,-0.00359264510553604,-0.00452582268713171
0.0572127723899476,-0.00350250523402859,0.0018647865651319,-0.000277519018399341
0.0728595555518135,0.0220572966096257,0.0110225481649551,0.00245425814019801
0.0752475667434909,0.0392235270898023,0.018445924824196,0.00294709302326098
0.0559180606504646,0.0359506232028432,0.0148483147090997,0.00225688551876406
0.0156966877956355,0.0191944642043468,0.00263126406355083,0.00215015959535193
-0.0270525085604102,0.0114144936799234,-0.0033157855802001,0.0035722435860347
-0.0502871601633635,0.0275281757517265,0.00423550542897582,0.00551989578149465
-0.0633417742219494,0.061370408635988,0.0163834658197377,0.00577287608634802
-0.0749170751262976,0.0861900541217958,0.0190642104117348,0.00320058337515698
-0.0674750107937956,0.0873109075448368,0.0149553832615173,-0.00109693450021357
-0.0529617446485246,0.0775559805486851,0.0120644998099445,-0.00444528295089624
-0.0378524013577531,0.0621327678294275,0.00757243031390374,-0.00481314085063278
-0.0029750807364066,0.039138125363306,0.00216296837569882,-0.00295444398641606
0.0257101600625539,0.0215079792037922,0.00287546748221989,-0.00127764765348099
0.024220351767531,0.0178460860224139,0.00891059488897565,-0.000553367672907817
0.0170740888992117,0.0149755210035374,0.0108724079272258,0.000442657616937314
0.0163334425061816,-0.00137786877782611,0.0062683577898885,0.00227815003608113
0.00680135456908864,-0.022770327049184,0.00167150515700558,0.00429129997818699
-0.00383599534074164,-0.0330273452802387,0.00181969765485185,0.00552224057580924
0.00702834618790488,-0.0211448950405432,0.00343710072386546,0.00455303323131271
0.0373444925749742,0.00576317681918961,0.0010455017642943,0.00052345535682255
0.0680290147655764,0.0230069852614069,-0.00827370568312171,-0.00438945760003317
0.0800066785780789,0.0195731554005795,-0.0232908829047127,-0.00580916921668471
0.0685605036399751,0.00917199243963151,-0.0304973790399731,-0.00223536287552527
0.0454587425112268,0.0150100143304454,-0.020689918208766,0.0020503318558275
0.0198361391584484,0.0353099442895174,-0.00788581716248637,0.00163328719627672
-0.00975618585015395,0.0457571075283776,-0.00638229832154987,-0.00261537705281252
-0.0387773872775519,0.0394959862137849,-0.0130443606234941,-0.00464343258497923
-0.0483209344159528,0.0297823076559281,-0.018556698279827,-0.00106711863587088
-0.0340611545354131,0.0127650121079135,-0.0183913411377926,0.00558918388744165
-0.0200790508491378,-0.0261616288658687,-0.0167432705695802,0.0107215161418066
-0.0141870672235471,-0.0650379460282572,-0.0174717412369499,0.0123257879596828
0.00123414177501124,-0.0731252836913472,-0.0178417787351139,0.0107387213150553
0.0271054985110763,-0.0549671843993593,-0.016823445705517,0.00618778870686133
0.0440524440946422,-0.0269966351041313,-0.0155651724402094,-0.000494968566776197
0.0448487547106822,-0.00160213524563792,-0.0109568367247494,-0.00640330839306406
0.0412875734427783,0.0099263622819929,-0.006531595222526,-0.00908084119711097
0.0367405041419396,0.0107571196149052,-0.00994126200445736,-0.0090155360672321
0.0252534498531835,0.01452823648493,-0.015435879868663,-0.00770660124643232
0.0152720042136408,0.0211658850410979,-0.0164238633799016,-0.00565203602885935
0.0172170740804432,0.0162112429973799,-0.0143358101940877,-0.00316312117872294
0.0245847715330211,-0.00302740642987259,-0.00888019398119572,-0.00127939039679531
0.0337383120203868,-0.0222999311964643,-0.00370769402383329,-0.000712991022769354
0.0462354130709397,-0.0353783295825727,-0.00505805819463009,-0.000848729094545195
0.0565431153789714,-0.0453730118108577,-0.00744910873345121,-0.000782746808881936
0.060284155478446,-0.0463491280216361,-0.00411022786956398,-0.000456239901514246
0.051413560203322,-0.0412450877771407,-0.00401723482965989,3.34784459476733e-05
0.0201143089020412,-0.0433474014934018,-0.0127390592192179,0.00138311517690532
-0.0231310850848856,-0.0440210802707575,-0.0174915407006968,0.00387462363540258
-0.0370369197828792,-0.0279633739718394,-0.0125450583409274,0.0058936007263876
-0.0146118961002676,-0.00578342671734201,-0.00621610897910215,0.00574302425849208
-0.00114911781789389,-0.000716029705137705,-0.00246973518779283,0.00413704978061947
-0.0111462795506284,-0.0123206382890037,-0.00112444566700109,0.00222805785198161
-0.0195353168786612,-0.0217145249655614,-0.00457243809831328,-0.00078369749295341
-0.0267748712017843,-0.0266990729968184,-0.0103977481497946,-0.0046842312304046
-0.0516174567514917,-0.0345395601589665,-0.00951171151302126,-0.00695462674917403
-0.0700847359293443,-0.040060177896711,-0.00322084452013265,-0.00688921524576679
-0.0458785505540065,-0.0371612250432207,-0.00105421373805778,-0.00669210660793017
0.00196039220717077,-0.023688823154239,-0.000987403322498873,-0.00747854888620568
0.0273925518238516,-0.00455053888969444,0.00152015639527031,-0.00773503647908184
0.0179818193921805,-0.00503405045851372,0.000761635411387542,-0.00607889971834033
0.00393150690207335,-0.0412615580257183,-0.00891996003841946,-0.00136689429550648
0.020166416529216,-0.0863730075591526,-0.0227470127296609,0.00807593377362219
0.0538740829866236,-0.101164059001951,-0.0287318398964392,0.01997317521446
0.0575646751765717,-0.0800629272966427,-0.0209224363600708,0.0269190946589247
0.0339156338571587,-0.0484697595631297,-0.00699479438362415,0.0237334140803435
0.023033265760861,-0.0314587616923382,0.0025834769590725,0.0125674374207198
0.0245558445537331,-0.0329937970531791,0.00997107934289538,-0.000272471704656777
0.0301650404872032,-0.0366019976267846,0.0201711246929306,-0.0107414468708512
0.041401693248529,-0.0268033448413237,0.0269231484515492,-0.0177616215645909
0.0219808527068003,0.00586033469034285,0.0293324380519846,-0.0195395074865529
-0.0780986983191726,0.066222633823548,0.0356925067565996,-0.0157864149383538
-0.193730325650859,0.131202791149794,0.041134629969424,-0.0102125904794006
-0.185954353999624,0.144527685122637,0.0364555125970945,-0.0062025055460613
-0.0775585125202087,0.083137727474404,0.0314249464890611,-0.00416729672431376
-0.0146079332465389,0.00609292172530967,0.0335930311737418,-0.00347951966021407
-0.0354402781338429,-0.0308557459622954,0.032384412177032,-0.00311094889803756
-0.0658633011115763,-0.0372714819024161,0.0243019170482096,-0.000964264939682149
-0.0648088867108094,-0.0388284022122183,0.0158575804440268,0.00438728247993063
-0.0351684108109822,-0.0432440935101541,0.00636692872531388,0.0110640338383977
0.00773482915905656,-0.0428788132249923,-0.00542695132470304,0.0153598634363664
0.0291971639408874,-0.0325527129571569,-0.010727342904995,0.0155568788145904
0.0242710760644308,-0.0203298965543884,-0.00755023771607862,0.0123364975370427
0.0191362133441534,-0.0115217789580253,-0.00606413873836273,0.00744018592406158
0.0167561885101143,-0.00383260444877829,-0.00885697535778145,0.00310566398639637
0.00565284867874323,-0.000567666732091914,-0.0107363199111401,0.000658098804791906
-0.00805277272090286,-0.00339901314471366,-0.00945172586173484,-0.000343442245488543
-0.0188553180050987,-0.00624496153337171,-0.00529127121311417,-0.00109234521592118
-0.0278581368113444,-0.00781375253888048,-0.003541037747584,-0.00249491322498132
-0.0309464703347929,-0.0129776168233172,-0.0105132779863851,-0.00427260610239288
-0.0281973639765216,-0.0207160320563349,-0.0181202957705058,-0.00515109151728227
-0.024195802162666,-0.0177513706701962,-0.0157474010170368,-0.00441810370800588
-0.0239174004671898,0.00350690810647714,-0.00666192498366351,-0.00281413627812388
-0.0274769094465433,0.0327789618586982,0.00478361714271591,-0.00204836868162649
-0.0270045509581774,0.0629874105775217,0.0169228929075188,-0.00290696547328579
-0.0182145861724417,0.0886680268400028,0.0246159740512419,-0.00438073639859109
-0.011388282536344,0.0867157339293646,0.024711144304341,-0.00491827862497583
-0.015215557535086,0.0573568746945556,0.0187389346338213,-0.00367862064031847
-0.0219450788844731,0.0399564659698987,0.0102088266278221,-0.000986882315701245
-0.0228928861809846,0.0407990216679329,0.003733132422052,0.0020631069307052
-0.0204719726670162,0.0238355090395608,0.00113431413780519,0.00441465579091846
-0.0199769615415993,-0.0105052916747887,0.000433552222712267,0.00574918051020646
-0.0156602946831123,-0.0335159707052429,-0.00247064893357781,0.00616606513558185
-0.00176308664316234,-0.0506805083733781,-0.00991408413704634,0.00549763337729578
0.0163338525046346,-0.071061795365669,-0.0158106781570506,0.00362930832533079
0.0322830043678313,-0.0748095009916263,-0.0147180301674934,0.000919728556106717
0.0291467520716594,-0.0541926206324199,-0.0124405085898891,-0.0015202141166203
0.0080951444174997,-0.0285058964400828,-0.0156272010782804,-0.00243997681877411
0.00549643072600555,0.00358974190863241,-0.0194555515149038,-0.00168329501039567
0.0176415980955755,0.0376242126394444,-0.0183807286779563,-0.000330546911962837
0.0182780466933678,0.0301842105503149,-0.0167967923940449,0.000375109496703192
0.0202898104001957,-0.0189376443513324,-0.0217690442366635,9.85694938939547e-05
0.0267752201463765,-0.0573005496595124,-0.0320054492052537,-0.000885706195260018
0.0206730503896531,-0.0575715756129217,-0.0376730380081014,-0.00213976661834606
0.011460505735406,-0.0286581127214354,-0.0361884660367833,-0.00306678560754969
0.0107457324346336,0.00318048057946017,-0.0328446824886632,-0.00288026796183021
0.0110090843803644,0.00723548814819576,-0.0307089981341584,-0.000803424876137264
0.0154919751443999,-0.00747407178845819,-0.0262326941926171,0.00269556311902136
0.0260765683306348,0.00275407758116622,-0.010617406902454,0.00524235553550578
0.0290204393835501,0.050164475185481,0.0117846833059176,0.0045660938946256
0.0295056025153163,0.086882946199929,0.0228529564422983,0.00150160943476286
0.0400029614112283,0.0713111609598487,0.0175780157900467,-0.000658285634114654
0.0517627732335957,0.0392560402412629,0.00834966823050844,-0.000622788485513965
0.0529146423354227,0.0327190217089928,0.00699144890693752,-6.44055349151666e-05
0.0407305371634488,0.0290719457627718,0.0153471526618856,-0.000626052855877746
0.0251334298340464,0.00447523236159249,0.0232060626950735,-0.00238843826943228
0.0113473592970206,-0.0178574974188498,0.0235122066450577,-0.00341041398611016
-0.00694266331105358,-0.0146092156465268,0.0233998942295425,-0.00188822164317266
-0.0279912315564707,0.0100112505881603,0.0271066908094796,0.000628214884187985
-0.0385872945965274,0.0493628140459055,0.0333925209695091,0.000928657521712445
-0.024817008945693,0.0879510826171605,0.0411074924931016,-0.00215168251868451
-0.00191280528938988,0.0947749828120762,0.0379859007376518,-0.006791734340196
0.00224157028996332,0.058008749189319,0.0139075480525743,-0.00903027135537414
-0.00259105937417009,0.000876624432274598,-0.01689803010938,-0.00572573196769661
0.0074307974600436,-0.0313469305958589,-0.0288672240356973,0.00178738315392378
0.0287710690214363,-0.0167411308364319,-0.0181150190124348,0.00775218468348863
0.0433616346387516,0.0117109772386939,-0.00729028577608655,0.0074067115608311
0.0461200829254786,0.0204460337268298,-0.00634324657537692,0.00251827353932165
0.0450713454955142,0.0142332549639598,-0.00722988892057617,-0.00182447957222721
0.043284492205002,0.0115130859107179,-0.00598327634593364,-0.00318461723764711
0.0372247891222614,0.0233907948842115,-0.00118498115414217,-0.00204852104811315
0.0217026019775686,0.0426480912165417,0.00678176442101926,8.29166131355941e-05
-0.00165963159514482,0.0501017878723465,0.0139269040060626,0.00181233693225341
-0.0107524810615594,0.0424909290060758,0.0179647113678429,0.00142758813136124
0.00415272703538857,0.032303052004274,0.0201215923350553,-0.00238686643943405
0.0188546553171082,0.0193700163631234,0.0172658732054001,-0.00735346693684766
0.0193226424302945,0.00988901849038554,0.00865712990822606,-0.00905723054407531
0.0228755480969035,0.0212514072491092,0.00227852464515935,-0.00670441920482261
0.0238299048681011,0.0417054763875021,-0.00168097804298395,-0.0028644907362097
-0.0220375660614468,0.0520046688813181,-0.008157492644768,0.000731136026955091
-0.089147509250427,0.0523186615029263,-0.0123794834432009,0.00336571147399382
-0.105862840542946,0.0431825973277462,-0.00827157763413648,0.00495868040788522
-0.0868609657182725,0.0241179543048244,0.00188234586776675,0.00697147391847207
-0.0776019238670636,0.00164012970819287,0.0102535626638104,0.0104633290502616
-0.068346031464871,-0.022622789141561,0.0117697029752345,0.0138511549053994
-0.0304697027011076,-0.0517617996200424,0.0117835683620829,0.0139665617327136
0.0224511841827504,-0.0745076001388755,0.0207719542634985,0.00868238847681344
0.0403713642568788,-0.0757130560457595,0.0318292369065048,-0.0013235166634209
0.0226751143594369,-0.0554597219426197,0.0295765615165183,-0.0117330790779585
0.0256709926639437,-0.0316529310848997,0.0162774677775177,-0.0166902455259206
0.0483600753451106,-0.0287412069009872,0.00195666587879273,-0.0142905984897411
0.0415772060415049,-0.0284818686934604,-0.00625018929801397,-0.00812208712609598
0.00890948038168553,0.0106417062725147,-0.00491186605397453,-0.00297572665101267
-0.0164397940259468,0.0428208583129845,-0.00446111714088154,-0.000968107694252486
-0.0247236280659476,0.0100884678165577,-0.0132100896405132,-0.000996306692312136
-0.0298974719238848,-0.0387828465907315,-0.0198524353307965,-0.000396606364803162
-0.037163870000322,-0.059616038022803,-0.0230097543677719,0.00232487692143744
-0.0228649849179373,-0.0640583500039212,-0.0288858471640689,0.0059085189408809
0.0151924359001913,-0.0534525842185305,-0.0288505127401283,0.00812662134541611
0.0418951383710929,-0.0217392924522274,-0.0172614053328911,0.00863075056391217
0.0461090792045353,0.019439969730642,-0.0015543319055583,0.00849412602582338
0.0435009547635545,0.0564992640500871,0.0098890822648597,0.00762480135837681
0.0337417099378683,0.0733038614167171,0.0163036032094015,0.00514260397760694
0.0104623848126206,0.0435048131928583,0.0189540489865487,0.00154820020613878
-0.0250599457623043,-0.0112535613259799,0.0196753239530043,-0.00154284480913011
-0.0633561817811726,-0.039087192232114,0.0235543312389364,-0.00316979933284229
-0.0723129244301363,-0.0379653686909696,0.028816181452392,-0.00324192374649084
-0.0379054664891057,-0.0326755574178794,0.0288770553063053,-0.00171003810360314
-0.00141164013693889,-0.0293103649439671,0.024133120003955,0.00109131050643418
0.00819455704086753,-0.0241164616096186,0.0207213886365453,0.00365867091103006
0.00747816538116759,-0.0174729818023998,0.020779970394112,0.00390715510854816
0.0107129764983619,-0.0115504914647754,0.0213125234506257,0.00130042649049958
0.0150664298732307,-0.00600012348511232,0.0226163879609308,-0.00364119345920208
0.0167223736584912,0.00299060503662961,0.0247711732139377,-0.0106934026548565
0.0135694154134309,0.0128319450712613,0.0240825185648716,-0.0157496864141534
0.00837644864109048,0.0165982171713254,0.0191373002546527,-0.0116810306204077
0.0086085153044927,0.0153513188147975,0.0132510364628509,0.000535685173024329
0.0152915844219716,0.0110654443266843,0.0106093771149539,0.0107576980111927
0.0251265014894748,0.00651940673013399,0.0130883828306318,0.0122295858885349
0.0320192322185846,0.0058907447898604,0.0179697676284533,0.00669486590279634
0.0348433951700556,0.00787005737493114,0.0192362634484051,-0.000640021454426773
0.0390236129452367,0.0105506146222307,0.0168696579331849,-0.00546603101840899
0.0382030868486157,0.0132554086940587,0.0138811561384799,-0.00575140770266895
0.0205299512348771,0.015168204245014,0.0111019594723918,-0.00178454877369342
-0.00789417424734594,0.0170328315994844,0.00836815166897164,0.00366244440688963
-0.0230023611266292,0.0182264824863619,0.00376954529171275,0.00657069635501035
-0.0134270851989971,0.0159602194932689,-0.00177514742053952,0.00526606403626554
0.00256264112681406,0.0112583940531786,-0.00696278408070469,0.00177494468096125
0.00595981119982671,0.00611773979433174,-0.0118909820483807,-0.00110144106338055
-0.00248663756049145,0.0013874399135079,-0.0165846094305935,-0.00252199562457249
-0.010641946660428,-0.000127585019800366,-0.0186600444809889,-0.00305362328965786
-0.00835098313087487,0.000112750315008115,-0.0152445844322935,-0.00300576608736114
0.00644546364704779,-0.00184712076278202,-0.0121409493977469,-0.00250838498010814
0.023817378647587,-0.0123376804720206,-0.0167837990429712,-0.00170194401438227
0.0260373977916333,-0.0328043187104365,-0.0268080971738506,-0.000234938750843605
0.014963444431215,-0.0453369058448583,-0.0332992030792674,0.00186445549559734
0.00733198933817128,-0.0414325063058762,-0.0316809509679259,0.00342990132885596
0.00530847400712298,-0.030359014241637,-0.0240826319393641,0.00346726875701715
0.00232392583036539,-0.0179357648993113,-0.015381167099202,0.00200519017511318
-0.000681258879930938,-0.0167556862328763,-0.0130115217133992,-0.000516048417597443
0.00111113274350402,-0.033583573330712,-0.019391967192625,-0.00297702825003339
0.0041170850352746,-0.055643202454921,-0.0284531918884507,-0.0035390546152846
-0.0117596254404444,-0.0606266602558132,-0.0327237674815143,-0.00146277831899984
-0.0508444409747233,-0.0350152326309476,-0.0300625433922439,0.00157526324586876
-0.0683565406982703,-0.00112407019541096,-0.0218870348334051,0.00275619073890627
-0.038029054896464,0.0139968957841555,-0.0104710372286462,0.000539604996001443
-0.000461437500044425,0.00643855553060172,-0.00664192500662841,-0.00340273081132392
0.0172947813943502,-0.0193640917985449,-0.014120205841172,-0.00543757400685368
0.0367748288836242,-0.0436923614010135,-0.0230493269183595,-0.00378707669819229
0.0625849196461324,-0.0417839524045399,-0.0272656662609199,0.000425447739236947
0.0663370072045786,-0.00892955645480176,-0.026338924111352,0.00409978327746473
0.0439486440112859,0.0249406061017795,-0.0320524076373509,0.00494302363314833
0.0209639018095304,0.0117229334046403,-0.0500131243854519,0.00405224261804241
0.0188320741765736,-0.0461717853640909,-0.0593215895413938,0.00320594858420539
0.0330244041375091,-0.0956835798612068,-0.0533292940005891,0.0021461878497129
0.0435270703099835,-0.112507470243679,-0.0538180539340751,0.000427245173595189
0.0482190659380707,-0.107949120164238,-0.0605050786771233,-0.000879017193557559
0.0297716137245657,-0.0946500004816677,-0.0543863398348691,-0.00084379817320201
-0.0166305998676995,-0.0773970639253084,-0.0414925993567921,-1.12064267577492e-05
-0.0361387276569335,-0.0535606568077545,-0.0373026767093006,0.000499918595088749
0.00244181635766025,-0.0281111547425081,-0.0372692597384116,6.46372209878955e-05
0.037606131574303,0.00277357131316401,-0.0307041654762263,-0.000411240866114936
0.00356926903007074,0.0739541685180697,-0.0136458196710861,0.000758777668652616
-0.0630434210300994,0.172948950870277,0.0112862492125383,0.00227604973917723
-0.093939736344668,0.216164079868136,0.0340246039419446,2.87212017835534e-05
-0.0762682555326523,0.170319933461692,0.0429131913133934,-0.00730716962392625
-0.033808858729584,0.0742410646472416,0.0291715772070658,-0.0154829374602576
0.00613257621867654,-0.0138696579372017,0.00469898740871858,-0.0181352760172778
0.0299957142607672,-0.0494242047106873,-0.0086140983439604,-0.0136881775395459
0.0357142992509113,-0.0438914215850898,-0.00997485975139176,-0.00649569154145813
0.0263855841429198,-0.0303413890030175,-0.00651651125009644,-0.000615482893610058
0.00976701597586242,-0.0194216857962118,-0.0010050674907993,0.00287127099752927
-0.0077871158096295,-0.0120322494207205,0.00662791407220922,0.0039826943960416
-0.0205507740077051,-0.00766680849654372,0.0149038572274322,0.00351060620241036
-0.00883379036267137,-0.00350616247861937,0.0164513958754534,0.00303953376525828
0.0286072553330446,0.00372846809786908,0.0144990793299984,0.00302786841311369
0.0444447721126206,0.0189815376378639,0.0191135493474946,0.00271818823336519
0.0201760388363484,0.0390970006789396,0.0275686582953811,0.00162758917985098
-0.0117202864801333,0.0502784964022052,0.0302560529362374,-0.000697537505011219
-0.0306864582648355,0.0489710195767264,0.023047010436351,-0.00327060849963861
-0.036065699123643,0.0444393933439673,0.0131104438031798,-0.00329955063217815
-0.0350550286900523,0.0441558799436493,0.0111588036640044,7.08817332499306e-05
-0.0323730444788105,0.0431742423322141,0.0177180916989988,0.00442193089553848
-0.0269725532213735,0.0368527162594199,0.0271422792816825,0.00684281454839834
-0.0193605660965082,0.0315347178086955,0.034851973674863,0.00627185109907742
-0.0127825037089317,0.0324491568277395,0.040717180138567,0.00305138848740472
-0.0117495575095498,0.0400834565870997,0.0470169643893124,-0.0018644199311708
-0.0168257541446516,0.0506957815986166,0.0497222981958202,-0.00716207654042054
-0.0248128136516408,0.0556425947146759,0.0457464913748528,-0.0110598485422045
-0.0287775036793479,0.0512738192893583,0.0425700243961796,-0.0116105437510484
-0.0296721704314999,0.0430934849561911,0.041552811649956,-0.00872398754004698
-0.0338208480672503,0.0356098568314134,0.0344710536367144,-0.00430374474332145
-0.0342286992272242,0.0289127244731181,0.0234888487780301,7.8416100655323e-05
-0.0273389786893976,0.0239876309690309,0.0175731039446945,0.00403504170407584
-0.0210031531795693,0.0226863365232907,0.0200821040976005,0.00733854997783498
-0.0171214220328574,0.025732369157277,0.0273930961618745,0.0094945729264444
-0.0124605717124468,0.030927174223598,0.0334916992418322,0.0101729345571367
-0.00494353589388836,0.0312579845573599,0.0340667438372366,0.00940958904046582
0.00799073463946109,0.0290786640123522,0.0292576559749954,0.00747426312863682
0.0200006245455914,0.0272539430731224,0.0235873203274966,0.00470418791620805
0.0262646144914312,0.0129103362048162,0.0149435282387356,0.00190911405644063
0.033442431486287,-0.0109235379072422,0.00432176262668143,0.000719978000605835
0.0402436873187817,-0.0186473428547724,0.00739562796516953,0.00157559151778868
0.0388698273076591,-0.00552326846061794,0.0234605381392602,0.00204562182191831
0.0265544677547311,0.00468261360949234,0.0285532406776708,0.000503209606358775
0.00952543953416876,-0.00551315099760151,0.0186076516411083,-0.000813864784741724
-0.00572578303189751,-0.0274788461036144,0.0108451122757078,-0.000109477611465482
-0.0196541283633217,-0.0392572440810507,0.00838592291594288,0.00128063799951308
-0.026950596865246,-0.0345186038178194,0.00684194972728956,0.00258132689313573
-0.0292997190937147,-0.0288562544793358,0.00414510685168472,0.00437362455983258
-0.0200377782063487,-0.0297219484172313,-0.00580651505279789,0.00668028122649146
0.0133181237329711,-0.0280187926406108,-0.0173098485836246,0.00874364543720418
0.0392300140162729,-0.026440964601796,-0.0215885221793132,0.00944663982369772
0.0335535135005026,-0.036814628397256,-0.0267234752317707,0.00849222149650624
0.0230464656040207,-0.0468913672783178,-0.0328681802125321,0.00629646091659212
0.0290632922941318,-0.0431662375867469,-0.0310403777929186,0.00301667767246292
0.0339126890887057,-0.0341623197230111,-0.0240638162234944,-0.000597107018205041
0.0201351957336561,0.000165826575939179,-0.0149458834304601,-0.00307737750573058
0.00353595429813709,0.0555550639704048,-0.00799989677937263,-0.00397569700784593
-0.00126576406012138,0.0602821541632907,-0.00887775469848209,-0.00422312556326658
-0.00610189020544785,0.00616417375983503,-0.0108671715865529,-0.00471779348070575
-0.0178500205297018,-0.0433498335907545,-0.0136370101480333,-0.00533310580867854
-0.0204445796596592,-0.0585733052761884,-0.0263961645764833,-0.00487837300009356
-0.00381290762643809,-0.0472756738498776,-0.0405879193206286,-0.00251090916048738
0.0166868186724372,-0.0239616609121625,-0.0403311978150031,0.000730829115059213
0.0230201654102489,-0.000597463254294321,-0.0292177419030748,0.00270248750636636
0.015188551594587,0.0157288123514422,-0.0213558851459558,0.00250080132389752
0.00341235912519389,0.0189979524093297,-0.019954149215611,0.00149041062539968
-0.00265597956080666,0.0117203418532203,-0.0181267188254645,0.00115819622433263
-0.00157113599385375,0.00318131964522901,-0.0107552518442418,0.00115454181335926
0.000768415887626788,-0.0108290669520236,-0.00454373951068033,0.000391254601707854
0.00400849809922623,-0.0378032612635584,-0.0140630807768485,-0.00045384642325636
0.0118650850723313,-0.0677434198679964,-0.0341611196320472,0.000551243287059564
0.0188806311388865,-0.0826292974109366,-0.043521643187738,0.00277779720623634
0.0139350961484227,-0.0765748880459929,-0.0397691505445941,0.00309071766107329
0.00195322564691125,-0.0557052096421427,-0.0348121754013496,0.000329772243148206
-0.000183073998912164,-0.0255776742549288,-0.031471082945337,-0.00331599800008748
0.0037368320148919,0.00953038545378267,-0.026202110979183,-0.00570023498849424
-2.91936631643631e-05,0.0292404744147804,-0.0210426965793031,-0.00689708635686832
-0.00824851193591835,0.0249703371896038,-0.0201771501469697,-0.00720023400449504
-0.0160919779036653,0.030589489615301,-0.0188560644846096,-0.00621679618160935
-0.0280629230831671,0.0587767401987211,-0.0121992511772569,-0.00465068446409032
-0.0357769597771882,0.0739047252887477,-0.00673527596700761,-0.00352739003579561
-0.0244242541219062,0.0509419845051737,-0.00986869771916215,-0.00270245432529752
-0.00401970692810295,0.0081396697315244,-0.0152108483285559,-0.00156571995318064
0.00664246603574885,-0.0265777896888491,-0.0117718402684865,-0.000513322014160688
0.00880482658789563,-0.0498667141757045,-0.00288756078297896,-0.00102125546637258
0.0137978915620222,-0.0697229018808119,0.00324984718563203,-0.00342375208526537
0.0219799019421239,-0.0870818551451812,0.00622389052811971,-0.0060805125614644
0.0260083829842389,-0.0882852568054596,0.00917489650097541,-0.00696186071744415
0.0238058999413913,-0.0635859212516484,0.0145375920272666,-0.00504024989709008
0.0157932746564594,-0.0327007846610173,0.0211313279660423,-0.000726270485495338
-0.00115542011950107,-0.0197063365234259,0.0242436306202892,0.00394913302925625
-0.017495126554397,-0.0130760241570434,0.0200181670828573,0.00653585146862799
-0.0160260860440287,0.00052497280617507,0.00761035797114456,0.00595173510568553
-0.00988074863917554,0.00926241944411857,-0.0018994373256867,0.0030777740748794
-0.0188544548106772,0.0236154350317781,0.00734252227854082,-3.4726326735561e-05
-0.0300779186025552,0.0536443429961187,0.0219042276392163,-0.00247719358440483
-0.0286875321860838,0.0828596442428259,0.0217276027929643,-0.00413894462909748
-0.016454414834122,0.0998550283910589,0.0171400785149133,-0.00455697823277358
0.000895705114013733,0.0793512780191405,0.0138699617694778,-0.00447482675556591
0.0148915161095841,0.0161098594151891,0.00524563127596731,-0.00499369234794653
0.0204798107873095,-0.0338136771175651,-0.00201314377324206,-0.00594043622292989
0.0137354128695499,-0.0274934029175827,4.8903829155636e-05,-0.00692687371374648
-0.0077642196556557,0.00743410797399304,0.00445432463754985,-0.00749190382469157
-0.0264852075656072,0.0143460173137994,-0.00249315108807245,-0.00582059890495915
-0.0225727061940152,-0.0183480203890951,-0.0168429104507081,-0.00017856970003929
-0.00337405914179497,-0.05411427417754,-0.0209970522082474,0.00736007820995025
0.0149565159621116,-0.0704487744725085,-0.0138400133299498,0.0120905706871918
0.0252082557780766,-0.0736022725056168,-0.00708055851953298,0.0125205276756008
0.0197903892373778,-0.0661505948644213,-0.00470477485967979,0.0112193558324114
-0.00257822836013758,-0.0326599886907169,0.00397025401294501,0.0101733409544196
-0.0246410941571948,0.0337860234590512,0.026739639859611,0.00825590349448618
-0.0313504143508119,0.0873150290015029,0.0447151550571879,0.0033200189196244
-0.0300957113588699,0.0806895224297119,0.0390468819042688,-0.00374358769736589
-0.0291006197943466,0.0400584692670137,0.0183748003052736,-0.00921441471537908
-0.0245343301990968,0.0112656956828785,-0.000582081475912911,-0.0109664813339156
-0.0130973043411602,-0.00103415000435297,-0.0149638164177758,-0.00981417854575367
0.00491142521214124,-0.00760795848924863,-0.0270268828779202,-0.00719054712384801
0.0190111789789684,-0.00513693892022968,-0.0287821084573692,-0.00377228144034094
0.0245640312585305,0.0101186538580764,-0.0161846140600385,-0.000236920386563561
0.0306688936940121,0.0192190193813395,-0.00168425573444374,0.00228032084704212
0.0313881212979425,-0.00108482284166496,0.00159730861704337,0.00311235003672641
0.00924220028771593,-0.043339819900403,-0.00674114803381425,0.00304442983309137
-0.0277742774272225,-0.0767910492870951,-0.0161192816239652,0.00334986272454395
-0.039163029772223,-0.0814725952162016,-0.0177976420430381,0.00396482250850175
-0.0176628323234769,-0.0650692142086952,-0.0145810023949971,0.00407807993924434
-0.00377929470475036,-0.0354676393201155,-0.0116046266582898,0.00361986135257756
-0.0137353680084336,0.000355028163700519,-0.00544245498937061,0.00307510372482473
-0.0339425835125166,0.0184024002689116,0.00708456818127354,0.00274557810307792
-0.0453359690991057,0.0206794402851078,0.0165813567355961,0.00246171755689502
-0.0282636632422062,0.0240079968034338,0.0185457180088173,0.00209891733524242
0.00277961913644438,0.027753340761093,0.0184548314767122,0.00203451047448962
0.0103865689940799,0.0599997882779539,0.0213077989335974,0.00241531545225813
-0.00307687563791514,0.114693889712308,0.0269862773127906,0.00213260870010959
-0.0065449229004432,0.116796607867829,0.0248198371649241,-3.78633254493263e-05
0.0067116254851353,0.0622073144094458,0.0145917177068576,-0.00285776584465182
0.0204208447421141,0.00773767164158137,0.00726709730653917,-0.00385416175528362
0.0267794485028399,-0.026621183630366,0.0018573362461418,-0.00275454188946905
0.0273414761272682,-0.048899462667693,-0.00647555551567524,-0.00114417331629806
0.0159794257722072,-0.0725299599756218,-0.016635232589322,-4.04105816761112e-05
-0.0105846374685656,-0.0871057951874671,-0.024528071018951,0.000678006817544196
-0.0359576215456977,-0.0680079940044618,-0.0235746220285345,0.00122869282569749
-0.0422550142144329,-0.0340891200645059,-0.0177337222031063,0.00130313809654387
-0.0310502013806168,-0.022690979132879,-0.0185837904077088,0.0010370995942819
-0.0119067784810257,-0.023797009618796,-0.0248992900226586,0.000957628276100374
0.00895236637101587,-0.00165921620808081,-0.0263605500453168,0.000945361260640331
0.00779405998948889,0.0520126534383367,-0.0159811896169824,0.000911350297616737
-0.0138508668697526,0.127443641593889,0.00662235851168724,0.000713068715348834
-0.00671933832661466,0.167357247679031,0.0283096161028679,-0.000426351020228431
0.0187356069000438,0.109598483932726,0.0300298488174163,-0.00248825123534565
0.0203802196981571,0.0150548808756938,0.0160899255474944,-0.00387128980648798
0.0155653917638222,-0.0345766567479456,0.00580933834826311,-0.00319559678650869
0.023312877576909,-0.0452438924248052,0.00415233707439003,-0.00106367828504338
0.0287687708917511,-0.0419270700809079,0.0045985274847605,0.000700918013137579
0.0227044270745249,-0.0312197087926531,0.00238635610391612,0.00112804497021441
0.0134431670840921,-0.0183047109398124,-0.00322620347797568,0.000789973374643087
0.00532723341261,-0.0103711567644659,-0.00993221734926104,0.000321198549269284
-0.0026894356368242,-0.00417902651414213,-0.0129999306733118,-0.000229556589522102
-0.0114884543485789,0.00629242679300304,-0.0130918236835353,-0.000520638076576032
-0.0209710072268075,0.0165675239518619,-0.0152678936162726,-2.16614335018784e-05
-0.022249195588237,0.0212414163350935,-0.0175494122860125,0.00132930592556933
-0.010067190092159,0.022079833384667,-0.0180040213852261,0.00272274615972357
0.00530080605694412,0.0244989287414575,-0.0178074675535119,0.00289611332472476
0.00926613077967986,0.0319780538741759,-0.0143013611493259,0.00135857916982421
0.00336080680619984,0.0403821709439839,-0.00929715826655194,-0.000965980128645739
0.000751421738301392,0.0427098256672681,-0.00762880907338727,-0.00258558455944615
0.00409450435854217,0.0373274069661281,-0.00868963623031852,-0.00281906387868352
0.00626480280313714,0.0277844679544291,-0.010656026228616,-0.00188573337095822
0.00561904701066865,0.0159265511037796,-0.0135416324173647,-0.000286949976769109
0.00854847201769185,0.00219505422721814,-0.0184144471239393,0.0013656199665186
0.0185095493884801,-0.0078780351128973,-0.0240347722574331,0.00253770830190351
0.0290345007319884,-0.0112510877674718,-0.0270812225106073,0.00298618926107893
0.0304067189555461,-0.0109031307462515,-0.0249335697537558,0.00259953733879981
0.0214946939355662,-0.00808989874888565,-0.0190239165219005,0.0014170503104835
0.0113885179603059,-0.000868118898639598,-0.0128321878163133,-0.000134231063943331
0.00753855626541614,0.00857573218830981,-0.00823002143991264,-0.00156015382042209
0.00883838380693723,0.0142406693865003,-0.0066215125186836,-0.00252205937533428
0.0106734438895438,0.0175490397166272,-0.00540782791583647,-0.00252198729270253
0.00994788247558215,0.0234729351800222,-0.00334334039157748,-0.00146570774022945
0.00668042706998075,0.0350014723615883,0.00111229121110201,-0.000298462998596679
0.00387315118659089,0.0435908700239617,0.0119436423791492,0.000165044694833551
0.00382384229885263,0.0302094965508878,0.017474401507297,0.00024405859241336
0.00440144600264059,0.00024734083141259,0.00784674160020923,0.000130904569874938
0.00697162289319388,-0.0220663599124331,-0.000518644056377578,-0.000675044063360385
0.0109895346289207,-0.0317263135374937,0.00157805115993635,-0.00192197012116638
0.0105472777569124,-0.036904816054851,0.00631909212052184,-0.00238537058171264
0.00765576313220847,-0.0384553471898287,0.0108831444664194,-0.00157093012496602
0.00739406111513407,-0.0335530341777108,0.0156532536770536,-0.000225958552468531
0.00821455492719002,-0.0243388481003589,0.019828877145659,0.000871981552950998
0.00594199547118233,-0.0151775964361938,0.0208081018922917,0.00152384190059072
0.000133119861482242,-0.00891832791002784,0.0176889956638763,0.00208789688104418
-0.00335368097515732,-0.00770613708223077,0.0113668127230212,0.00295526084481165
0.00327653628172317,-0.010396786593357,0.00351009307344515,0.00379283613531612
0.0171634898861723,-0.0100644126170849,0.000206985369547462,0.00398316548704339
0.0232938138984283,-0.00453634552354569,0.00306885959190198,0.00337413967425131
0.0170111786739118,0.005510747449577,0.0076898929072621,0.00214539897624519
0.00884686104903433,0.0192522801824885,0.0127855012238592,0.000383928660356417
0.007473238877073,0.0248270433756873,0.0172965618194227,-0.00164820631334716
0.0104196657948287,0.0150624186659015,0.0174072211609347,-0.00323643978264026
0.0092319015871042,0.00135041948883128,0.0138071311420968,-0.00390781922162009
0.00368155024439669,-0.0044762792301521,0.0120170194998131,-0.0037714788084793
0.000820622149610397,-0.00408052667450902,0.0118004455049582,-0.00306776964215124
0.000512525050627584,-0.00247821402702205,0.012520153151641,-0.00207786679639017
-0.00336938125361907,-0.00148107261737577,0.0164449390055795,-0.00142053275542368
-0.0093388747021666,-0.0035380738783288,0.021041648912861,-0.001267829115779
-0.00783887562683062,-0.00929426681933524,0.022666386530588,-0.00112048658617318
0.00377573797560812,-0.0169994124656208,0.0225039331469434,-0.000618796170627994
0.00931067584934678,-0.0239738032614668,0.0228906470812743,0.00026465760014922
0.000290873342844859,-0.0279100681425219,0.0232593575253274,0.00123661387197705
-0.0100327633997711,-0.0282715721720354,0.0220112959656486,0.00202043351701045
-0.0147439749838033,-0.0252225132347534,0.0181673657542644,0.00236172336462605
-0.0139574446275421,-0.0210521760401697,0.0142191164426588,0.0022217829772687
-0.00576749393377037,-0.0205969858385241,0.0113563835894898,0.00190323719967544
0.0038956916769,-0.0280019977934286,0.00712036435569053,0.0014659384081687
0.00648281637691735,-0.0367849133832844,0.00336731899713453,0.000819861197004716
0.00610968969490254,-0.0366055822032875,0.00115485007535801,0.00016725171390758
0.013994228856095,-0.0283500511248948,0.000512441533651703,-0.000219746063305047
0.0269289848689347,-0.0183670624114103,0.0048950643732639,-0.00032876628370815
0.0317463421774478,-0.00374409987143172,0.0115844803926036,-0.000498023675797507
0.0237560720791882,0.0214934952905064,0.0147772333557814,-0.00138481215381845
0.0104700950272333,0.0327807237371172,0.0119214137867791,-0.00274156953294896
0.0043705262924646,0.00983598024489845,0.00274164228023112,-0.0031524092331152
0.00207036816644054,-0.0152614355785833,-0.00436412674549866,-0.00190481802617277
-0.00700581278469443,-0.0206264583941854,-0.00559480074879455,0.000237137375018881
-0.0113118232287757,-0.0218910407483745,-0.00650099263755797,0.00197961742105004
0.00212770552150029,-0.017140895370279,-0.00503325341789302,0.00272791728159271
0.0183114193182277,-0.00645831163586245,-0.00217284926569258,0.00259790387854789
0.0151341778636714,-0.0177360867011073,-0.00586638839212131,0.00201890136548644
-0.00424882031301557,-0.0410703029312818,-0.0144833166836538,0.00165666092131935
-0.0139051044160234,-0.0489252153033681,-0.0204356337243252,0.00184535576733546
0.000613572658331342,-0.0577730337763025,-0.0219370460965808,0.00231775039383007
0.014273264093163,-0.0790694906849764,-0.0216971324727068,0.00247824797254896
-0.001687291531621,-0.0942573184657899,-0.0184159606333182,0.00208799923263017
-0.0319183424981548,-0.0849473703666476,-0.00872461916822197,0.00133999340835447
-0.051533357325667,-0.0451074851839916,0.00271007063228169,2.20795739572979e-05
-0.05470872139072,0.0197913642132313,0.0109032394330359,-0.00203085314726462
-0.0333344264581051,0.0778585616123559,0.0166393473665503,-0.0035037417968073
0.00309908730461546,0.0985907352236585,0.0221250278287719,-0.00298068347959846
0.0202412531067029,0.109431183868218,0.0262656937978654,-0.00150433524002633
0.0174156267113186,0.122735098400748,0.0216863044246357,-0.00114993478239033
0.0237128166413622,0.109913744357637,0.00850056505723926,-0.00203541237233505
0.0339119764210607,0.0802087605851268,-0.00561045659425947,-0.00257354185197038
0.0250042768701467,0.0473293785973868,-0.0191992888848031,-0.00204416684142424
0.00904937958882272,0.00758439317662163,-0.0319245682410162,-0.00136594343373925
0.005964324909279,-0.0301809367039499,-0.040256757350691,-0.00111850287328939
0.00976246618768365,-0.0570933444941698,-0.0385454703507376,-0.00045576730820034
0.0123386215014444,-0.0720275823809799,-0.0273613593313322,0.00146370275652677
0.0157230508485371,-0.0756420482265342,-0.0179197508851061,0.00421630293862315
0.0207563724470072,-0.0600144018212141,-0.0130056861293481,0.00595672478773705
0.0181975903111572,-0.0215478389441014,-0.00757881554345355,0.0046928377448973
-0.00303087930177363,0.0373552481450884,0.00146573259333019,0.000667728707068279
-0.0339925832073383,0.0876594810074739,0.00892047921744318,-0.00370406003506483
-0.046620554373323,0.0639372520728574,8.24826364081367e-05,-0.00543105211009497
-0.0240777175372165,-0.0167479039007993,-0.0159467890086235,-0.00298531377682521
0.00356018141084261,-0.0654665791546307,-0.0153702586794228,0.0007930345405445
-0.00415575409340808,-0.0608660706457161,-0.00253269901931938,0.00123950003739973
-0.0253832317322863,-0.0359368623328107,0.00547511971044207,-0.00179024929540187
-0.0250496692479456,-0.0183277987546434,0.00224625965762249,-0.00457295013068097
-0.0195339271550677,-0.0223503751618897,-0.0108816084230972,-0.00432003253101776
-0.0179636069479331,-0.0381814937237508,-0.0200297801932184,-0.000930881682483804
-0.00176143570897445,-0.0411760260592309,-0.0156093448413003,0.00326830437698254
0.0169164097492087,-0.0190617002714998,-0.00627558805364525,0.00557533455450744
0.00240505323055775,0.0256107124513754,0.00222518469437793,0.00555497163964948
-0.039255798007167,0.0991961789643482,0.0116620213115587,0.00462625132723129
-0.0603508364170774,0.176497346252237,0.0213220072268369,0.00309269507041495
-0.0497519859449162,0.184403364285154,0.02698067360373,0.000326827974004104
-0.0255966029434798,0.127318339169984,0.0256100911871794,-0.00282001168951252
0.0122069625268771,0.076675631265061,0.0216494077509392,-0.00557878261996962
0.0483299126525469,0.0421329488196782,0.0188907854347657,-0.00854110331536439
0.0597064279492293,-0.00415074247134165,0.0165875402577487,-0.0108311894100849
0.0603839202007262,-0.0531808546692942,0.0191652319176915,-0.0104547656743055
0.0651062092133031,-0.0770862492811219,0.0244905159546778,-0.00804395868727256
0.0614127273825335,-0.0705953685443361,0.0246580766000105,-0.00508539969972899
0.046441703018715,-0.0483341004006086,0.0274328524395885,-0.000945220899945939
0.00982958195840716,-0.0322337045692063,0.0405043811365273,0.0040978324803377
-0.0578433094724982,-0.0249649323128248,0.0522435986371689,0.00770308470701237
-0.0957220113973811,-0.00796103757721675,0.049884672180243,0.00824149469562158
-0.0604948043178623,0.008573674138572,0.0358167642036576,0.00580182263791354
-0.0182902820450906,-0.00930078327348244,0.0227251179049997,0.00254672302972768
-0.0169940357021659,-0.0539748289305541,0.0180132871272127,0.00159105325630807
-0.0230242692995137,-0.0755691924069398,0.0166955180207006,0.00328254464660684
-0.0150370035399803,-0.0595631724901085,0.0138711885267506,0.00472800776011882
-0.0045462782536167,-0.0320875701638555,0.0122474731626148,0.00348903941269159
0.00598766693197708,-0.00310833186495489,0.0100016773096911,4.77652649753359e-05
0.0130183711991668,0.0330668385044555,0.00491832446972518,-0.00305904298637295
0.00502746051023134,0.0855896970923361,0.00230986901367121,-0.00423778590891802
-0.00655524830596094,0.142470700311553,0.0052361231471387,-0.00401427277947915
-0.00464534891326497,0.143474053640655,0.00894431881129848,-0.0031587083808994
0.00523522184042782,0.0774342452485213,0.00626804687964078,-0.0012634949819859
0.0118501266048384,0.0174023190272414,-0.00225024109923187,0.00165730893269145
0.0131770833047196,-0.00557364110693991,-0.00952318573269442,0.00393948321240075
0.0122281843201437,-0.0143558174446691,-0.0088657603039698,0.00409886481501875
0.011595532660248,-0.0197898089991476,-0.00206878043318736,0.00192707693796041
0.0110116249541847,-0.0200448222752541,0.00819177925485726,-0.00190923487279145
0.00729602907210775,-0.0140822330111752,0.0141858936578008,-0.00564042424438303
0.00165867602281285,-0.00465031371267395,0.00538632930360369,-0.00630590231990111
0.00159648523918673,0.00719119363382254,-0.0026986077427229,-0.00256023662503441
0.00170279406179602,0.0202195517493492,0.000574041457056272,0.00251991259473173
-0.00668996342505216,0.0303759586309501,0.00255058437086075,0.00525221835675571
-0.0126680551845251,0.0399596746013437,0.00465045582776177,0.005348784875866
-0.0113491459005384,0.0356414233002191,0.00932742651460481,0.00359599703737822
-0.0090127456813578,-0.00118765904504144,0.00283638998127246,0.00108262567203376
-0.0094490363548061,-0.0432534025763319,-0.00925712316586017,-0.000147260796587454
-0.0122415220710195,-0.0550219942654417,-0.010485219381073,0.000219898468381611
-0.0156518567478754,-0.0315342619321916,-0.00857256905392745,0.000358909253673703
-0.0258179495458025,0.00233280951681378,-0.012417517706513,-0.000360917721361172
-0.0349953972092653,0.000144067950844713,-0.0201079054722464,-0.00014017348498326
-0.0288061965395804,-0.0329950018181073,-0.027750817286309,0.00253293576983438
-0.0183163182310782,-0.0464551070534891,-0.0282323881721035,0.00614390012142221
-0.0131383257339696,-0.0305407850227147,-0.0226873207614346,0.00730179726150025
-0.00574956795494527,-0.00926531715915961,-0.018574857531209,0.00456674928759512
-0.00108720639235723,-0.00960659615110943,-0.0232933423078806,-0.00018315377040803
-0.00901681517177112,-0.0410323789530234,-0.0382121248697505,-0.00357096962779228
-0.0167134292601747,-0.068381760653666,-0.0465836491512431,-0.00340150399334976
-0.00617382926371077,-0.0618684529861477,-0.0372762494321937,-0.000710172891825995
0.0157964709128176,-0.0445912267473258,-0.0264273574724563,0.00185211206741634
0.0342435466357146,-0.0364923562980195,-0.0244128569061137,0.00314147686782974
0.0578701720068953,-0.0213417989218521,-0.0197781582071439,0.00342000279060703
0.0799455261798053,0.0035997229040135,-0.00955364855249588,0.00256692084985919
0.0673652106191308,0.0193989388876444,-0.00388763829599387,0.000686948512054604
0.0276157204798038,0.0354123874885788,-0.00223051801320794,-0.000680870436649267
-0.0116092241765998,0.0676096186649573,0.00420806468734325,-0.000620267369591752
-0.0412803736967682,0.0828616909445436,0.0140903930254391,-0.000343466364377165
-0.0502490347629759,0.0572226518515696,0.0211086049923659,-0.000802277806301226
-0.0493463618655146,0.0194986234141075,0.0222442134800329,-0.00155072946626001
-0.0644175581041458,-0.00284383323506829,0.0182662582689355,-0.00206376005361086
-0.0786296786628885,0.00239449306930438,0.0141099855309691,-0.00219978375190723
-0.0669929261270495,0.0171015819036855,0.0121675189393952,-0.00219664176027857
-0.0376821437664356,-0.0174356117270402,0.00785130323102957,-0.00195677741264637
-0.0021879906185754,-0.0920338955016153,-0.00141355546561212,-0.000599502091294439
0.0288893232286942,-0.129029761539757,-0.00954275288923833,0.00157716706156603
0.0455072155696453,-0.115901114211652,-0.00810650521361529,0.00279830671684542
0.0501052852183352,-0.0897919205050713,0.00396542918510743,0.00275178831151466
0.0482481741784842,-0.0618589075497346,0.0160654947394714,0.00226671081255921
0.0411622341713164,-0.0293866218789584,0.0235779906730948,0.00118301247803579
0.0244648114489189,-0.0108959211222398,0.0322879958701859,-0.000736725183110873
-0.00237146361880135,-0.00345366485018204,0.0383849367035787,-0.00280859258980685
-0.0180716686110081,0.0236620051883259,0.0307632925863771,-0.00395747454680987
-0.00713586660202235,0.0562890058743462,0.0119198547514018,-0.00377284539216527
0.0102182117592713,0.0667954696590246,-0.00715671471451928,-0.0029887963308257
0.0106842054854269,0.049910164360603,-0.0195189591057212,-0.00246489702327413
-0.00413153133534367,0.0156977198605061,-0.01669804360299,-0.00207671444038061
-0.0209346994286862,-0.0070213290425708,-0.00679709935468987,-0.00101962388835903
-0.0254577317581434,-0.0101005468564934,-0.00623513659274997,0.000580216979086416
-0.010193238695389,-0.0104138797738226,-0.00772155553568415,0.00135338471671271
0.0168461563888623,-0.0102575429389519,-0.00291132297256093,0.000791466147102247
0.0429354155712154,-0.0101163678321007,0.00182470700544093,-7.83256946283381e-05
0.0563675680040325,-0.0177337446159994,0.00360007127817077,-0.000178520258349266
0.0529327458991021,-0.0200412287493765,0.00569262633738794,0.000401193159957038
0.0430725430066857,-0.00167241217269642,0.0127509219220414,0.000480373357538162
0.0329300901247359,0.0252886184944486,0.0250869855223909,-0.000838699526181138
0.0148821387427247,0.0358585112768482,0.03201485042559,-0.00304999242399511
-0.00860025338408961,0.0207712782278,0.0275784875192895,-0.0041100592575716
-0.0244106787509349,-0.00555498834047436,0.0180811055424839,-0.00261844167388354
-0.0376597760206017,-0.0180611131042141,0.00985075537253118,9.46973186424951e-05
-0.0545252041569233,0.00112495099298368,0.0141711960695132,0.00174083031259818
-0.0586387124395394,0.0467414929693357,0.033767534638919,0.000844516848713043
-0.0396183545931054,0.070239541049995,0.0418328623279947,-0.00255064487494349
-0.0132839363030545,0.0347474761681534,0.020945733696287,-0.00569400647621303
0.0015161928637703,-0.00846545307345885,-0.00561978047776189,-0.0054506391601276
0.00833878190303514,-0.00734909932531923,-0.016048816221368,-0.00238748830626889
0.0187540014578683,0.0154230600710671,-0.0201180098770469,0.000412475262210785
0.0331132524115375,0.0248087541793329,-0.0276368539880236,0.00158257316113798
0.0391495146056914,0.0165014534121824,-0.0314812724346022,0.0019155737780972
0.0273100306077666,0.00353804614982872,-0.0306423718689727,0.00203871905707649
0.0126602019782432,-0.00652071551020442,-0.0301444495208591,0.00182094687899408
0.00824077574414928,-0.0143786650662175,-0.0277006430227332,0.00107924856519724
0.00488836401584388,-0.0227499064651107,-0.0240969596616086,0.000347530289164939
-0.00112999064633323,-0.0279269062768666,-0.0227406790035555,0.000574286931815578
-0.00466655002879523,-0.0242977839569244,-0.0219848853071023,0.00169272510137116
-0.00555397534654399,-0.0162850151205432,-0.0220186102248423,0.00273978076125223
-0.00409767056374358,-0.00671695888531106,-0.0221972045713306,0.00314272184465505
-0.00484930437071374,0.00558886587352597,-0.0173535810140511,0.0027464448198629
-0.0116909234575277,0.0135542500564986,-0.00846065131026273,0.00130221870358372
-0.0159718359612237,0.0158825231278297,-0.00094752811307721,-0.00055143823759718
-0.0151420899739118,0.0264573205573912,0.00669218234015078,-0.00160949763311311
-0.014703985281852,0.0536576743949543,0.0190216584852768,-0.00241230206779962
-0.0139451140487696,0.0798265766513554,0.0278839405244732,-0.00427072782875268
-0.0120271563904522,0.0780857982571876,0.0196568529666382,-0.00629731611261207
-0.0078454707196982,0.0561770087328677,0.00287619420388713,-0.0063807462630013
-0.00248082727237669,0.0384528842701366,-0.00512750462183654,-0.0040903733049942
-0.00525403135787426,0.0294703325175027,-0.00251511766531068,-0.000617439436183605
-0.0159577006449893,0.0267931856937884,0.00316532142122043,0.00278464339880839
-0.0223133624139631,0.0278451732171351,0.00293072834453919,0.00542943171566651
-0.018829819972883,0.0249576692771313,-0.00423051342718459,0.00688564233269365
-0.00967332446584837,0.0174702323291807,-0.0105815706250098,0.00650036283163565
-0.00128736890113794,0.0107697208829875,-0.0116155103483174,0.00379748075092806
0.00131881724441377,0.00301583852719285,-0.00679580212405715,-0.000335683577482241
-0.00410516489880472,-0.00296463822717025,0.00233828445909259,-0.00353493718191689
-0.00669269330969823,-0.00326747767164009,0.00512651353191186,-0.00405983498828807
0.00327143078799268,-0.0071375013702194,-0.00533744013879137,-0.00198045870039706
0.0136567581195117,-0.0166685353044452,-0.016397127750402,0.00161004274256493
0.0151382832562847,-0.0204902409137089,-0.019007857922445,0.00474953682561526
0.0148263446228005,-0.0151846570255897,-0.0176873593899826,0.00549533978750635
0.0141040880912989,-0.00631659175089368,-0.0122178610089056,0.00381232491783771
0.00886363918965378,0.00522470659615663,-0.000455031020327429,0.00112511934093379
0.00431633092030747,0.0141074415758322,0.0109129079656515,-0.00132235796574286
0.00322921730381016,0.011026398525627,0.0122158606043074,-0.00283150976998571
-0.00147261504805671,-0.00266154895326203,0.0027730798243807,-0.00300381790780137
-0.0133166544252579,-0.0170919146479754,-0.00734604922738777,-0.00162236531359647
-0.021778127640739,-0.0198702630175372,-0.0111878829378404,0.000781886039131729
-0.0188544144294138,-0.00644972601859628,-0.00924022874986947,0.0026380593541927
-0.0282617954156403,0.0106526337444551,-0.00267836299931121,0.00251706649451725
-0.0559053133983527,0.00782891563937983,0.002189186812585,0.000492854833799941
-0.0559416338972424,-0.0166770148177477,0.00138832690220875,-0.00195542851465589
-0.0149440987738822,-0.0429340643638074,-0.00229732846608457,-0.00348600105498659
0.0352777787641348,-0.0629943770066458,-0.00740864453632431,-0.00355810517504661
0.0710432367984457,-0.0708581990661104,-0.0099199160165704,-0.00182872099415445
0.0715351425370446,-0.0505197067172877,-0.00452677517258172,0.00151003092144912
0.0335036806954531,0.00520295877339517,0.00541486721454301,0.00484347134925934
-0.0140791505028734,0.0478937765159684,0.00809667960425217,0.00626026237340144
-0.0380976524539103,0.017124131379688,0.000941120391305065,0.00557624918051454
-0.0257509419592902,-0.0481616921912304,-0.00235659639835967,0.00356521247108647
0.0055812422480916,-0.078455423848706,0.00298348035321233,0.000716763402278544
0.0173418250240269,-0.0745880563283208,0.00249228992697132,-0.00190299055768644
-0.00948606331096983,-0.0633548029449701,-0.00966472565279066,-0.00264840519659978
-0.0404953596210556,-0.0392248074891388,-0.0173838914442718,-0.00100753333737076
-0.0466184045015345,0.0191125002418324,-0.00666881385350978,0.00158823570223995
-0.0464087961288941,0.092339257139166,0.0136533695569962,0.00261681116867209
-0.0416991208342302,0.113512601429791,0.0199848556149427,0.000791085094032625
-0.0213663320325357,0.0587956581476027,0.00367033416955045,-0.0016952309424134
-0.00706952922462796,-0.00738564520037177,-0.0148356150573895,-0.00192225929055953
-0.00932019001741648,-0.0432030583544679,-0.0198719283511352,-0.000315724341768215
-0.00773206429998089,-0.0726993345681954,-0.0200575166010529,0.00110208862499507
0.00312252481046875,-0.101082807583544,-0.0209945563446511,0.00187404849637077
0.00689113364990583,-0.099745099408295,-0.0144785043234021,0.00248350202519225
0.0065439390531917,-0.0700732006755389,0.000642201328628689,0.0018978647005469
0.0165347866874381,-0.0635650868494571,0.00279537820460427,-0.0015449415445899
0.0230523205309935,-0.1007237993649,-0.0188597592637112,-0.00537781542428587
0.0107354273105096,-0.116037054489249,-0.0371792032620803,-0.00462451628485911
-0.00442590279738438,-0.0639059480922923,-0.0347115946924852,-6.92839109170751e-05
-0.00943508062266887,0.0202085349818891,-0.0261270131765573,0.00278230876615014
-0.0200900702551845,0.098924135169673,-0.0216658201173878,0.00199444201532199
-0.0423567351440306,0.154893346390496,-0.0198552457102235,-8.82319713636484e-05
-0.0514532530880511,0.170140345018468,-0.0203677285202582,-0.00163152231884411
-0.0354852838596983,0.131935308669344,-0.0247989497149015,-0.00236034888389841
-0.0157797323595338,0.062161838182846,-0.0294834483525061,-0.00178370136518506
-0.0130659107925247,0.014011144173788,-0.0239984297816651,-0.00010082856449988
-0.0235835944612263,0.00691493350073963,-0.0104367168135139,0.00116466129418291
-0.0260372663613219,0.0183034375344764,-0.00106705467932238,0.00142353401206743
-0.00783858237932284,0.0241097980340139,0.00108792837344433,0.001078262078946
0.0210018158420655,0.0190319664429001,-0.000545419089655661,-0.000140615214306182
0.0384510011275561,0.00951526827567763,-0.00111878185780309,-0.00228270040678396
0.032261993957351,-0.000407698849967844,-0.000138076739934923,-0.00389457814884947
0.0157140101254862,-0.0048709714384875,8.85231382947408e-06,-0.0037179578341987
0.00402881687794584,0.0061801765421156,0.00211949213067234,-0.00277017772132754
-0.00227013113923271,0.0266272174279025,0.00121915467504015,-0.00248543292635874
-0.00580465740120243,0.0304582046135878,-0.00963235923453944,-0.00255732338754823
-0.010818129666488,0.0149659344546997,-0.0184991561220913,-0.00238193567168836
-0.0110130692349175,-0.00160577016088236,-0.0157912008495371,-0.00212192246389101
0.00640717095655327,-0.016575910917758,-0.0110988829394296,-0.00188964059412736
0.0343522136381204,-0.033406777694156,-0.0109894391183919,-0.00133511200307535
0.0538371488833409,-0.0488738228359508,-0.00882628526770963,-8.66672302362198e-05
0.0520666848352802,-0.0584594443180412,-0.000711582163230462,0.00151824324937516
0.043238659097022,-0.0582554898938975,0.00838147023675674,0.0024507457322604
0.0490493928804125,-0.0372168520092582,0.0141891722049053,0.00213325625461422
0.0638992412139783,0.00772191645762033,0.018115607345956,0.00128300421677702
0.0701070872098369,0.0550009806660832,0.022031586008449,0.000780005344515795
0.0304461324352911,0.0877018172758971,0.0227282076550958,0.00065923669187373
-0.0458585457157143,0.11009964721763,0.0208616045355217,0.000898558512839262
-0.0646969746363442,0.115147588456219,0.0183727178099658,0.00110496747355836
-0.0168093510606698,0.0893210861231199,0.0121177839701166,0.00062981414501252
0.00977358297849942,0.0507347901304081,0.00503639461592998,-0.000267195430561879
-0.00601596279936135,0.0228744896050696,0.00291062832634865,-0.00115273912721621
-0.0353142882309899,0.0118446626603368,0.00809784046070193,-0.00180689857337129
-0.0579102351347404,0.0134798499720355,0.0187665157912202,-0.00225249602324691
-0.0500343559640503,0.005458422403119,0.0261790700519931,-0.00298115182357745
-0.00626384290316938,-0.02200986668571,0.0229748838137642,-0.00363403071336847
0.0386894314617913,-0.0483280923924675,0.0138645387145862,-0.00309672983095667
0.0431097885360323,-0.0626704911307636,0.00591012312007922,-0.00131266243749028
0.0225512363287903,-0.0721278795860832,-0.00229041848298159,0.000723057873074692
0.0185461753206262,-0.0770440997455411,-0.00870709313357135,0.0024157698947679
0.0238587982708734,-0.0760884789796328,-0.00936448349346676,0.00361929886090069
0.0230464431033826,-0.0762131463995786,-0.00603360789371545,0.00417932504366432
0.0198578816514308,-0.0776214745078754,0.00161675891520495,0.00416005219106015
0.0201211859830354,-0.0739456279542298,0.0112190491726152,0.00329758027313856
0.0256927131709706,-0.0642788675286877,0.0152699609857267,0.00142281133472229
0.0232386881419754,-0.0456127214175742,0.0178450238673566,-0.000486140558596716
0.00446009725914457,-0.021201632805017,0.0226804906065772,-0.0012987906074062
-0.016155563627705,-0.00219207361915713,0.020252146247976,-0.00100871444208005
-0.0202408630799954,-0.0022031520968611,0.00668811753276655,1.93026273411271e-06
-0.0182702678296542,-0.0221906830343394,-0.00667410730575005,0.00157297836067771
-0.0302035769622914,-0.0250896123096476,-0.0031330633408482,0.00281923298225496
-0.0459183202818429,0.00151715063467717,0.011091372699232,0.00248777706692199
-0.043358921190587,0.0238545136038964,0.0144763501597847,0.000815420225127208
-0.0228745259931892,0.0346744397788201,0.00641092725916296,-0.000597843158657604
0.00156286665715787,0.0318998078876825,-0.00544532187367462,-0.00104935887055129
0.0245712919729516,-0.00218379645043878,-0.0232440754863192,-0.000936188255901624
0.040552488407958,-0.0438291184972546,-0.040284577118238,6.98658329426256e-06
0.0431072017572844,-0.0535789947694953,-0.0416058711805348,0.00200506363129892
0.0354407116138198,-0.0310059952386591,-0.0241113541565567,0.00342367157451996
0.0105583056004351,-0.00990050773899462,-0.00521893373384611,0.00233025952983458
-0.0450858117197528,-0.015690162390506,-0.00479178350662474,-2.72457138461965e-05
-0.0943998762173288,-0.0285262498666705,-0.0169680966444577,-0.000540985216179635
-0.0837173564670185,-0.0385426999112366,-0.0245822963223932,0.000837261256362107
-0.0439083034757824,-0.0586915464554439,-0.0238832968705382,0.00124714586936113
-0.0301394278110551,-0.067209437897008,-0.0227219814950169,-0.000851180907088416
-0.029258574288664,-0.061236650104897,-0.0289612559934171,-0.00386568228604859
0.00590959561907545,-0.0699497880677899,-0.0353904259055271,-0.00489461638194379
0.0685626659760137,-0.0720555181373564,-0.0297091357798988,-0.00275641881536998
0.09453109754742,-0.0289793071489227,-0.0119857565192521,0.000962424884088137
0.0772408230722108,0.0459142576084825,0.00705466157198504,0.00302060256269628
0.0648648573155907,0.104050723425644,0.015274860904814,0.00132877035978734
0.0631974081441487,0.106863891173382,0.01518128197538,-0.00240106730221051
0.0489075718276695,0.0852483755468529,0.0197934734524824,-0.00471145647181175
0.0212670567044467,0.101679825351393,0.0309409964923516,-0.00462890428176076
-0.00309462030605415,0.121396441217232,0.030656429849667,-0.00366627849973469
-0.0262398497084482,0.0883521355313975,0.0113311700268676,-0.00259868792203469
-0.0605903740725166,0.039080910601403,-0.00897421688646817,-0.000607116875277041
-0.0879937716310929,0.0228194930690838,-0.0143819501119525,0.00233887623470769
-0.0745550612811434,0.024620707320561,-0.00879625888001784,0.00438118056180297
-0.0215292024223332,0.00288453600906766,-0.00561401407570708,0.00392828865963077
0.0226746068619877,-0.0309515225482611,-0.00532558264265796,0.00162561562254148
0.0395587676327788,-0.0456513962587596,1.7929720750938e-05,-0.000746844234294974
0.0617502971194233,-0.0489565906480527,0.0085558454032483,-0.00261961730287622
0.0924496892611197,-0.0544556433415495,0.011306976905555,-0.00398473697487738
0.105705642060798,-0.0556324181894428,0.00937058851304533,-0.00370398901252282
0.0942739324456058,-0.0397230834119375,0.0157622074117773,-0.00108349646078291
0.0640810505044195,-0.00817308908095521,0.0335467398272636,0.00229019387769131
0.0170424831683173,0.0278229495101535,0.0518118632923883,0.00391090144403673
-0.0454834754423488,0.0711930478429009,0.0646270325903997,0.00256007490017391
-0.107816189795811,0.123961596431154,0.0717888887397398,-0.00117425081376783
-0.138447667957103,0.154107110427382,0.072474447039534,-0.00555690072324935
-0.115479982847887,0.141039165037436,0.0704680307953909,-0.00909684395848352
-0.0524466474733868,0.100784520119896,0.0678234919293206,-0.0109435888052857
0.00744733550506271,0.0357521710224119,0.0531836524763868,-0.0102480258994966
0.0353117895734522,-0.0393482849033358,0.0213409199339907,-0.00583696433071975
0.0364513096660821,-0.0758566577153769,-0.00353961911177,0.00217484423709738
0.0232150181336783,-0.0597049609870827,-0.000402660261773061,0.00993184479765163
0.00762604857859203,-0.0202876193846731,0.0207722802964865,0.0127886245556846
-0.00504802834241203,0.0148174128650049,0.0383328754962385,0.0100044008218088
-0.0172781158115593,0.0236743253637087,0.0391281083433284,0.00442664224152556
-0.0259100195594186,0.00119621904551109,0.0280637252552115,-0.000298054097685446
-0.0265904501339185,-0.0322515435802154,0.0143412190193316,-0.00189770761555715
-0.00898205535775882,-0.0507715327909257,0.0016094880384137,-2.57144523722157e-05
0.0177801227035122,-0.0358890170254075,-0.00126285881897797,0.00342863405830053
0.0257826382447137,0.0199025988815235,0.00927688470872823,0.0047728985676538
0.00872325310850351,0.080863837260417,0.0196086645490562,0.00196109045087753
-0.0129698057510188,0.0584133805419378,0.0115201591033155,-0.00273780947157763
-0.0104109264536274,-0.0465483172415618,-0.0082590551135706,-0.00507024972074162
0.0143109790222844,-0.104802291660209,-0.00986504342063831,-0.00357671130573449
0.0231112947745567,-0.0590901054855707,0.00850595630455341,-0.000983851083679745
-0.00299382110981684,0.0114594390419691,0.0191157949913215,-0.00027912848793764
-0.0421003795820965,0.0219763292664162,0.0109584899401223,-0.000815181342333513
-0.0658780537378224,-0.0133100236374995,-0.00119893252714843,-0.000202894410763717
-0.0621310781106532,-0.0346444195858242,-0.00461439620729191,0.00178482870099873
-0.040995663272283,-0.0461975400690712,-0.0089908299879884,0.00387462719032062
-0.0233920707313408,-0.0781077159386884,-0.0248726808741465,0.00646041844536435
-0.0303387243614817,-0.116411513288511,-0.0400237119507684,0.0103762840746202
-0.0712083662672676,-0.127530613732201,-0.0399810161933807,0.0135375486182533
-0.104506709212156,-0.114725617316081,-0.0270614483858562,0.0130661209987566
-0.0845532558185123,-0.0915468156471356,-0.0111569637875438,0.00852707370035814
-0.043467023647252,-0.0446007276513148,-0.00114087817104035,0.00123414068920732
-0.0404719050249874,-0.00710805947817739,-0.00192837154691985,-0.00642290286171318
-0.0550479679427447,-0.0337518795942701,-0.0131129773665605,-0.0110387213584339
-0.00990639606399964,-0.0885057828931786,-0.0276239900379769,-0.0102700956150039
0.0819728350731752,-0.0781777851899514,-0.0282194028280159,-0.00538198343490999
0.127809689262903,0.00998235447373762,-0.0109811800497351,-0.000717270564926447
0.0871865073751978,0.13114104904118,0.00438674006567804,0.000331629646082217
-0.00593082061558216,0.264705705546571,0.00914740954834051,-0.00210758234634293
-0.0712055017065954,0.300089642222348,0.00154103830309299,-0.00533084676951908
-0.0618547243275345,0.15826847255108,-0.0240758175064914,-0.00578262038852809
-0.0226425137173268,-0.0180341388538032,-0.0536293401543203,-0.0016022909359056
-0.00169144294198932,-0.0948000598357029,-0.0622857543712061,0.00517607558158453
0.00123494033961111,-0.0970862455886574,-0.0517771438865303,0.0100214838009477
-0.00911353291875293,-0.0815547900738021,-0.0434449974476287,0.0100373419377748
-0.0272083064146512,-0.0674155238286835,-0.040711472713908,0.00676159882716491
-0.0365971662474084,-0.0552741367000949,-0.0364630804804835,0.00429219059739829
-0.0369901668216328,-0.0400830161638666,-0.0294427228079471,0.00422246864981111
-0.0400730833544079,-0.0202852168973717,-0.018502351620098,0.00509643336716943
-0.0465219729571151,-0.00281955769405838,-0.0094900915581172,0.00543330743199058
-0.0525809961178173,0.00939241797266375,-0.0085019324843553,0.00414624301679429
-0.0481703665745185,0.0111963321625814,-0.0135164245788287,0.00184914604959607
-0.0259710711950731,-0.00133017705707422,-0.0198256380772506,0.000664172438001539
-0.00262830534214454,-0.0034166182044263,-0.0162727189794899,4.24782720375681e-05
-0.00171169243823703,0.0234883094400232,-0.000387773760005726,-0.00354753543047329
-0.000941458577931268,0.0467665585621502,0.0112760246734909,-0.0114338226812442
0.0375364174881727,0.035614269012427,0.00858232964609984,-0.0187179362649142
0.0976443781473275,0.00917191200755225,0.000425998333029599,-0.0195657504907174
0.142337582481984,-0.00631976243877703,-0.003498571784032,-0.0155806897745178
0.149549449273271,0.00456193571491963,0.00249635432230852,-0.0123538818796362
0.12256965917756,0.0311749356278834,0.00939718847087407,-0.0110615274256078
0.0662496582396336,0.0415138458153197,-0.0018635144028516,-0.00923746622432069
-0.00994492132177394,0.04350514643627,-0.0152972319328107,-0.00540902825883017
-0.0706242883813114,0.0589916605288819,-0.00517291880507945,0.00123884695453613
-0.10986711723,0.0948495409503088,0.0196359623522874,0.0113410515892508
-0.117033770962493,0.13388019620335,0.0391058494894137,0.0214265712294252
-0.0711034407217398,0.126102856474641,0.0415445546189229,0.0243827614286281
-0.00797547649231307,0.063749625178654,0.0285363014568039,0.0177107158176721
0.0283609001997884,-0.00174311056086465,0.0117352188145773,0.00737558788302749
0.0394722541442516,-0.0263324275475678,0.00193796089801518,0.0013723169241423
0.044260804474689,-0.0172875157123291,0.000336509207971659,0.00119234661228442
0.0487787755365422,-0.00869115459475963,-0.00183518141006505,0.0015447335243799
0.0494710233894284,0.000121656015644137,-0.00674626539100266,-0.00185588142152517
0.0425406707573744,0.0130979242173815,-0.00907507578160528,-0.00770432557462689
0.0382922922573901,0.00476883522958482,-0.00956216967566443,-0.0120787793872607
0.0472769217209329,-0.0208566923170124,-0.00999897895364998,-0.0127311472034817
0.0561474097061461,-0.0297724734721439,-0.00560493626387728,-0.0105101058588821
0.0524711514090696,-0.0194914720953516,0.000742310015331722,-0.00744061149059666
0.038815907938098,-0.0124599774747008,0.00244542361970722,-0.00450336042527002
0.0182260006580968,-0.0119260187914682,0.00666440064466172,-0.00195768274411849
0.00223935605467648,-0.0113878108421493,0.0176438267680617,-0.000213799472943947
0.00224800931538692,-0.0151216159165042,0.0245498862431901,0.000547026814649173
0.0080392815748302,-0.0209782128260329,0.0198976666210319,0.00103642829345736
0.0110094419928446,-0.0165700185622263,0.0114993366569186,0.00223763825255208
0.0168018460063667,-0.0053430990606272,0.00955101492804642,0.00392643151743346
0.0220495155326156,0.000800979724814778,0.0116902550362072,0.00470689840977512
0.0184979398995968,0.00326756145585646,0.0107921261553448,0.00425674059818227
0.0106010668786752,0.00162550721379609,0.00810503380859899,0.00407868474661381
0.0209820469489502,-0.00360438549647714,0.0112154297287167,0.00520337205049836
0.0542732636764607,-0.000127871503547705,0.0189081647258158,0.00638466427149576
0.0725046650970443,0.0144677006041355,0.0224160568024029,0.00547642218282498
0.0497995356045783,0.0261625252675727,0.0211549165703687,0.00203743529805122
0.00413474464233307,0.020638381882541,0.0186185860034182,-0.00197840690641061
-0.0226934775480581,0.000649327809625188,0.0136319553465408,-0.00403182431643376
-0.0188581613617746,-0.0157774541558688,0.0050274139272199,-0.0033174938040669
-0.0177533564701355,-0.0155713358223583,0.000477641730311102,-0.000971107795352771
-0.0263091427447097,-0.00614999212196479,0.00106898056391988,0.000968836696521348
-0.0164313914949117,-0.0219188681189439,-0.00584541084773454,0.00127934024544411
0.0136710169103337,-0.0747399453840732,-0.0205665786018223,0.000938216554652269
0.0395185300455904,-0.129023212186961,-0.031357758115907,0.00158667193476654
0.0548779034557611,-0.15004153322472,-0.0257898650177459,0.00318768606288894
0.060412914635308,-0.114669252982729,0.000397516888575734,0.00409518428800338
0.0430944758820142,-0.0167393768277907,0.0322689410866684,0.00326336247402541
0.00740530611146011,0.0699931218917953,0.0469139553704948,0.00141295772356986
-0.0273249852863548,0.0527939398277659,0.0328457819032489,0.000237497729755011
-0.0510643510123017,-0.035253595662757,0.00229294215067944,0.00144629438921705
-0.0735063468765627,-0.10461116068128,-0.0204968116314435,0.00471497400995488
-0.0929720287506482,-0.11143128103873,-0.021882808311882,0.00676966123425141
-0.0724450828559808,-0.0765549648590626,-0.0127426496896378,0.00428334614817293
-0.0130521852183385,-0.0420703156935531,-0.0104247281820638,-0.00229164676487144
0.0257774341475967,0.00398775430361263,-0.0135406103525803,-0.0087881287386336
0.0119826419264937,0.0611971896962748,-0.0173709801665881,-0.0120531733772701
-0.014396037758607,0.088257885221157,-0.0237329759056237,-0.0116883395482389
0.00173219922037725,0.0581120200055397,-0.0323048567353151,-0.00814606256632779
0.0577318339119979,-0.00806928792012167,-0.038161871560396,-0.0025772881446459
0.105896856911368,-0.0378159253639426,-0.0306524146669018,0.00321421922641622
0.116456660734813,-0.00744175300218031,-0.0109769334072331,0.00713622384721147
0.081018035802763,0.0290202320781665,0.00325055727861437,0.00728419427993034
0.00976134629967838,0.0333758842660998,0.00755655536909261,0.00407822135050289
-0.0353396840303269,0.0208795266010253,0.0130925555996699,-4.12585356780386e-05
-0.0220195876814074,0.0163726848693664,0.0199964899906696,-0.00354692728357791
-0.00186497547521916,0.0143295326677191,0.0205337719125643,-0.0058609114953221
-0.00969239554402489,0.0075712471158061,0.0175570998672215,-0.00667285850375516
-0.0212460454596534,-0.000713466345620098,0.0131668929021088,-0.00586161070260858
-0.0151667210721126,-0.000949480665779934,0.00874268324604944,-0.0033850411785849
-0.0016731494221848,0.0159774508771911,0.00866050342188864,-0.000414116125202674
0.00860718296731645,0.0233777259845959,0.00619610316147275,0.00151713257084484
0.0126944348419792,-0.000578963932339221,-0.00213381377644357,0.00265868669828293
0.0122597356785276,-0.0283059388785475,-0.00723289740396749,0.00389977969316411
0.0159040806256697,-0.0364276566833336,-0.00609467420700087,0.0047445581050686
0.020092295509791,-0.0289779830002463,-0.0017535679367179,0.00417693991350602
0.0112931728700711,-0.0112668445395733,0.00434612391179809,0.00213953897853216
-0.0016604869317637,0.00941157371221396,0.0104651726820432,-0.000656455339821178
0.00335268731854783,0.02415669025564,0.0174291988578005,-0.00334938858915993
0.025640078764194,0.0277675189290454,0.0278337773633974,-0.0056896183420431
0.0130529189714992,0.00649249307578273,0.0338787489995652,-0.00752849277798621
-0.0899292352943539,-0.0168425033189432,0.0283433157324908,-0.0069535274220206
-0.199453144835176,0.0199329129602523,0.0270189841400825,-0.00343632974911106
-0.175648323579397,0.0992647688245304,0.0445124116955678,-0.00143950926061806
-0.0570463570006745,0.135579917582476,0.061217774089061,-0.00408964420481603
0.025331006311568,0.0976745852892098,0.0483357241049864,-0.00765444310529779
0.0559112801412553,0.0279297847699684,0.0169293457784865,-0.00723778030322776
0.0824064119177379,-0.0244499629570761,-0.00155425218601893,-0.00337665934211857
0.108518744529614,-0.0547707235124587,-0.00476404428114625,0.000218637179241981
0.117961730026044,-0.0722488351786813,-0.00423738946598574,0.00256322394590527
0.106052262365816,-0.0586491235285089,0.003454044605353,0.00471995126281914
0.0700216595910359,-0.00421893405587183,0.0232171336935233,0.00591528777024818
0.0168796799297239,0.0777654623247148,0.0451946933037759,0.00502822154943648
-0.0234479366564938,0.158284883440633,0.0583239245626286,0.00272841754947931
-0.0415337603728589,0.187392148101378,0.0591308866854491,0.000314280139095266
-0.0488441601371321,0.145831302737042,0.0442174876305797,-0.00108293423258598
-0.035386798568294,0.0707102643391609,0.0197256839729596,-0.001228752040548
-0.00780880531226079,0.0105450080348695,-0.001353870076156,-0.00084590155095223
0.00528007586433574,-0.0206513992077543,-0.016420794137608,7.11695772756199e-05
-0.00549857381461804,-0.0326125141545951,-0.0266994503262976,0.0020929927490136
-0.0333951116833086,-0.0341820667658498,-0.029405515858828,0.0042807734935254
-0.0624880912848911,-0.0349876914240917,-0.0234004865904876,0.00469301638357817
-0.0692063489095041,-0.0359249938336834,-0.0137313884425294,0.00302502170315234
-0.0443784322116004,-0.0435841535297588,-0.0125830591881265,0.000537044256012342
-0.0135233062180203,-0.0627849331595687,-0.0247811349549639,-0.0029311753847097
0.00395234986788667,-0.0739864661218623,-0.0359664066234361,-0.00876520202400717
0.0143501469666719,-0.0721542190423373,-0.0334993960989576,-0.0134993461823346
0.0102337590702352,-0.0602436983165434,-0.0243366469151449,-0.00871768324842436
-0.0201137977778275,-0.0354634222042058,-0.0211821286679185,0.00605050915967807
-0.0572122189375635,-0.0104702945275848,-0.0242060360193038,0.0188545914828463
-0.0625968089838525,0.00605695037191024,-0.0273110866854941,0.0198143151817286
-0.0338922699004193,0.0127637384295127,-0.0345376069079261,0.0109684141526968
-0.00644301550249493,0.0121706833559572,-0.0480058264735368,-6.49238248413807e-05
0.00113558624242049,0.00661762321998919,-0.0533157963151281,-0.00828933823498717
-0.014932228523906,0.00118975892149138,-0.0420386930675539,-0.0125508475566022
-0.0503881429737264,0.0116121179980342,-0.0272223358392732,-0.0141509461841441
-0.0688288339355368,0.0118908509501691,-0.0278833701736415,-0.01442583737986
-0.0533369347097319,-0.0196071287675671,-0.0426149697451563,-0.0124791287090314
-0.0308305788020364,-0.029808229777302,-0.0501190351010304,-0.00793582520938152
-0.0169419509246624,0.00735734706398007,-0.0428945661119919,-0.00369324725671746
-0.0166917339623702,0.029773700891522,-0.0337411974549816,-0.00233588028790799
-0.0202607769284976,-0.0207745317530679,-0.0336335062875565,-0.00241547762775192
-0.000680442984033205,-0.0955546823010244,-0.0371318077271718,-5.42519567321067e-05
0.0282444120655364,-0.110112860936865,-0.0306246948732718,0.00754017610593046
0.018138918167341,-0.0433080533825976,-0.0119152826050162,0.0187270362367547
-0.0370801545458969,0.0738650120900819,0.00393203152926896,0.0274825977544082
-0.0858729913767333,0.149079728844766,0.00478948732367491,0.0289262907752127
-0.0782642427117554,0.123961577704079,0.000108092223196556,0.0235133746941665
-0.0249101411590979,0.0745281116946633,-0.00271139985710929,0.0156382634779921
0.0191640783264499,0.0732729521283108,-0.0103154189219014,0.00826784462363674
0.0304559804314601,0.0755770187921571,-0.0224004737024634,0.00119408306343009
0.0361898145763767,0.0213042192499879,-0.0311729227359984,-0.00600229848999699
0.051811429551903,-0.0540688280493795,-0.0310563943680176,-0.0128418352124848
0.0605698836941754,-0.0857181675805789,-0.0247645770344275,-0.0181862237743064
0.0509859624275111,-0.0847261699391834,-0.0247994349898002,-0.020858554270037
0.00110762510626852,-0.0819969222546833,-0.0300374278432583,-0.0199571449070995
-0.0768725623879895,-0.0705045403869028,-0.0260914618042611,-0.0154502850164795
-0.105155025463624,-0.0445373841523284,-0.015355213556783,-0.00919458560480439
-0.068037516076143,-0.0181954231158809,-0.00887825145889652,-0.00334780298223312
-0.0209217100371163,-0.00278441340272217,-0.00553296277578005,0.00177998135355649
0.0180933190237772,0.00990776600746173,0.0012938203394615,0.00671682550385299
0.0599153499198055,0.0308985450136234,0.0111845867714075,0.0109379598940524
0.0954210709186712,0.0311574248342808,0.0177633674969237,0.0133246401234135
0.109976111364169,-0.0232043709229336,0.0154587825209185,0.013709101684931
0.0885678324846031,-0.07795331058501,0.00824391571910711,0.0132370947983942
0.0377497172036792,-0.071175807077496,0.00893458152004165,0.0130747912984123
0.00690053486067368,-0.0584930511713347,0.013884460749613,0.0125059598583338
0.00167311312735233,-0.0877693347064858,0.0147465486380455,0.0103265955070993
-0.0312527392120664,-0.091968109400348,0.0219683312918631,0.00729849567477235
-0.0993914861879125,-0.0390794230984241,0.0342277668869326,0.00440330312658428
-0.117436642076179,0.0173817963374342,0.0373965573626975,0.00181982760295574
-0.0327908553411984,0.0488302141631558,0.0344233095142482,-0.000128335493418902
0.0565027114367183,0.0742125620660323,0.0386638860858128,-0.00140205567795839
0.0707991297415416,0.123231378075449,0.0499913061690277,-0.00233814157133298
0.0750435413992003,0.177555702596326,0.0536673964409957,-0.00302334428749385
0.12084994966766,0.17948345710134,0.0444502206725054,-0.00298186743297744
0.146831603703304,0.123433259575568,0.0341983301453113,-0.00152736442679663
0.104840518998143,0.0736499209449815,0.0367557281398785,0.000750426011393663
0.0424704984314506,0.0680148762484813,0.0501976517190547,0.00150804492177532
-0.00337060138569083,0.0554670554646495,0.0525403945307794,-0.000512375471492104
-0.05560768700449,-0.00208710246241933,0.0356275127459947,-0.00374167115034344
-0.116671945693539,-0.0743376258061681,0.0126280295366702,-0.00567938471439241
-0.14054831845935,-0.135256654154885,-0.00898726104580007,-0.00445001336291268
-0.102986454639024,-0.165313650303926,-0.0206865553299239,-9.47460615536881e-05
-0.0313270879047599,-0.14571541357831,-0.0160098014971054,0.00451815963508921
0.0371846061254698,-0.0873088511864479,-0.00407886630180756,0.00564206009907462
0.0614804570855745,-0.00328347028389105,0.00173639411819628,0.00204840923223985
0.0345768927036653,0.0719497425750372,-0.00419997740997367,-0.00343493616620604
0.00424297622415463,0.0812709183718953,-0.0177213304166063,-0.00623254080047101
0.00433533296950213,0.039528639970252,-0.0297474152555886,-0.00418384177141759
0.0343552595189904,0.0232692795703665,-0.0308977560616265,0.000349447099395396
0.071189687831267,0.0472569140494322,-0.0216476292222424,0.00264576507279566
0.0824943305990411,0.0556654947430975,-0.01248013122868,-0.000181350251527812
0.0597901710015301,0.0359880892031878,-0.00897603685980864,-0.00767787010692147
0.021518761341798,0.023032296257072,-0.00786464746457528,-0.0166923246869664
-0.0143987918511132,0.0326733326050638,-0.00469549052003503,-0.0232979051571695
-0.0332576385783076,0.0501756689704537,-0.000594962421474284,-0.0260333510663382
-0.0347199931571369,0.0467958501998105,-0.00109710177929361,-0.0249140549933322
-0.0392073671042278,0.0262532102833832,-0.00100315853468341,-0.0186754747287024
-0.050924839162862,0.0269540543402435,0.0133837046160509,-0.00777405450812622
-0.0493368204773337,0.0436124654204509,0.0312722874968959,0.00343712243240471
-0.0330397963889558,0.0308112750131118,0.0306404671015289,0.0116235970855174
-0.0280864067426924,-0.00570041717680888,0.0130811753215985,0.0176035764772997
-0.0311490745829984,-0.029414574282749,-0.00737065602341354,0.0223838172996704
-0.0147770542626095,-0.0335790189724516,-0.0212819849047391,0.0243388754409919
0.019045487946854,-0.0288300369500758,-0.0275152607963583,0.0216746778537331
0.0485437280248435,-0.0302689007736265,-0.0322449963076966,0.014316030554041
0.0602266486954882,-0.0432711087312441,-0.0381959227576722,0.00350195670908096
0.0521379746550535,-0.0529444443820968,-0.0424279537384255,-0.00770657188762932
0.0387340622333696,-0.0446458930422425,-0.0436644281885904,-0.0151372245146331
0.0316541074105412,-0.0207046256780021,-0.0415086612214417,-0.0171051340343377
0.0187241853945968,0.020372586469716,-0.0351950065444927,-0.015895197932621
-0.00681458117597822,0.0816147012303547,-0.0234804945831628,-0.0149457890626281
-0.0272961124005939,0.103814331514708,-0.0147364841169751,-0.0158561302524806
-0.0239591935357848,0.0414417510389128,-0.0190562172387681,-0.01716606472724
0.00280873953899539,-0.0300623377401138,-0.0253444097825668,-0.0159160573279085
0.0347559189310699,-0.04293286205249,-0.0228219217483819,-0.0116006446970032
0.0501219941475975,-0.0270801483555091,-0.0189814291358424,-0.00639529973280267
0.0430497582380876,-0.0249917456921238,-0.0211735632120909,-0.00168790235103482
0.0362888915492947,-0.0329711518157012,-0.0275466982041527,0.00305698952052059
0.0513627698776682,-0.0297517780411729,-0.0308899833491195,0.00872739312234686
0.0687163813442277,-0.0182482213254324,-0.0256031723873547,0.0140767446308538
0.0569641729790697,-0.00541066089378041,-0.0135116486907978,0.0158847543764227
0.0213434933914489,0.0241467195316052,-0.000837704074565358,0.0132265897923619
-0.00624675807384568,0.048980372120255,0.00286003085470632,0.00883999565209307
-0.0105491574817478,0.0232787649513602,-0.00554390237162411,0.00577828484967074
-0.00751505150622764,-0.022187574789389,-0.0146936428543723,0.00475004263346851
-0.0100495865661732,-0.0388637961888511,-0.0162103168378084,0.00472755199086027
-0.0105771918298132,-0.0360920569735278,-0.0130004361466784,0.00507859603387162
-0.00203336977076439,-0.0356636915455341,-0.00955057405023793,0.00571381620521115
0.0123432280522574,-0.0458259526479278,-0.00808728936199029,0.00619162556371923
0.0239200553450537,-0.0631650926199966,-0.0123320486610211,0.00606954489354953
0.032759397172196,-0.0755319015590961,-0.0191751182763434,0.00553443386857591
0.0437510324036155,-0.0775069131949414,-0.0199745232555472,0.00491846742798775
0.0502619630033114,-0.0699351899287837,-0.0148383404396295,0.00415491322497865
0.0461305705667941,-0.0507971579660867,-0.00294171958985865,0.00315375516330788
0.0336553774513465,-0.0273315666077127,0.0113535004965142,0.00164779429168403
0.0205963398248955,-0.0141167453386749,0.0126435477318294,-0.000586201598026599
0.0186683523819437,-0.00341851890550044,0.00490002847415836,-0.00264344160755575
0.0272336786330773,0.025722947594036,0.00923480687886057,-0.00336871033036872
0.0199681840757097,0.0676234037275921,0.0259561233697926,-0.00347118384914035
-0.0240660709921124,0.095566971290111,0.0335868995689436,-0.00378260697350067
-0.0690053279323577,0.0879501212653883,0.0214819510321589,-0.00249998622468594
-0.0591461031242448,0.0579673835797957,0.00789832671721432,0.00126528471742483
-0.0102880291308622,0.0503529765477992,0.0143668735913826,0.00422232353970103
