-0.0590262979895327,-0.0870233631166551,0.00669390784646869,-0.00186349233155037
-0.0476497816422095,-0.0744832306511561,0.00151880738263334,-0.00118216417731845
-0.0314826132003698,-0.0552409458257993,-0.00319945440157107,0.000340373868339577
-0.0322316247490227,-0.0476386876479605,-0.00356602690086784,0.00161463741185479
-0.0393135038887175,-0.0507971448686439,-0.00101698609757167,0.00158777975113168
-0.0367397190603807,-0.0551963456990413,-0.000429159767579203,0.000645438911053116
-0.027987971569102,-0.053697430223966,-0.00235325545415416,-0.000124969825276141
-0.0188316778994871,-0.0398202775456504,-0.00406372577841965,-0.000361560945460804
-0.0101185428512629,-0.0143493072951081,-0.00683373126302414,-0.000306265001039747
-0.00293034047113196,0.00845676190722431,-0.00792360134275371,-0.000315607008727308
0.00414210374995854,0.0136358901145916,-0.00247098818763835,-0.000676946633128187
0.0154129424283295,0.00127465347635827,0.00391274282528029,-0.00152223654746671
0.0285492615637469,-0.0131513778654107,0.00997159226511738,-0.00230875105173527
0.0429138367276529,-0.0201381699866284,0.019868256681279,-0.00235887310600769
0.0655208859305542,-0.0302035146158362,0.0279106791710352,-0.00187843958089251
0.0791825058157961,-0.0483295158275609,0.0288196478413972,-0.00148980802704408
0.0613635151827276,-0.0620518605502842,0.0231592291362848,-0.0014159840626206
0.0303089558204163,-0.0590005067967906,0.0142953577247238,-0.00143664742115061
0.0127965421211082,-0.0400693619048946,0.00720705582547945,-0.00166371349505299
0.00905728698705577,-0.0209791892997441,0.00527236537697541,-0.00225975167353525
-0.00101274500827906,-0.0118409123204986,0.00622166743546086,-0.00257194444223319
-0.0267912574247753,-0.00313605735757532,0.00268384928247712,-0.00196279424868691
-0.0509700990880078,0.0174529963187964,-0.00769164738284399,-0.0009384572324768
-0.0662967838133779,0.0570881318083997,-0.0170168790939167,-0.000182115233232671
-0.0746728304515844,0.106796552074505,-0.0194047091162219,0.000409490273390488
-0.064089327720233,0.124738706508317,-0.0196357380906624,0.000889318760867008
-0.0377360823714699,0.0867680795101946,-0.0194870531504562,0.00118970705985654
-0.0104470885603878,0.0391741903220449,-0.0233912119564923,0.00134488818273449
0.0192975142739495,0.0348588578160598,-0.0368306876576354,0.00107684515182462
0.0498078878013956,0.053623699542064,-0.0480635592198655,0.000303201144325372
0.0655453555957126,0.0471876160621532,-0.049311266022525,-0.000664502839539937
0.0621574692372634,0.00151643854133203,-0.0418377057896351,-0.00151222861313711
0.0527460515407391,-0.0666206708136454,-0.025462948650535,-0.00204700527317709
0.0429789601054174,-0.108424708960566,-0.00704493718558921,-0.00236739755092694
0.0202178127367785,-0.0874678566318366,0.00746430861541304,-0.00246566730120242
-0.0169158230890568,-0.0330811678227147,0.0150484380119624,-0.00212975465454508
-0.0516441594464282,0.00149430130078219,0.0152111067976207,-0.00144590807321584
-0.0822210548945135,-0.0179775423060825,0.0108897451546967,-0.000767621716502084
-0.104001516060367,-0.0721692927635048,0.0066169430849557,-0.000507340471803894
-0.0876062463861504,-0.0930135576211397,0.0108697695502819,-0.00071276036017298
-0.0322847368142499,-0.0615897211871094,0.0203708691511491,-0.000909877188402367
0.020991858249022,-0.0237272307639714,0.025365128919564,-0.000753626300455826
0.0474986629130192,-0.00259068140676139,0.0256689563817268,-0.000372576528490795
0.0515835951707017,0.012814946190118,0.0226915462605296,-0.00011131958975243
0.0505244785494915,0.0225315549025529,0.0173219779150879,-2.1119450228673e-05
0.0584964885359733,0.028351574477169,0.0158462122996341,0.000143066797674911
0.0519917926569159,0.0338739421738136,0.0189405667486343,0.000382079468476485
0.009575136356846,0.0278793798540393,0.0166768116158786,0.000565977249031127
-0.0283655588215764,0.0231851141393071,0.00653047627941411,0.000868018454718066
-0.0238222929113157,0.0396905825265511,-0.00814675675278713,0.00170189043840303
0.001804816620275,0.0635675530000035,-0.0254368354224382,0.00320140312384556
0.0219518157440374,0.0775565049603227,-0.0385239575511495,0.00428632629332106
0.0353682169667812,0.0713165532164015,-0.0411735861158475,0.00319367861165379
0.045986856199243,0.0412743399002904,-0.0322043566147868,0.000136536283584316
0.0581281349757127,0.00153637400726681,-0.015133791714319,-0.00259260157366056
0.0613648540659034,-0.0333215167273029,-0.000588372582852287,-0.00362359171696445
0.0287106765382942,-0.0610509587477009,0.00516652103968701,-0.0033351233462398
-0.0449559860040752,-0.0730876777657925,0.00605689053573863,-0.00245098782285627
-0.106354172903353,-0.0583264748866708,0.00486767259579619,-0.00148190237380001
-0.0891569253285194,-0.027170495392897,0.00409292438899727,-0.000619553204567739
-0.0135954851087958,-0.00012195724719791,0.0064782184705412,0.00045507888227448
0.0376706990318038,0.0146722048064303,0.00658213480016845,0.00205394812124159
0.0399734426541895,0.0258557083463467,0.00205561952455858,0.00370406889797516
0.0290555333268482,0.0312749469878676,0.00326316034118098,0.00443519984866533
0.0187393189137104,0.00551843717259978,0.0154491910962188,0.00381654131966233
-0.00743642736751196,-0.0346941933544534,0.0277700556194473,0.00241264863248316
-0.0430961006096409,-0.0338819140264709,0.0308173637617879,0.00104091011494688
-0.0485789200949122,-0.00322120664596338,0.0272803816989676,-0.00018790941858863
-0.018191004318002,0.0138574923169038,0.0219719219477261,-0.00116393252812512
0.0130193707853566,0.0190345465906358,0.0175319096309238,-0.00121119832411552
0.0344245800301477,0.0248792273083249,0.0157250539230804,-0.000265567653438907
0.0483031083834872,0.0329738150959324,0.0158767293129087,0.000885755349152815
0.0424430861167511,0.0398215679178939,0.0150358604455665,0.00159062638175839
0.0234786560246526,0.0440027965223938,0.0120118425845285,0.00161654696396991
0.0144401067146494,0.0486576150604975,0.00753484297192624,0.00134625332670191
0.0178105734107782,0.052758960307885,0.00248398696171938,0.00129364567565442
0.0298632098725883,0.0520540601185724,-9.13291703246678e-05,0.00129698998459827
0.0493064222333471,0.0451456890030593,0.000239826811453425,0.00118768663310876
0.0629858098725747,0.0361623805472565,0.000226216473777036,0.000844188699514049
0.0635399053294688,0.0263949594292057,-0.00109744057886976,8.85112348475751e-05
0.0472169397491235,0.0112582374515063,-0.00228194786774843,-0.00065824214118768
0.0108749407795477,0.00376339705333296,-0.00135800627147659,-0.000787745284192257
-0.0246090140836768,0.0181732351486271,0.000464173526643942,-0.000302823390619416
-0.0346251710337385,0.0324107077039113,-0.000992824708583839,0.000256438518925355
-0.0267622013385673,0.0214323671040818,-0.00831488614192663,0.000773244713891157
-0.0274806358952124,0.00638511719019288,-0.0167255620455742,0.00157216844454655
-0.0601561766911432,0.0195192196168943,-0.0199527955147665,0.00180347599773704
-0.106441519784981,0.034195317842176,-0.0211968340779992,0.000524830013953588
-0.112280822008259,0.020280721247554,-0.0218231175128053,-0.000806048901880871
-0.0761083802473425,-0.00288477906215932,-0.018175733198105,-0.000524198436910192
-0.0404281241235073,-0.0238715168262439,-0.0138263436126152,0.00105911287571031
-0.0265691132762073,-0.0377140379075304,-0.0129785928968105,0.00303157703399887
-0.0269901489610956,-0.035443554765472,-0.0124917692456008,0.00427067086950348
-0.0212366373752821,-0.0291166447464015,-0.00861561292740446,0.00362999355675232
-0.00152424947291401,-0.029001143806608,-0.00295398126223951,0.00136883725084764
0.0226511904071268,-0.0297352399352532,0.000111289277904034,-0.00094709107226355
0.0374886142876649,-0.0272116442697732,0.000222341793947194,-0.00222468706902677
0.035627343453807,-0.0244880529234948,-0.00179749729078435,-0.00261169522011742
0.0248985919923013,-0.0265864563208369,-0.00449849601679354,-0.00236666997328229
0.0156818411247949,-0.0299323180945737,-0.00447986750068874,-0.00152840682246649
0.0107952206957982,-0.0262766685630726,-0.00206979007535657,-0.000435530160274671
0.0107537335170516,-0.0178585767947686,0.000933275400477531,0.00051859742542004
0.0132683235856871,-0.0147383008616713,0.00374095728248146,0.00106198931395851
0.0141802444807979,-0.0217521926946335,0.00629427640374863,0.00123708433033115
0.00670271031135571,-0.0257649453601451,0.00933333437830224,0.00131938821299635
-0.0128139718775659,-0.00994811439873236,0.0120689788913305,0.00108516544790377
-0.0331054197992614,0.00997857112381324,0.0129753528698123,0.000389956571080157
-0.0433017463267769,0.0163921585616066,0.0152047608649992,-0.000152799429257917
-0.0472932003259007,0.0152483626702265,0.0185002496865812,-0.00036762789163341
-0.0507922033541916,-0.00856565515096137,0.0152421111516559,-0.000235916178772242
-0.0586106829270425,-0.0729107172886839,0.00702222740027034,0.000560170714514865
-0.0761801326802428,-0.129777731523473,0.0017497941515698,0.00140580573979051
-0.0884646622448255,-0.114108137913525,0.00142520342487899,0.00157389939735565
-0.0673116314569278,-0.0432145143568436,0.00465938139164261,0.00126759838439212
-0.0223914269198888,0.0094773131930215,0.00785161193902918,0.000449327935813474
0.0090160215649273,0.00658105448260374,0.00989756950143174,-0.000887042010985963
0.0214617780913873,-0.0311243956757409,0.0113521349850632,-0.00197525361295185
0.0326246360641485,-0.0596970458533211,0.00775559463035562,-0.00226641317282942
0.0455208432048191,-0.0562480715716837,0.00373476660620811,-0.00201353972930563
0.051814289357189,-0.0437157390604678,0.00914448460351251,-0.00190732404935911
0.0462288949528876,-0.0467111205665323,0.0190314231392135,-0.00215699540284284
0.0397231853997327,-0.0594411866831574,0.0255248115004967,-0.00236262780595456
0.0415781902576524,-0.0571770182499532,0.0288466538557428,-0.00200742601861163
0.0340157776201977,-0.0197930789827576,0.0293589762164629,-0.000758774362512829
0.00691618176558634,0.0276443124964989,0.0268772415548136,0.000974724126671393
-0.020454854676542,0.0393853809886707,0.0223777558894771,0.00246287100894719
-0.0372611049008597,0.0196799936099654,0.0205313195852859,0.00313842672772383
-0.0482726822303204,0.000555848804790558,0.0251977496061718,0.00243792637663451
-0.0490628028243681,-0.0143509102739491,0.0285184450363129,0.00062705672346161
-0.0348893264352363,-0.0305573397619639,0.0243614567575378,-0.000826302968432589
-0.0157528232277243,-0.0382097984222049,0.0191204633321764,-0.000663547702034509
-0.00813045369218637,-0.0248364110350432,0.0164243942728134,0.000634032251236959
-0.0162844293560216,0.00692398145542575,0.0128122580209931,0.00150787212480595
-0.0151181060234643,0.0335439596724979,0.00937209759844579,0.0011670513665196
0.0246053831228139,0.0268578702773909,0.00787405923097172,-2.75768614751018e-05
0.0835877971661533,-0.0119968720416822,0.0077971535868378,-0.0010421830156463
0.115932884713751,-0.0461605913648029,0.00929734483822682,-0.00102844817626246
0.108144591261947,-0.0476426977411452,0.0106414411761352,-0.000146870993852178
0.0712908617524926,-0.0162892679784059,0.0133291867155197,0.000648009581284964
0.023037867453615,0.0214265156299752,0.0156703721949663,0.000298656332943555
0.00168734976066191,0.0126414847900135,0.00978586679107323,-0.00127913702256629
0.025288572665985,-0.039394295182855,-0.00258443815476914,-0.00263520148405931
0.0451847407934725,-0.0705006234400009,-0.0114135986284302,-0.00237224327200651
0.0152456750356212,-0.0562574700080212,-0.00978142660489341,-0.000656407458349693
-0.0203326954348546,-0.0200161060900566,-5.25670028747559e-05,0.00127316451233704
-0.00310806734449348,0.00778133701261734,0.00710487678587795,0.00236778222758432
0.0349810213548298,0.0152043714395718,0.0051928416054494,0.00268536864990937
0.0402581985119474,0.0197906579366636,-0.00558408863558695,0.00310288367112648
0.0166863366969803,0.0451047081275182,-0.0174137672926492,0.00362220646838053
-0.0134634108621387,0.0785267350162612,-0.0201635259730934,0.00312157076012146
-0.0538402548332805,0.106603016452724,-0.0178713630028313,0.00169403952814142
-0.0904080526070497,0.13639383072909,-0.018896109685369,0.000757657229936286
-0.0712820431536268,0.129170307221258,-0.0223349684474686,0.000741841409031668
-0.000660017812995933,0.066654943221793,-0.024281915666668,0.000950669012421943
0.0458780604953364,0.0122900156361614,-0.0243084204337827,0.000930031445079196
0.0357266325700158,-0.00532678641477299,-0.0234223686526147,0.00072692889598616
-0.00398385153763743,-0.0138442592362644,-0.019602410569585,0.000522454753057034
-0.0425835849239935,-0.011674348957816,-0.0130546500168493,0.000475963570472386
-0.0497041034498198,0.00115220204959824,-0.00820047580637487,0.000777155768233908
-0.0148224237796749,-0.000577847074221632,-0.00690613554930162,0.00117237783919361
0.0320244960820081,-0.00848506073437069,-0.00686028309991229,0.00103067367195655
0.0569991313345197,0.00481419161645671,-0.00618540932000752,0.000389289165384889
0.0549365673948923,0.0372663286355877,-0.00839941009824255,-0.000238270703284091
0.0382936261718346,0.0573586619298492,-0.0153621467177722,-0.000439211441655483
0.0205740346599278,0.0504449736886216,-0.0203001117098808,-3.56368443609778e-05
0.0138696456224112,0.0363204475592957,-0.0203909532778004,0.000876458207432657
0.0175290376445966,0.0298747700539345,-0.0195722262306904,0.00183630943990875
0.0129483718424469,0.0321238780864751,-0.0173018736764434,0.00217633655128804
-0.00997197789951466,0.0372014360992615,-0.0141075131917744,0.00173688091024572
-0.0407696350195551,0.0338834484108545,-0.0128106522354507,0.000846592024936249
-0.0663948444214684,0.0241359941946303,-0.0122337946503661,4.04729889790348e-05
-0.0806396376664194,0.0232375580737114,-0.0109843695934348,-0.000233719906043388
-0.0837183416673784,0.0345215972807104,-0.00703250862392336,-0.000141499292406303
-0.0748016231119941,0.0430110927493358,-0.000806314319928403,-6.8964594531778e-05
-0.0456301078664392,0.0344057323223197,0.00137107080295617,-0.000246188213767859
-0.0073026140284346,0.0145338171479395,-0.00343322457856814,-0.00074021959574757
0.0079386728043506,-0.010273797960078,-0.0104858515500074,-0.00121270977076755
-0.00476717178202483,-0.0487209910665473,-0.0192816050310869,-0.00148542296293144
-0.00626200782565184,-0.0746192998144703,-0.0318861752018874,-0.00164245490260216
0.0246497638995234,-0.0490725817088224,-0.0397130856979951,-0.00124521365626653
0.0531316248642792,-0.00384015174071217,-0.0357916739262144,-0.000134127414559159
0.053106148096917,0.0133788180474406,-0.0259538738753785,0.000917894177285781
0.0365797783460133,0.0117218705705015,-0.0188971966793433,0.00122267612020204
0.0217855054696954,0.00906484769541496,-0.0163331236549947,0.000693880768305347
0.0134387479692123,0.00717290348972786,-0.0160451709406503,-0.000319874370216725
0.00210678801806458,0.00768647110692072,-0.0146445958406612,-0.00136489876781801
-0.0125317609834157,0.00597300685969176,-0.00908717340368253,-0.00221897607505384
-0.0261443704820301,0.00373215792524807,-0.00322607323965068,-0.00264637618912113
-0.0323045643108915,0.00162337169915146,0.000287167785956919,-0.00234551916299603
-0.0185597037308994,-0.0096037601797029,0.00520730127160925,-0.0014042233137346
0.00289452896881466,-0.0272067190309925,0.0132082492264094,-0.00032437447443776
0.0177179841195963,-0.0399399337432756,0.0210857705454655,0.000207493542811402
0.0351768198685022,-0.0426418020421318,0.0255489144871395,-0.00014036193147399
0.0596127070851622,-0.040141166298461,0.0277915011993691,-0.00102175143225754
0.0800225359831883,-0.0410269811712243,0.0286960234122803,-0.00177845045621603
0.085858351073131,-0.0432869303029117,0.0258764392987121,-0.00213391726862206
0.0747016840141399,-0.0441365085202327,0.020476548369185,-0.00225173611912566
0.0563156614668725,-0.0459498715491252,0.0161020060812732,-0.00214222826870413
0.0487476758742862,-0.0472160617691466,0.0142077903636484,-0.00199382663529507
0.0440904050706639,-0.0556319184726016,0.0169887544078624,-0.00206783725750847
0.0171944063246452,-0.0810963296571114,0.0197000944918933,-0.00214129002481026
-0.0310687188733591,-0.0968238101367324,0.00859460829594998,-0.00176417008866368
-0.0759570222948535,-0.0829618037700459,-0.0120181087594169,-0.000472660460394468
-0.0979295364566581,-0.0654239843624858,-0.0198569598848304,0.00142003154459078
-0.0827605400796433,-0.0407330445789771,-0.0133018882000699,0.00232904939134544
-0.0272112003225003,0.00135416361021215,-0.0099411444705847,0.00130396076163146
0.0273274691446301,0.0298385771292921,-0.0150147851843151,-0.000576346102044102
0.0406386532967841,0.0341346423888489,-0.021457332287995,-0.0016552519622384
0.0303206782614521,0.0392295309771481,-0.0253345824242433,-0.00128619436630952
0.0263088510947372,0.060484858062799,-0.0236267365803055,-0.000212928151589253
0.0328315739550504,0.0814277232115124,-0.0128393789302673,0.000247610266672668
0.0400089442522382,0.0722487295803473,0.0035132139477797,-0.000372503584494757
0.0401567660815721,0.0317611249806986,0.0191685091238247,-0.00160477406848866
0.0369115406116472,-0.0115533874945932,0.0276121175554015,-0.00267530821408849
0.0315201058764395,-0.0409827800584524,0.0257031693674448,-0.00292532704774519
0.0169952163975985,-0.0558681695150099,0.0215291742464368,-0.00236745836025614
-0.00555795627059057,-0.0597315612971067,0.0232952795817402,-0.00167361624765806
-0.0263401715191281,-0.0605226142181102,0.0266880693615711,-0.00130835512877094
-0.0420502349220401,-0.064854222555628,0.0241915653122064,-0.00105217183014426
-0.0550777048687629,-0.0731037749037342,0.0191013374073425,-0.000654218634847316
-0.0584735617977856,-0.0770299676082008,0.0176460469932555,-0.000253351431914605
-0.0454713876551028,-0.0672407726665161,0.0178940437836744,-5.70039621599319e-05
-0.0358655464949792,-0.0353502331046809,0.0156712526789613,-1.23970774354182e-05
-0.0465843195000342,0.019889201297953,0.00765671939204767,0.000269991113501169
-0.0494049984387225,0.0686047121536543,-0.00495594186077071,0.000913767155458644
-0.0200531557857662,0.084658856715704,-0.0117874293923207,0.00163624443227501
0.0182973265275162,0.0884930581517551,-0.00932126308859268,0.00215630112691012
0.0314007282777384,0.0997517238034641,-0.00906024767953959,0.00206241790622736
0.00833464754157083,0.11061893223245,-0.0202293321247929,0.00143139156750318
-0.0229256978745777,0.106569046792332,-0.032644162600639,0.00101439090452212
-0.0296017969590723,0.0909181585582623,-0.0287153262819864,0.000872861159260348
-0.0254616794650503,0.0828236794967996,-0.0139290734928927,0.000281962646509061
-0.0373732589819998,0.060417195825429,-0.00272270702711301,-0.00102239449357524
-0.0602323950785488,-0.0134857190132633,0.00511119035201803,-0.00222846796923472
-0.0718402399298852,-0.0977623211403464,0.00795367626128878,-0.00239416361260092
-0.0592754754154249,-0.113662714693325,-0.00179086216763589,-0.00198182842118634
-0.0321882447706635,-0.0719443694593407,-0.0163570961754761,-0.00191837716153418
-0.0104570896228862,-0.0348403677998893,-0.0200078066100041,-0.00210827185672394
0.00495904892997232,-0.0132159421067897,-0.015519072128243,-0.00221499796272787
0.0244893029767521,0.00524436668877351,-0.0135554313891846,-0.00210702163140296
0.0497397977341903,0.0213608740591254,-0.0156241996084673,-0.00147283546920145
0.075870095411955,0.0321873606113977,-0.0194172943836001,-2.63767019668109e-05
0.0834339135823771,0.0294518067526398,-0.0217373506720544,0.00202868183710273
0.0549895203451912,0.0154072153305387,-0.0219310896711543,0.00378492389425662
0.0114791032995838,0.0143802390122238,-0.0235348649928345,0.00432271984022461
-0.0186363315028247,0.0379741812250566,-0.0278466927672917,0.00366538710830153
-0.0339915016207867,0.0670226452058038,-0.0314804880722474,0.00243986511422354
-0.041157299793644,0.0792976771474291,-0.0294411400947509,0.0011988400960776
-0.0450298381595211,0.0688510249290625,-0.0203018582079118,0.000214563598862754
-0.047893962719815,0.0485234535233041,-0.0091415470998846,-0.000541634613010007
-0.0513283709655464,0.035582563260798,-0.00347024947212889,-0.000984469361220987
-0.0602821813094565,0.0323213482996494,-0.00203768589282211,-0.00108548218799121
-0.0557749586773306,0.0185574452538478,0.00155987387170961,-0.000843232950663918
-0.00810067530724545,-0.0179844841578413,0.00648729741134473,-0.000169413859450089
0.0665003615878766,-0.0428311250068951,0.0105775943236682,0.000520923936761981
0.119322550822405,-0.0191827801683783,0.0158112459028424,0.000457618164289244
0.120758170951553,0.0279062734892496,0.0206708701429577,-0.000998093039300433
0.0855798770972363,0.0459499958820738,0.0203904423760916,-0.00323985070214599
0.0518169167140053,0.0340885328934018,0.014340265239738,-0.00437140481319871
0.0326796220453943,0.020316266808125,0.00513837257004764,-0.00350425630745821
0.0222039663074895,0.00768965924881913,-0.00292093212424794,-0.00137126746441627
0.0211744795520978,-0.00858666086558616,-0.00626205859061287,0.000960342437321761
0.0265084091809004,-0.0217173924033048,-0.00600387961530962,0.00269432821389758
0.0264739306668102,-0.0145186188892049,-0.00820657034163656,0.00358146002577541
0.0158374013525715,0.0161615112408783,-0.0132382326727084,0.00365292347217625
0.00957962419503131,0.0439829754621946,-0.0101436244498398,0.00278863781339684
0.025452732686277,0.0538617607309913,0.00397052774475285,0.00117898061233876
0.0561389260969957,0.0596790778654111,0.0153836424042959,-0.000418555425420463
0.0754556680294101,0.0625703759190922,0.0149612374252029,-0.00126186754028514
0.0729656910735562,0.0367758886251978,0.00960146758657426,-0.00100447292500159
0.0684108472017379,-0.015410268054765,0.00754386717373124,-3.73039416765543e-05
0.0749524299485401,-0.0467893605142465,0.00717481307026732,0.000538132366961356
0.0738515732433766,-0.0388360337717225,0.00465272187366017,0.000166371875224996
0.044140092492365,-0.0277852707730244,0.00305037332722377,-0.000579226432353748
-0.00576060159440542,-0.034939378409176,0.00600213592297036,-0.000790494099460951
-0.0558415051062196,-0.027457962137986,0.0107799665786326,-0.000381302976819941
-0.0895732805971265,0.00112255384890941,0.0126298299837753,0.00015260412149188
-0.106318224454658,0.01803900796658,0.011210690283905,0.000676360322815856
-0.116911682531446,0.0168584460846646,0.00872875814360142,0.00101185322129197
-0.0935612561488566,-0.000226208326741681,0.00797012864293298,0.000800285099245677
-0.0161645362802137,-0.020551301015763,0.0113277620562391,-0.000245068576574959
0.0623468674225624,-0.0280280880944032,0.0128531342134175,-0.00183547404061609
0.0969338834797673,-0.0300556726157433,0.00906184372504769,-0.00275091654513872
0.103063531673691,-0.0348434773609326,0.00810270379507638,-0.00223293202344279
0.0934347676401669,-0.0395195111884655,0.0121869771772529,-0.000805256154450527
0.0600538030336634,-0.0296062666392853,0.0124175154053354,0.000728361915088601
0.014973411236919,-0.00320680664782245,0.00496375954133896,0.00198065788285842
-0.0189961580167134,0.0088118369276657,-0.00273684716599445,0.00261504670391539
-0.0432793190592997,-0.00829200012790169,-0.00607716251510253,0.00230812697287321
-0.0552382535040752,-0.023702158293271,-0.00731200472474237,0.00128886960916536
-0.0382113477304995,-0.0176787247570573,-0.00617208329525387,0.000413097391359731
-0.00288665720688659,-0.0169254379175951,-0.0019606282494537,0.000307659447131046
0.029416892388981,-0.0350922664305407,0.00447818609394012,0.000640512716028794
0.0480820712267597,-0.0486231608600747,0.0102477075627604,0.000655451370161779
0.0431336465813399,-0.0490604714563625,0.0133690854256339,-5.0257052955133e-05
0.0120807821767789,-0.049179780138596,0.0161243573798343,-0.000992659260996861
-0.0325946186973552,-0.0517823765581368,0.0168429135562682,-0.00148065593642879
-0.0628663781056162,-0.0483730728804815,0.0136376699769113,-0.00165514149963345
-0.0671944022908677,-0.0370098534632856,0.00981850930659565,-0.00168584490015428
-0.0654665378337918,-0.0289323165451634,0.00953698247733192,-0.0014290560908932
-0.064006050686653,-0.0248417731781543,0.0122040135969472,-0.000838506866123678
-0.0531701039200302,-0.000886289503621829,0.0115793260920293,7.60696336265985e-05
-0.0290042748300173,0.0460262830804786,0.00641946005184187,0.000911310141100183
0.00988581939129923,0.0733339696183751,-0.000307268000319542,0.00126037967087215
0.049507259769543,0.0599900776926516,-0.00674890994787305,0.00110157729694652
0.0657423285294847,0.0300606645207748,-0.0101188143837552,0.000595974144550909
0.060467290364728,-0.00392687780449071,-0.0181118145047889,0.00015275361544703
0.0415825030215552,-0.0473618734389709,-0.0378927327892675,8.21759772417028e-05
-0.00134945140531303,-0.084499116597042,-0.052202847513242,0.000266745860388174
-0.0650569821424282,-0.0795119587250699,-0.0478095260570627,0.000530864585322124
-0.117461138053305,-0.0336399492861115,-0.0348617927523312,0.000792558182703475
-0.122837848969343,-0.011104086027596,-0.0228852271309728,0.000997347009455804
-0.0885388756748373,-0.0497761781022201,-0.0152678317234845,0.00125348920124571
-0.0466345195083863,-0.0776060709014752,-0.0138670845465488,0.00132171603639898
-0.0091203993213804,-0.0471884265577934,-0.0115338383708993,0.0010585544970434
0.0169451071684774,-0.0279909536458101,-0.000624499025733458,0.00130270311396885
0.022176031920251,-0.0272481357161724,0.0156645058801686,0.00175969580684206
0.0175918149433153,0.0168175022799428,0.0282788118699674,5.12134397824887e-05
0.0242559809728079,0.0679351564811077,0.0295737020451084,-0.00391510192481346
0.0387836656804501,0.0786904299251416,0.023358896429006,-0.00649301839698499
0.0434972516312704,0.0675068461420087,0.0205024735755826,-0.00563138075181599
0.0365770644177397,0.0422826610313417,0.0229284546099225,-0.00297505657622612
0.026247033670941,0.0095596296724264,0.0260025029871944,-0.000551070275172125
0.0150439646668278,-0.00672877053845479,0.0265116689504326,0.000939447603112696
0.00176344309671272,0.00913075334150394,0.0220321552491989,0.00160690548055148
-0.0144637448219151,0.0318298228780347,0.0143651574612913,0.00187457690906024
-0.0308087093146134,0.0217088791005711,0.0106923816362761,0.00214689929437069
-0.0354068230676156,-0.00849206841757483,0.0131188354393657,0.00246263235510071
-0.0233857610966599,-0.0301041259831181,0.01673203913119,0.00268401949188559
-0.0111383783622077,-0.0480348756358117,0.0174999186821906,0.00274947339729353
-0.0149315032014603,-0.0653870554944496,0.0126126843643135,0.00231048824875585
-0.0317718773542538,-0.0616147268656018,0.00322219620186835,0.00106795942872174
-0.0450255940486238,-0.0264684528959801,-0.00483624498900152,-0.000439650554988004
-0.0416493792121139,0.0213174703517785,-0.00717915054536305,-0.001355142939617
-0.0251355193990741,0.0559587494428051,-0.00259903729279991,-0.00159594464791596
-0.00640585935670396,0.0667494404833781,0.00478559721631494,-0.00149654852363894
0.0138922430315841,0.0614098218519747,0.00841324062629078,-0.000985192275966812
0.0270511295694505,0.0466760771740366,0.00631367963316683,0.000147602168915925
0.0168772385020119,0.0116432218330454,0.0040268284840902,0.00160688414455829
-0.00523665362182965,-0.0341091642557698,0.00942472595936982,0.00246765226087317
-0.0179208857273903,-0.0516677634926721,0.022096491536505,0.00187917861971498
-0.0209577389170326,-0.0421943941798784,0.0331138281980393,-9.96353612522059e-06
-0.0228334462863265,-0.0385119180901041,0.0368311875276038,-0.00215982433813948
-0.0194616870667708,-0.047546936307997,0.0368621926976905,-0.00303442968133489
-0.00860017225874946,-0.0550400430284177,0.0361964503539366,-0.0018447404259979
-0.000632693809979018,-0.0413966028753379,0.0341184655295375,0.000389107969441454
0.00279888627384475,-0.00414494090181011,0.0300465477539329,0.00216198712755434
0.00647346697549392,0.0300894794441708,0.0242136127451015,0.00259323845638103
0.0109839172510183,0.0421384385236906,0.0205787226412379,0.00180545359777755
0.0134114905802673,0.0404145432867414,0.0187044009098496,0.000825470901676611
0.0115119988642081,0.0350491087493315,0.0125686883339941,0.000445760540568835
0.00901465609781191,0.0174908662399609,0.00319433558354145,0.000428856307839303
0.00383862181762407,-0.0269689553413073,0.000184358061006985,0.00025729012650547
-0.0060614114943746,-0.0742724201835373,0.00811799452667223,-0.000101873379491302
-0.00987255304812543,-0.0779048415980689,0.0189740849690798,-0.000622096898644084
-0.00452929377368518,-0.0501230255175079,0.0263380595315317,-0.00118672204365591
-0.00128402567658565,-0.0323430198967644,0.0306207449678253,-0.00146327211662984
-0.00456573110791872,-0.0218831873040845,0.0303608130096133,-0.00127439559062736
-0.00683066788399358,0.00336042653338059,0.0226510721049971,-0.000759759428285712
-0.00434865306048164,0.0432344630636189,0.00662711955726982,-0.000264622976667649
-0.0098695098525751,0.0873440483843006,-0.0133917802604969,0.000137881523147765
-0.0328448823394435,0.13954015884833,-0.0314001756521574,0.000592451478294335
-0.0508127748638738,0.181863012821226,-0.0444616132501056,0.00143153596280266
-0.0367487001098738,0.164837347394491,-0.0463449233106946,0.00265400171792704
-0.0107489466758239,0.0801016727154639,-0.0354070209139776,0.00324221857240817
-0.00674014128254837,-0.0228605067564465,-0.0202163803941824,0.00248130191785231
-0.0184242075165808,-0.0826144177500765,-0.00811207052188608,0.000772704708333685
-0.0284344062349849,-0.0913238842154329,-0.00288156080874157,-0.00091562631543475
-0.035986420725905,-0.0978427717034077,-0.003649447166226,-0.00178747538476492
-0.0389895891673142,-0.113174301553032,-0.00584942328136198,-0.0017855365155552
-0.0289379788885691,-0.0951492698390317,-0.00583931210346136,-0.00127580076131128
-0.00751360669621839,-0.0443549220207124,-0.00524027915245465,-0.000544638829792094
0.0143838191833402,-0.0162581839526779,-0.00921940455060743,0.000321625043481017
0.0343987293864815,-0.00867754197118221,-0.0139832529717054,0.00141325055887745
0.0601561246515993,0.0238831264424079,-0.0124332757990261,0.00245419405851183
0.081132987892621,0.0680526739839413,-0.00635957738899369,0.00253405797628875
0.0794570299908987,0.0752138369566387,9.7512544875087e-05,0.00087534906861767
0.0556571006632587,0.0406597862878952,0.001455148174849,-0.00182243669905556
0.01257876822433,0.00963634572674828,-0.00458691669820288,-0.00374587760798167
-0.0330659861019419,0.00422772596396534,-0.0102460751543916,-0.00394914604500381
-0.0564241603604125,0.00991305410454065,-0.0116470156731228,-0.00268293194512685
-0.0557430339208129,0.0179424792037993,-0.013153708089751,-0.000884178527170219
-0.0527708539836598,0.0304305460596756,-0.0161019137013425,0.000434435589319378
-0.0743973758951998,0.0455572349485504,-0.018443178846426,0.00104986295989
-0.0965060604450823,0.0456452329182454,-0.0183173753183568,0.00123199495741727
-0.0685276760299631,0.0260482355588507,-0.0159722889351447,0.00110450394154345
-0.00594419503923174,0.0128324939596179,-0.0124005392633908,0.000941462441891351
0.0409665554574067,0.0163165558796026,-0.00780691721586038,0.00115435147716293
0.0504569586139733,0.0213937245253041,-0.00338002430012823,0.00164771743110997
0.033286030914151,0.0211638369614804,-0.00062649148187832,0.00206530101590918
0.01346305848018,0.0179528886893736,0.00060652075523372,0.00210467525178188
0.00568194630260359,0.0113273435953372,0.000785174719630875,0.00123482705215166
0.0101588821541032,0.00182134511012065,0.00128651670913954,-0.000411666131896593
0.0177840902313217,-0.00285290921573699,0.00647703872454438,-0.00185816045238647
0.018753414069176,-0.0023569557744593,0.0127763636804893,-0.00255722750408165
0.0129804088713112,-0.00933379567433018,0.0124695145471088,-0.00261671797673685
0.0138311831491112,-0.0197827398432007,0.00742391448286323,-0.00208569477645676
0.0219783183090652,-0.0226801130551352,0.00501743684066709,-0.00091073473894798
0.0193713333018563,-0.0217711165065056,0.00833348058834891,0.000290131651940534
0.00597045365445938,-0.012261948783646,0.0125396073143222,0.000906090330608577
0.000118310206670112,0.00599515204619922,0.0123266455919122,0.00111964055147394
0.0034605059246861,0.0167032872940703,0.00757912567630701,0.000939504161391508
0.00230856960378813,0.0202638397101516,0.000805328050206394,0.000338717859947511
-0.00938472649105681,0.0293210092878094,-0.00607267624733662,-0.000187931318582187
-0.0140746939684593,0.0362485555304244,-0.00863498306863512,-0.000468691446229457
0.00997379546234484,0.0247449479826556,-0.00154579578199265,-0.000614881444968132
0.0437199217266516,0.00174607429699259,0.00988738570714609,-0.000597746504169858
0.0541946682342469,-0.0138598339750582,0.0148178420332734,-0.000514712108193206
0.0448786146632111,-0.0171822760337199,0.0134505206731943,-0.00030447341678594
0.0361185485243732,-0.0190773209334221,0.0125900508925324,0.00010499223338436
0.0337728889608129,-0.025794956443073,0.0139716329875905,0.000175982626633817
0.0284810732310086,-0.0290195559983376,0.0131614993515455,-0.000952510632116605
0.00250231128253724,-0.022800382475658,0.00780267833900767,-0.00332171342193269
-0.0465590362189012,0.00377728615926343,-0.000432124674177797,-0.00542156336640781
-0.0760416719341201,0.0446753435694037,-0.00792326873728205,-0.00562243731929474
-0.046484424603704,0.0592275738274102,-0.0070473071363526,-0.00398508388305219
0.00827543902937149,0.0335280522113341,0.000116337875203078,-0.00202161131162895
0.02807741164684,-0.00968475795111904,0.00488349095767541,-0.000911771438679828
-0.00472039714845221,-0.0451167108377105,0.00622376530269074,-0.000234585380659696
-0.0698064091168597,-0.048151331545711,0.00449149266164459,0.000846448608449278
-0.11777985220183,-0.00398765540958652,0.00278480477156724,0.00254825553504131
-0.0895582540157249,0.0494355722065805,0.00389459170027342,0.00587602721432814
0.00454069653218203,0.0561639357588342,0.00269677568451813,0.0119218816850529
0.065334138801435,0.0360848004250119,-0.00315438120070388,0.0178592823623277
0.0326314031780259,0.0308923560221988,-0.00876737181686856,0.0180249007950019
-0.0187687804259434,0.0197674439628329,-0.00983397634165515,0.0107330094461276
-0.000290455511022593,-0.0105645172023301,-0.00649926831615231,7.27536470413979e-05
0.0573343197861686,-0.0238226807454909,-0.00279361589967765,-0.00861993078785784
0.0930484655291802,-0.0162804254922474,-0.000211724490846966,-0.0123630918329363
0.0931653898024264,-0.0154321084450148,0.00280833393102263,-0.0113364907543509
0.0632453670910539,-0.0196235325132897,0.00463495170697744,-0.00793025447737726
0.0218747540696181,-0.0183879046501228,0.00417173096432664,-0.00451601575422273
-0.0138746287394978,-0.00821363115157384,0.00289973438685384,-0.00203167373556789
-0.0455632723076275,0.0178352175701959,0.00225563062147667,-0.000447809906998145
-0.0777182220166962,0.0425204802932122,0.00359558861798775,0.000502730690902526
-0.0949329359870436,0.0416536308966043,0.0064521833954931,0.00115929890661803
-0.0800258460134207,0.0315575787526415,0.00745385830764935,0.00168906015358363
-0.0460148819416993,0.0307844089708831,0.00504793094451244,0.00205361872436906
-0.0248693896829093,0.0262519818766413,0.00123989960757639,0.00249208190407634
-0.0313750222086714,0.0129085316852023,-0.0018630512341557,0.00332132541765627
-0.0451328355646957,0.00904820669341052,-0.00283707699497345,0.00427222211286206
-0.03619615121542,0.0184828702514575,-0.00255240567329657,0.00469586078798087
-0.0129092199148621,0.0244334061295204,-0.00136190187658566,0.00439467361927735
-0.00559103753677366,0.0228205200789139,0.0011977277618897,0.00385606371972708
-0.0139997352804841,0.0241797129850498,0.00290845800560013,0.00359495425383505
-0.0191024533505775,0.0329062984507566,0.00351799172098386,0.0039302048425353
-0.0158489974089182,0.0435618688746909,0.00581314687126997,0.00478176830459153
-0.0136626797979774,0.0431206500440054,0.00840953721917393,0.00536523884634659
-0.0101732654028968,0.0169821411696338,0.00915541908753139,0.00492413808095604
0.00313858738061393,-0.0206401342586879,0.0101011619879611,0.00319896026429795
0.0133702740295717,-0.0300741215357659,0.0115809046775042,0.000564581546845687
0.0140066586904641,-0.0146623202287257,0.0142052147451749,-0.00183272372659877
0.0113751568185544,-0.0127117803804698,0.0133991439063235,-0.0032291106214515
0.00857921496493506,-0.0272316420707528,0.00292075227268628,-0.00387921398335037
0.00996484268040959,-0.0333851166765166,-0.00795341491374092,-0.0041360960811329
0.0106661692948194,-0.0266530862269489,-0.0124795334727322,-0.00422991035871428
0.0020454107945379,-0.0273157254094714,-0.0144376893764406,-0.00433237407915422
-0.0109230455372164,-0.0362173991370662,-0.0133976358446902,-0.00418973428750054
-0.0189931948610823,-0.0276935140460978,-0.0105999019802272,-0.00351240630751472
-0.0234038183564394,-0.000372389842357823,-0.0121236770231414,-0.00229027685540084
-0.0240768449075101,0.0207594638447533,-0.0190684165241824,-0.000935639381282604
-0.0211042719391345,0.022892687859443,-0.0272976622543742,-0.000239737291752024
-0.0227443139083256,0.0228906623458309,-0.0297029315044245,-0.000538044788042594
-0.0228480475600984,0.0394276391551288,-0.0217285164520208,-0.00128980605596778
-0.00834223660786792,0.0497919316786836,-0.00963726210498669,-0.00168610561276162
0.0119657444457362,0.0348707640097752,0.00110819985594372,-0.00160179892486054
0.0229020192700207,0.0146878831741963,0.00731292397320169,-0.00107565333750655
0.024418532027561,-0.0012389236209229,0.00608034489673802,-0.000126573131483156
0.0241793311663288,-0.0189052308555576,0.00185900251048218,0.000601033766930478
0.0222588617254115,-0.0315859535121652,-0.000589306021914367,0.000735330350985353
0.0143676872396083,-0.0234994255472493,-0.00182582878052684,0.000406297226528935
0.00357600466836232,0.00265294302371586,-0.0048808003404187,-0.000303108051177466
-0.00904739157621058,0.0152880128264166,-0.0098707843419057,-0.00107055834572062
-0.0204315311211055,-0.00444362771881468,-0.0157254850639541,-0.00146025149076964
-0.0172328202285023,-0.0472796313925182,-0.0195238906403475,-0.0016467808836995
0.000602164783784328,-0.0926279172271945,-0.0176599583037235,-0.00246325256156084
0.0141173783413715,-0.10550371540729,-0.0143834724687796,-0.00426900086942352
0.00713747332310452,-0.0659886439142012,-0.0155031913667617,-0.00618360875091363
-0.0148562917418487,-0.00196731256772292,-0.0183097731496218,-0.00720827703073861
-0.0217872885307904,0.041127273883549,-0.0154862159264835,-0.00721197775767699
0.00135396998551287,0.0447449147512038,-0.00723669339475535,-0.00638353759780252
0.0310436332087209,0.02618460700135,0.000967812266016773,-0.00484550630027753
0.0435216930408013,0.0064340264328402,0.00696688805213982,-0.00273048244855199
0.0358253297948558,-0.00686935485366263,0.00800242630969545,-0.000150870128960236
0.0185855401458593,-0.0106591902865937,0.00523293610291079,0.00289412339850403
0.00511699404160519,-0.00697445887024178,0.00332097239247697,0.00690719192705716
-0.00434395013047665,-0.00305493005727858,0.00202832718196438,0.0114836145371738
-0.0130283330540864,-0.00424181238819847,0.00132370756556126,0.0137545198303966
-0.0195123703972154,-0.00632377259156384,-9.74942051780864e-05,0.0113197967011995
-0.0185300771005553,-0.000650472492142977,-0.00378050311277156,0.00500045561331937
-0.00535587803478525,0.014249479999804,-0.00655019947920086,-0.00230518737593424
0.0152116344402811,0.0304579102857498,-0.00750415133363692,-0.0077793845555164
0.039630965878737,0.045101593308652,-0.00831723629620448,-0.0102997868693879
0.0621655381461211,0.0554464514938179,-0.0112520310464928,-0.0104224950794905
0.0694288755884124,0.0511749843001539,-0.0166442136838036,-0.00907946246787879
0.0561478682296575,0.0373145497497306,-0.0198008995420774,-0.00672243549157433
0.0335542657856197,0.030190701976064,-0.0172529537086912,-0.00381453568266308
0.00737163130053008,0.0356409600951401,-0.00992354943799374,-0.00128505029838075
-0.0308766347859674,0.0388627991076338,-0.00153696144105979,0.00019743292607984
-0.0683264196508385,0.0166804304909466,0.00654409930119531,0.0007540692034405
-0.0873722887656048,-0.0331939503615663,0.0161062751497296,0.00129818836615013
-0.110613136771472,-0.0766886863029458,0.0237144399990409,0.0026472880021095
-0.139371329087808,-0.0705771696438644,0.024903668851413,0.0044486656234717
-0.121657551723237,-0.0258115252860591,0.0210229930091998,0.00591388084392067
-0.0549167365638935,0.0131260948200953,0.0150624303344225,0.00640766833776881
0.000823345776108902,0.0329013799156562,0.0100501245441636,0.00532997045395732
0.0194449714505854,0.0440837444946342,0.00400452065379309,0.00324868307754895
0.0227737800620044,0.0585090722739785,-0.0104913171796243,0.00163507046577945
0.0385514900467136,0.0750449133794718,-0.0289540647095919,0.0012837474292039
0.0712498260460897,0.0646755599836532,-0.041119019143354,0.00227083317193413
0.091254268497468,-0.0108377071126136,-0.0494120179082953,0.00391028437807831
0.0722639247743675,-0.113561787307896,-0.0521156955156587,0.00491058607583236
0.0267828331836259,-0.142118891717648,-0.0441502589573878,0.00424430934549418
-0.0123228389478168,-0.0793783625944453,-0.0339899627639033,0.00183720645899394
-0.0276526542514842,0.00649815691937028,-0.0257912082031147,-0.00115177316036508
-0.0224633178578662,0.0533507810968127,-0.014650165585416,-0.0036505754637392
-0.00312707814293052,0.0492038262013439,-0.00348212147677463,-0.00531360364655898
0.0218814436767635,0.032140386673144,0.000951014697939297,-0.00555536116505689
0.0284209650093625,0.0275765446099629,0.000911027000823274,-0.00421383557751265
0.00907733178148978,0.0285869089555758,0.00178133483177456,-0.00227675182137241
-0.0068246386309626,0.0299104091589445,0.00131459762668259,-0.00092206009109167
-0.00695521429605836,0.0353504723149847,-0.000981630966578538,-0.000524992800693336
-0.00605261408004231,0.0440690394189966,-0.00214244414026923,-0.000593600753217194
-0.0108690918355185,0.0506198212257773,-0.00665737727095991,-0.000734756097903082
-0.0213099742291475,0.0428936223425441,-0.0174675987204351,-0.00100176637466033
-0.030007548657955,0.00932710540851768,-0.0256865327637957,-0.0011067556120313
-0.0206996507618957,-0.0288507550874141,-0.0227645690655895,-0.000661264723731884
0.00535145896226069,-0.0422902985947474,-0.017906708816526,0.00011093365400102
0.0323876781880507,-0.0374449329793623,-0.0218852466594156,0.000999985610479223
0.0494412682879876,-0.0278083199109334,-0.0259738168404085,0.00201062391515159
0.0502978725922657,-0.00775295334337254,-0.0229504602023754,0.00266373848446913
0.0381708916861774,0.0139584271030355,-0.0204293190072979,0.00261602785933595
0.025035266191095,0.02108350579328,-0.0243597309087599,0.00232442593475293
0.022135584525709,0.0216218654711757,-0.0315528442651374,0.00216303980061289
0.0295105353942532,0.0240697455333357,-0.0351700411433065,0.00182502426760673
0.0380886913232028,0.020354081833911,-0.0304403181362368,0.000809003455772484
0.0391138573508642,0.0139998226714412,-0.0215046610127729,-0.000706843021102134
0.0273544162334831,0.0238134165854713,-0.0134677001184754,-0.00220732100651147
0.00637111822193153,0.0320527099606731,-0.00491424993921883,-0.00353466672603529
-0.0091853942990012,0.0100359448691,0.000649352443160153,-0.00421732164753931
-0.00915987669712096,-0.0191858181345927,0.00083519185901746,-0.00357630267567678
-0.000425537195840878,-0.0283789846494008,-0.00174173510098978,-0.00192869037040809
0.0139042242910691,-0.0229742477876001,-0.00759703590037397,-0.0004914824726768
0.0306837822422945,-0.00673747290303422,-0.0120459979990115,3.82661553137782e-05
0.032709240780172,0.02224348077499,-0.00580877328408297,-0.000178807468265039
0.0210431124803344,0.0521056927321554,0.00902962688140802,-0.000895417497043975
0.0157722438395508,0.0554523620410458,0.0192380588640891,-0.00145740603628523
0.0207770668764536,0.022923200156787,0.0205003629358762,-0.00101164709006574
0.0269799920210765,-0.0133162900408484,0.021807939832717,0.000254960877529643
0.0396878660857431,-0.0263048380996924,0.0267498939735455,0.00147758720367112
0.0542420921912464,-0.0282080830117478,0.0295315834576211,0.00192761305955656
0.0392639182912765,-0.0374759775038608,0.0305898204613509,0.00161500881419517
0.00363794823941926,-0.0450609899672491,0.0324590029781349,0.00112662073115694
-0.00336165925299372,-0.0361012502243424,0.0319208045109749,0.000601069722674937
0.0241858075659715,-0.0212502357367528,0.0300101004777648,-2.83632178884148e-05
0.0469972140253375,-0.0132444851985298,0.0297211647490755,-0.000841293445807414
0.04769730883706,-0.0145062018987755,0.0279728311966442,-0.00195765293597434
0.0298559465245905,-0.0221403961443346,0.0228693858079133,-0.00273900803647492
0.00204763785470466,0.0042646797825111,0.0167915415101125,-0.00240174412583839
-0.0123520243112503,0.0844965385121195,0.0073923475796101,-0.00116045901876747
-0.013740502237655,0.140003456127282,-0.00776441055967124,0.000187626512117711
-0.0235244730217275,0.114813824075752,-0.0171500110301143,0.000800869179792475
-0.0503882915044268,0.0626499945724411,-0.00645641845573184,0.000661751217166884
-0.0721868036423065,0.0383388335505121,0.0152582815107841,0.000774099568994026
-0.0425003946433098,0.0243868650715489,0.0277319052898559,0.00153233274107795
0.0157087980831893,-0.0118213417490754,0.0287717897728246,0.00243616829181677
0.0248043125569697,-0.057601895943451,0.0259200543645208,0.00290038414813929
-0.00687777055418784,-0.0763235831201972,0.0203601968984867,0.00250012780047809
-0.018609259111712,-0.0675875697252951,0.0139450880785149,0.00132223732878438
-0.00701613467862604,-0.0648061378872784,0.0108983225367339,2.4348960373519e-06
0.000632602325415135,-0.0667503169161373,0.0122077532202878,-0.000679542674756986
-0.00168742219038138,-0.0483611301360455,0.0163476080032212,-0.000666633842547869
-0.00249305830633337,-0.0189979795596166,0.0207680279652901,-0.000614548404157404
0.00233120307571633,-0.000331326550834218,0.0231959729854298,-0.0008893062538338
0.0070926869533811,0.00498870681334592,0.0220703625483829,-0.00134895731865325
0.00972475479576775,0.00295285422665456,0.0195909976401726,-0.00166135375244836
0.0100979589837579,0.00630068491536392,0.0178073004858536,-0.00162775274405928
0.016359364238008,0.0230518764583089,0.0137456380041634,-0.00136652122143308
0.033820727939666,0.0403085719354734,0.00883503340351106,-0.00112759507369492
0.0496147104294323,0.0441154491222819,0.00901248540444578,-0.000906253208438409
0.0513365374884801,0.0339654020257618,0.0125765193024686,-0.000589347423777618
0.0403480902126409,0.0136430375954996,0.0138560303223952,-0.000117429966410405
0.024820311519474,-0.00994042135992614,0.0136227175579146,0.000460373580440166
0.0096195594509426,-0.0306333340076336,0.0132680669470855,0.000947631383113795
-0.00869621746794608,-0.0527915487642354,0.00966002184656485,0.00136436541975794
-0.0428337268041442,-0.0761790917534853,0.00301455492428897,0.00183902274855213
-0.0912233377122822,-0.0938862589356835,0.000474744010078703,0.00228608123424242
-0.12641001247473,-0.0989225752256802,0.00536644837763979,0.00237168974159293
-0.136691929481167,-0.0659286189612253,0.0109721751851863,0.0017706982978492
-0.118281825554799,0.000939459119206981,0.0100867944690367,0.000831990088215604
-0.057599326418014,0.0443640388883791,0.000467453210002213,0.000263718512627446
0.0217248643423548,0.0499321301009935,-0.0119405455503139,0.000219487857919348
0.0695635218917346,0.0528910973910783,-0.0180940943430329,0.000260626069784225
0.0706168383022016,0.0547790146424726,-0.018313189887294,-0.00023414983520298
0.050979857137443,0.0378668178816711,-0.0195144206856622,-0.0013595050764523
0.0404140896371129,0.0118598560144043,-0.0220495555845612,-0.00216891685540338
0.0479374860448243,-0.00607770847546333,-0.0199243484904754,-0.00170316512985497
0.0618150742332736,-0.0135246542802813,-0.0133448348165961,-0.000325807105318312
0.0679195593315413,-0.0114183903557184,-0.00774757414325624,0.000891306018787638
0.0646038937111297,0.001836242991794,-0.00577983231319575,0.000845831570357268
0.0474148098120286,0.0127040996698357,-0.00610321226278101,-0.000672234684339056
0.0124530280397386,0.00652609203956312,-0.0101210781154792,-0.00199663391696683
-0.028385530975212,-0.00849911229293907,-0.0167345353541113,-0.00161502702156007
-0.0599352012006735,-0.0218613774749645,-0.0176282099863268,-0.000143552736746082
-0.0726395584443602,-0.0288557849930001,-0.0140540364927871,0.000815164854288319
-0.090093123596472,-0.0248809776727345,-0.0142355752616591,0.000904604222471607
-0.128874671176391,-0.0146635430536048,-0.0204233058832396,0.000838213217811306
-0.144869961916282,-0.00354370974586917,-0.0328414012172053,0.000718122778568973
-0.114877590840597,0.0155600074352167,-0.0464021021838714,0.000375500627531669
-0.0610549088721509,0.0372437734812791,-0.0500323933656632,0.000246387216150213
-0.000674363205529327,0.0373436673582092,-0.0440393520184346,0.000655847336488159
0.0507762514357452,0.00695356679092494,-0.0387230766535636,0.00136583723311558
0.0845948897190668,-0.0271415741425832,-0.0341391745929086,0.00243107985955373
0.0957761747684238,-0.0278640794861087,-0.0225910582693244,0.00390478348653015
0.0712839145484465,0.00398976772325462,-0.00703148913442865,0.00464365557770724
0.0209848404869905,0.0337515199309679,0.00216338071178206,0.00304137755009819
-0.0185399214890119,0.0314912950210115,0.00170560799518011,-0.000641143855388365
-0.0281384984493234,0.00710327292960789,-0.00291955296185832,-0.00369872971972095
-0.0232476016357153,-0.00608463845598724,-0.00391880881126961,-0.00366676657894713
-0.0227774784015326,0.00291511009529298,0.00421805315365273,-0.00105998858763407
-0.0277317811860311,0.0404840948109452,0.0216825860607413,0.000697681344997115
-0.0323523733109712,0.0833567023654286,0.0344703918534417,-0.00113554390215096
-0.0338131791524804,0.0810483247828026,0.0320173681277922,-0.00455660630083586
-0.0325519323480367,0.0474898272976733,0.0200305066289851,-0.0054542463628867
-0.0209926938036925,0.0260520759052762,0.00472324567398458,-0.00327314727383555
0.00601332777216373,0.0125452964670539,-0.00814054819742567,-0.000434649724191031
0.0359191377433617,-0.00679708820924552,-0.0164577366460126,0.00137188084167285
0.0579421157160366,-0.0186451630793717,-0.0229286948161088,0.00230633430835282
0.060574223265805,-0.0210813850680384,-0.0263140846190286,0.0030294628043388
0.0331238513754051,-0.0253401392704405,-0.0233339422900261,0.00366751978402275
-0.00285870740591013,-0.0113643176896381,-0.0161762798032645,0.00407731115776716
-0.0178680387155788,0.0547007616652974,-0.00914251706147447,0.0039707467993185
-0.0134698418077626,0.146989055927892,-0.00474835678398557,0.00282523515274215
-0.00619349982400374,0.196059859356799,-0.00467118002798067,0.000480684200999486
-0.00631197300687485,0.17453989383617,-0.00418249352535328,-0.00183874267807111
-0.0082521814578628,0.104636072006959,0.00230611309913552,-0.00291987910918646
0.0020167384436804,0.034394983612234,0.0112659664514785,-0.00330455966385039
0.0276883544034057,-0.0238869702820159,0.0169354056237121,-0.0035678272375473
0.0535876981288724,-0.0961151520818722,0.0166735526148483,-0.0032720646856406
0.0596277364964556,-0.175339765857371,0.0142809472422406,-0.00219783133628263
0.049569242995519,-0.217827208982481,0.016018638678778,-0.000729963057254548
0.0437020753159468,-0.186261947990977,0.0196944597367943,0.000427744967432932
0.0429749754036915,-0.109488082977938,0.0236986913850527,0.000708166989465403
0.0341437310729143,-0.0513683354738785,0.0265888966470121,0.000200922934917782
0.0210092983272624,-0.0232433182518243,0.0236278479979976,-0.00044522926570718
0.00420219076429648,0.00277555891998812,0.016320908542821,-0.00062088877207666
-0.0393317328707588,0.0423484628239381,0.00810724645579438,-0.00024527560001841
-0.102138285990709,0.0888093469924956,0.000430311150342,0.000490133857053814
-0.117501858068674,0.116793670106853,-0.00679081485099404,0.00100729970928244
-0.0435341947765694,0.110143125606854,-0.0118337835755771,0.000706238629547167
0.0695332075990814,0.0769243859430713,-0.00846141510716829,0.000144115769094134
0.143244325465553,0.0359782868978822,0.00198824830283201,-2.93847190259226e-05
0.152185538962996,0.00233473947572858,0.00988488075491174,-0.000110694747427875
0.120424660777352,-0.0246456643148851,0.0104079370318027,-0.000380320266392217
0.0746973100692797,-0.0478223755842595,0.00637750655997948,-0.000519651797833908
0.0319695192006891,-0.0545934220843053,0.000618025300281386,-0.000340326399394683
0.00540846258517293,-0.0391743799296995,-0.00714600337479028,-0.000518903411599483
-0.00594379045147865,-0.0178442585190546,-0.0120607704757085,-0.00152504065705409
-0.0184358361049722,-0.00372214047013555,-0.0100476100351216,-0.00262441736185855
-0.0454775691388729,-0.000902302530587302,-0.0078541289759428,-0.00289508104491182
-0.074180976788878,-0.013492917079275,-0.00980564507609668,-0.00209266583218353
-0.0723570544243592,-0.0350127691373563,-0.011367834711472,-0.000396871352238101
-0.033366903069499,-0.0526712135668495,-0.00963509360340498,0.0015592373262424
0.00795704017715607,-0.0633959912531429,-0.00850318912080204,0.00282593664578286
0.0250200464400419,-0.0672148912281474,-0.0112383012874362,0.00302876929393784
0.0227872009438431,-0.0689120570124237,-0.0139904553438376,0.00250834506893966
0.0139600741404447,-0.0720048724675291,-0.0139646077186652,0.00180903600774473
0.0036396126590217,-0.0666692944714896,-0.0130893568084923,0.00151937885524312
-0.00611728511282716,-0.0492294513769882,-0.0121805645290039,0.00167393316074951
-0.00915103006645993,-0.0260101851436406,-0.00939682043095341,0.00170227451293346
-0.00727757356410301,-0.00350916625709995,-0.00449592106312205,0.00112336421430271
-0.00673755303146117,0.0119321806507729,-0.00066619446659856,-0.000198446241086915
-0.00729273335261603,0.0200973496580592,-0.000100144566021053,-0.00180385529740449
-0.0081833835426055,0.0259850267578408,0.00185827476913257,-0.00278594761749561
-0.00766573226579171,0.0313339139089685,0.00695915461609505,-0.00257469040926427
-0.00471720262587604,0.0306133483221451,0.00791814330999016,-0.00161012514655076
-0.00245396539297885,0.0262246898689026,0.00508739344302264,-0.000640150100383541
-0.00151923617024444,0.0300790357282194,0.00501015545892611,0.000197157659873079
0.00101800762539357,0.0384479403473641,0.005549753077544,0.000937084799435043
0.00234574528174011,0.0365168448401166,0.00235700242395014,0.00152958432143825
-0.00630076490805394,0.0188683895821833,0.00522369886401721,0.00199291694571522
-0.0213362760334932,-0.011443029050352,0.019544268773213,0.00211348532119585
-0.0263965129669015,-0.0470488577991014,0.0285698699685731,0.00162369093700641
-0.00253422041964146,-0.0749316720174316,0.0240676583721796,0.000751284006619762
0.0542117067994624,-0.079387744503946,0.0165344698487725,-5.24135200629121e-05
0.107566812387575,-0.063318538508422,0.0119450767445668,-0.000572089635842531
0.120081898672942,-0.0458939551514896,0.00892383241227759,-0.000839659449525556
0.100278509622226,-0.0286533694046139,0.0069382405028677,-0.00093852808681826
0.0714596627564166,-0.00447268080046853,0.00464618715361255,-0.000821557434483002
0.0396035468442299,0.0236210363997365,0.00359512645189664,-0.000440249625268642
0.00518258448240794,0.0456832712707524,0.00768053991284131,0.000308218127862936
-0.0286740591824109,0.0551483563269156,0.0121499691975371,0.00134560526194652
-0.0824455702684947,0.0625114992814421,0.00948700305165947,0.00194289994648829
-0.173458709076032,0.0787696931444294,0.00522657130450041,0.00176992321884262
-0.227902580333346,0.0942572885439654,0.00739835814382454,0.00124266177491013
-0.171492441919211,0.0795869836694088,0.0107618949753797,0.000580226346796827
-0.0633298668001497,0.0040088576422561,0.00914171866419711,-0.000153699912907305
0.00180004043282087,-0.092517256248484,0.00757223333306913,-0.000722053598915867
0.0215335066285599,-0.114931625441779,0.011894217737019,-0.000909419164129247
0.0405133168940849,-0.0614078299030123,0.0188534720159949,-0.000734423893894577
0.0631006975859951,-0.00954563718497391,0.0237548887493654,-0.000381566893285952
0.0782510229400183,0.0137852347144515,0.024192345035035,-0.00013535625662433
0.0845290698513801,0.0288230097768523,0.0199278715716239,-0.000203707273971787
0.0774977589212954,0.0426642158571155,0.0120042941779807,-0.000408952966109566
0.066900453874035,0.0474669028658953,0.00173203887082685,-0.000443678071435726
0.0524579601733,0.0358292712980175,-0.00830056447713974,-0.000276039024366246
0.0211424727950101,0.0116146128961849,-0.0185802740633875,9.27102195280971e-05
-0.0037954263982968,0.00180831253866011,-0.0285777199096127,0.000618098669032937
-0.00387875809262034,0.0230566027114104,-0.033257024290319,0.00110460092225204
-0.00326760571285141,0.0571664698350118,-0.0295192613119078,0.00123405512680568
-0.01916842344721,0.0771943743084159,-0.0188752462239744,0.000687930040402264
-0.0419768881544231,0.0674024067172428,-0.0069907647582578,-0.000362038670147685
-0.0545780337647987,0.0353857243160356,-0.000651578977208217,-0.00110848374392329
-0.0419840978786471,0.00848978881077091,3.5773119382335e-05,-0.000709911091948456
-0.0110584222690471,0.00664919994449081,-0.00191754100911707,0.000434547247827353
0.00640150204409096,0.0216335355650761,-0.00345273432864809,0.00081403144023994
-0.00663289218002339,0.0319938818325122,-0.00213323855640302,-0.000231424277631998
-0.0318116880625674,0.0304856709410296,0.00028858378929105,-0.00165457101232368
-0.0405470647470491,0.0142442428120335,0.00392681659846124,-0.0019477554988479
-0.0300658254482958,-0.0168424216678659,0.0111688208442638,-0.000786831216640775
-0.0202563493230013,-0.0462353747326662,0.0203000199568953,0.000839202256692987
-0.0274923079723962,-0.0639793043288021,0.0228708767381173,0.00193848947835344
-0.053589881133243,-0.0752328727531699,0.0175712406828384,0.00223215761724198
-0.0809314685207377,-0.0802147229986043,0.012967079709104,0.00184948095116056
-0.0855989018171186,-0.0754664672593334,0.011599446195945,0.00129969126368972
-0.0628158087472972,-0.0600580783453596,0.0113594066277701,0.00111040696817808
-0.0263021943453391,-0.0332448430770086,0.0103447943197426,0.00107801099926501
0.00923109747075694,0.00468768457412744,0.00561770554002908,0.000849610160590165
0.029258754347335,0.0441185353860691,-0.00297910719572909,0.000568182186268591
0.030010372929021,0.0677558473387217,-0.0117705902105446,0.000301421254916788
0.0253541887456993,0.0805237950623709,-0.0194400492446369,0.000111412309914981
0.0186361858854348,0.109283497195259,-0.0303473958071789,0.000221301345726332
0.00403299101190837,0.143334175723263,-0.045501789517293,0.000651007652033317
-0.00303563996899896,0.138076237802547,-0.0517420090030956,0.00122315335774044
0.00593806450713389,0.0709607369417635,-0.0390848042199059,0.00132688295818104
0.0111899386196977,-0.0388494883757484,-0.0186931089457496,0.000405205435806495
0.00428489574607319,-0.111124106172246,-0.011910186293819,-0.000942555647538127
-0.00660412692951161,-0.093808165918061,-0.0216560740353803,-0.00171789287770634
-0.015052152606948,-0.0456155763136976,-0.0272463456312059,-0.00168413488071119
-0.0133318191551699,-0.0248932293949495,-0.0206660929629174,-0.00106130596917308
-0.00070263032993099,-0.0259729091440335,-0.0121330287950119,-1.45490537092948e-05
0.00458052202232787,-0.032362731989842,-0.00617501272580585,0.00130885993607451
-0.00664179909358824,-0.0338562895204109,-0.00189138665521194,0.00229432323402236
-0.0112960723551851,-0.0286407601588065,0.00150182686953454,0.0021897915601546
0.00265908501448855,-0.0287183753780895,0.00506226624746061,0.00111313172814059
0.0116814718619955,-0.0335343333312403,0.00906234454171564,2.62858250926182e-05
0.00334369908491002,-0.0262903231437444,0.0148532022893806,-0.00031493155797012
-0.0129319814948717,-0.0106951663170451,0.0199369948301837,-0.000168965192028421
-0.0339035611432529,-0.00722721738024594,0.0214200602302158,8.09615189241073e-06
-0.0526992124442369,-0.0163609139529596,0.0227905844101335,0.000233427383506131
-0.0591951195355031,-0.0267763010932142,0.0212155212193201,0.000317122690626847
-0.0660892924947386,-0.0297351311934616,0.0128325500177731,0.000115454739157103
-0.0720151700175132,0.000937397700865684,0.0018708766095993,-4.56656646125093e-05
-0.041921357872272,0.0421116044307857,-0.00800105391322128,0.000185320855894119
0.0284020429972758,0.0266387211745894,-0.0124363973013997,0.00102499829268681
0.0883321240795669,-0.00913537542761082,-0.0114270662937454,0.0018209826557766
0.0873203182157491,0.0103658009225978,-0.0132854120586002,0.00147019000512188
0.0430545033924515,0.0691061665918696,-0.0220798164064696,0.000263683615144304
0.0239953864480958,0.102657620761322,-0.0286727690086694,-0.000803137500696312
0.0584342586853486,0.0841586191888961,-0.0238573392692721,-0.00143798850767467
0.0963216759701161,0.0432294555049757,-0.0124919647305407,-0.00169427768524743
0.0724859994461104,0.0141951264662156,-0.00287481826369488,-0.00152810999298635
-0.0192290184661104,0.0111852636086515,0.00349565776999706,-0.00110035243123833
-0.105995228265602,0.0236222332843193,0.00824036570832334,-0.000807157096157974
-0.112487234042607,0.0153895183299066,0.0113015661399062,-0.000698505742612413
-0.0607113039061529,-0.0274720842698121,0.0114912420864069,-0.000687854661892749
-0.00657545824846434,-0.0799985857507824,0.00929384357096184,-0.000831986441188415
0.0386719878598864,-0.0990102026731264,0.00834012320049207,-0.000789662069793328
0.0734812215682323,-0.0632349956888865,0.0127911972904838,-0.000253760159043481
0.0860179412384916,-0.0162217253665627,0.0222782125118305,0.000555778156152065
0.0696782729302869,0.00788555259880384,0.0325339184632011,0.00137112836573798
0.0395751289645772,0.0302529298953314,0.0393717072509171,0.00172543760502541
0.0245867863957356,0.0584635926356961,0.0420683171925954,0.00149301395848863
0.0318448794743857,0.0732313003745063,0.043612225915585,0.00143321082236941
0.0390982444109688,0.0688401547521912,0.0425276667785694,0.00164328546481575
0.0313151407556,0.0485382140986227,0.0380535848768677,0.00115411940175519
0.00776359939566312,0.0114102810963759,0.0319683502411615,-0.000341153067528091
-0.03434311722206,-0.0248723455777901,0.0214925087420349,-0.00185400502915377
-0.0758897643915352,-0.0385652898168093,0.0114224599211441,-0.00215806475828492
-0.0875623345834861,-0.0507291865365882,0.00843393657738184,-0.00118745839176316
-0.0728401317343861,-0.074009565074116,0.00840046547219975,-0.000190191525366939
-0.0483395698144458,-0.0767168230682274,0.00920383867132905,-0.000289580311198812
-0.0203519150406632,-0.0580744818926367,0.0131967697756203,-0.00145918080180571
0.00830192856448528,-0.029381441477708,0.0158932297887606,-0.00267772923681398
0.0292569906080622,0.0102881433352307,0.0126991944507846,-0.00301431681723805
0.0305087750675836,0.0359979838079484,0.00935576530305068,-0.00244134585779538
0.0149324874994559,0.0323829239607493,0.0101569830515635,-0.00119806308521045
-0.00108825772758423,0.0160401806462777,0.0104894241556223,0.000316773997453195
-0.00722311358872733,0.00448973529031389,0.00971248959506214,0.00140913717312738
0.000102425215500083,-0.000138925311587684,0.0118252476213112,0.00194991516414836
0.0129458356352352,-0.00056812859664641,0.0131486359721403,0.00247335352121359
0.00907873759526135,-0.000712916909190703,0.00911143262558661,0.00310677206172256
-0.0126367310242913,-0.00733441884754847,0.00228268704147907,0.00311191680363106
-0.0256116625173262,-0.0160348154789499,-0.00230974822592095,0.00176638938322437
-0.0110916581628562,-0.0241961288813537,-0.00329854202759002,-0.000894471103650221
0.0206413258719511,-0.0409773388269409,-0.00570953557808866,-0.00384167994965875
0.0420790041062804,-0.0597800532870787,-0.0080956587258144,-0.00526798376481404
0.0481425099993028,-0.0630481218533567,-0.00770618250324947,-0.0043396940336543
0.0500545993097484,-0.0549688279644927,-0.00846722270593232,-0.0021727814645617
0.0440738938328743,-0.0569010435485745,-0.010068830584157,-0.000241231819302137
0.0276271659705033,-0.0712359432616385,-0.0109399940443998,0.000950013560374963
0.00553554256456881,-0.0815004124930181,-0.010224373831025,0.00149012703471368
-0.0319598237619515,-0.0675323000413253,-0.00850165838054288,0.00117217376795538
-0.0741466689764479,-0.0226076171663435,-0.00962087346662789,0.000232516412742071
-0.0664351943673307,0.0184366289926751,-0.0119770795594202,-0.000262000135749334
-0.00605333636964686,0.0247566201356192,-0.00824248232404877,1.52234610299694e-05
0.0430024844907572,0.00869396385988969,0.000717485993602324,0.000529319511286113
0.053594041600907,-0.00913141100020583,0.00635212540330417,0.000929822914204593
0.0443663461381462,-0.0202560797643998,0.0063513302576498,0.00106355466205094
0.0260683161686523,-0.0176408079382044,0.00728629279873021,0.000623544285803442
0.00634279718840601,-0.00529265711888354,0.0102160089588803,-0.000423596222352333
-0.00216346229078065,-0.0184806089468522,0.00899334337967244,-0.00158405243528231
-0.00531048084011241,-0.0736260734352005,0.00425023877197586,-0.0023232464260275
-0.0104420870282329,-0.113808799782775,-0.000810045626077838,-0.00228931898141826
-0.0141031262630285,-0.0871778864055121,-0.00517805301899741,-0.00154201612983677
-0.018584896571955,-0.0321947431601596,-0.010711691323736,-0.000855156988959126
-0.019910296465563,0.00636744456165114,-0.0183780027174996,-0.00056729682901949
-0.0173984533549247,0.0415179542868196,-0.0205186524905964,-1.47162926091376e-05
-0.0177920135399791,0.0723540271259338,-0.0127648409299085,0.000731961731003203
-0.00516552881219663,0.0652170900531924,-0.000984234220913979,0.000715898767097965
0.0253078110644344,0.0185333002951834,0.00994732807634247,-0.000259503966810341
0.0473827805509816,-0.0296976963179834,0.0176220014669316,-0.00121883696805348
0.049506231031141,-0.0514997884102568,0.0193301684200146,-0.00137062903412855
0.0422095210120628,-0.0490540826583195,0.0168271367315761,-0.000826690259205474
0.0303899646457008,-0.0394326244119465,0.0132778971681448,7.56674192455931e-05
0.0128327604035409,-0.0321660469197958,0.00932591668687958,0.00086004031355314
-0.004000023733707,-0.024235978652685,0.00373132582939107,0.00125542034242337
-0.00612981376421045,-0.0130914153727966,-0.00322977511035609,0.00148252869502086
0.0125982478242263,-0.00181462280692848,-0.00727216555812243,0.00162473215604083
0.0363930668747163,0.0185371238980997,-0.0081860465401312,0.00151282444675568
0.0476440687288728,0.0588299565058245,-0.012580588287484,0.00118789246559489
0.0419612361100984,0.0936810800739987,-0.019994086341293,0.000889172985978022
0.0246225350889208,0.0936598495905945,-0.0213455987286564,0.000374085991044219
0.00975367884052035,0.071001206934291,-0.0143624643396829,-0.000924515623598662
0.00321469829511716,0.046418133516993,-0.0042224879265896,-0.0025865812891311
-0.0049682615353203,0.0267514833855845,0.0025662904990565,-0.00346550171584752
-0.0194705387826852,0.00990959423263606,0.00453275232217442,-0.00284592135833427
-0.0480264315057257,0.00271105925917471,0.00660864349280531,-0.000764828816909176
-0.0928795580766663,0.00215438179740964,0.00701834730253997,0.00147521373076622
-0.115766561767478,-0.0257422841138987,0.000708531002800633,0.00224440011729571
-0.0933560204649128,-0.0678116575454332,-0.00550672163501941,0.00139243423613635
-0.0528939787168597,-0.0743075060471331,-0.00557382257411528,0.00012299724978331
-0.0218216580612466,-0.0473042596293508,-0.00610082831937392,-0.000519805650353849
-0.00542525709379256,-0.0141379878275037,-0.0107842628341401,-0.000633271657738275
0.00036692503501607,0.00667587261873766,-0.01390364489677,-0.000800611926589549
-0.00567392972190607,0.00213151487684894,-0.0155125843776178,-0.000852413367674805
-0.0161138051295096,-0.00128558415826942,-0.0189796172310836,-0.000152291023535026
-0.00990618227882779,0.0311274128305394,-0.0203106073819645,0.000816105520433344
0.0216796161808473,0.0777691045285243,-0.0157761231079758,0.00107382960889607
0.0720034574065995,0.0949331485371385,-0.00762033243388872,0.000801013003479319
0.104087429971045,0.0740078391227891,-0.00253297417231054,0.000823082598250693
0.0804461042510769,0.0382627747723348,-0.00105711929020808,0.00124858307941581
0.0311862160817642,0.0114713463131801,0.00122056810625099,0.00123257937232775
0.00473905695012548,0.000800628955543798,0.000491159354825231,0.000416264343727612
0.00325035559370302,-0.00567124563775128,-0.00676016419381619,-0.000273138597056722
0.00846501337650524,-0.019158719300799,-0.0140678202005529,-4.09647838383965e-05
0.0106408031631443,-0.0171393832797256,-0.0137054522164253,0.000332993889501724
0.00800071512185511,0.0110734630947544,-0.00513549696310626,-0.000626690467110897
0.00326693496408325,0.0252967499221135,0.00486228310200073,-0.00267381619282516
-0.000762400012617008,0.00860928972742327,0.00902239531572191,-0.00357765259424661
-0.00250825938338097,-0.0135448194867217,0.00590312195686091,-0.00214552353804548
-0.00135584319611172,-0.0217126893135186,-0.00138996615803395,0.00046157999590308
-0.00153294244801372,-0.00289648858924704,-0.00524298511526616,0.00265221560341645
-0.000321112747469626,0.0338345849149265,0.000176940932918389,0.00331110176800589
0.0122310414203329,0.0490137704205978,0.00818640287044656,0.00203348192990437
0.032360344642456,0.0338725394574125,0.0107443300373312,-0.00015464481791567
0.0458700372916549,0.0187091397833769,0.00968900011776417,-0.00158516338988137
0.0426256176608219,0.0192596250833949,0.00796849259049646,-0.00135129597763707
0.0236668392482159,0.0289575025549646,0.00706468982932516,0.00017399022397849
0.00278835558933612,0.0424472771020853,0.00861583873325293,0.00169387330349175
-0.00598144346932609,0.0489594072776046,0.0118483697550546,0.0020761665667531
-0.0101118522942847,0.0286844870542563,0.0163687434318717,0.00128801791087348
-0.0311643253154642,-0.030530439052802,0.0219713880940181,0.000216107474050785
-0.0512463274842163,-0.0910239004293936,0.0249256676385729,-0.000392221338269679
-0.0273497474069218,-0.0856380348505033,0.0229328741226904,-0.000729048239282055
0.0342097636571888,-0.0350556308930273,0.0196179966025537,-0.00145130695377229
0.0842685516345702,-0.0166518234591223,0.0159823535013779,-0.00239609285622093
0.0924890912572932,-0.0316000141875437,0.00977011732624324,-0.00244330913517669
0.074594721252424,-0.0361929295653338,0.000825714075635316,-0.00102962687100518
0.0553875143302594,-0.0316852095946873,-0.00776528470087039,0.00124251577065892
0.0428212647999699,-0.0259610756789348,-0.00957174852774812,0.00336257773089894
0.0397722385073961,-0.0112326410958284,-0.00456427119199128,0.00418614478703512
0.0376567760053463,0.00406504002874243,0.00225912768536699,0.00318191046726863
0.0149998884974133,0.0210766633987791,0.00888305348164194,0.00119432659647905
-0.037945089373802,0.0448876778799598,0.0109103013521398,-0.000487993026018907
-0.0855982395837674,0.0581084318621195,0.00647258046932128,-0.00134340411329673
-0.0950646158775504,0.0518663105895494,0.00426609096459696,-0.00137178746861573
-0.0910989114155873,0.0363430017929011,0.00813883326355352,-0.000975898866948758
-0.0849469433475261,0.0222268980301764,0.0124183814043307,-0.000830187464645578
-0.052396378457159,0.0167988242055304,0.0141226111269193,-0.000936917218517272
0.00343695030603501,0.0160385991531487,0.0155938773601592,-0.000747581077802336
0.0492011952904388,0.0121560936272253,0.0182658998685718,-6.44063559299812e-05
0.0599468097783451,0.00264856022709421,0.0189201980725737,0.000363955269617592
0.0452737441531457,-0.0321225364889304,0.0153896877437677,-4.07445093998738e-05
0.0286737424270863,-0.0870606796152646,0.00958831495713853,-0.000618235999412226
0.0179365128038331,-0.114102022388794,0.00605735911019824,-0.000578910385079405
0.0145877591491954,-0.102179750701536,0.00563786285719922,4.73368000090692e-05
0.0174577384458366,-0.0733582459956324,0.00432686826991541,0.00045647249041285
0.0208980301036219,-0.0458861539227728,0.000915628660765571,0.000179195353494854
0.0155999851960244,-0.0315446994541975,-0.0025143405592948,-0.000302427313129197
-0.00917755252753476,-0.0215654846266366,-0.00977386725987801,-0.00020986064563426
-0.0372825142561426,-0.0106025849310511,-0.0259064007852788,0.000792247385284273
-0.0345520405713329,-0.00780457836423042,-0.0423948962919143,0.00201734492787393
-0.00608788347760794,-0.0134344932216956,-0.0473578959949068,0.00270274458368861
-0.0019881757824369,-0.0227083321051373,-0.0415761551346567,0.0027918315070226
-0.0344189979361934,-0.0228819507700528,-0.0360785078081478,0.00227371100812425
-0.0552276032381934,-0.0119764582878106,-0.0334873548895554,0.00112365100931983
-0.0465131102682238,-0.0148498172106562,-0.0250945767491897,-0.000358061543004764
-0.0327867241942988,-0.0407332815270586,-0.0140857060400683,-0.00142989640313147
-0.0211303887973061,-0.0683354101477802,-0.00905221706295573,-0.00161593959529767
-0.00599902304184234,-0.0693638351712548,-0.00876215116067453,-0.00142912166209404
0.00448692262282613,-0.0314988593893405,-0.0103041802157388,-0.00152286285317734
0.0121360512462249,0.0124500421957944,-0.00913472073234407,-0.00187805150246322
0.0370143127262835,0.0159522190609726,-0.00373576416127116,-0.00211307351436854
0.0782899316183336,-0.00859003285718655,0.000171522000754196,-0.00208951169186999
0.105516540669652,-0.0205563350132273,0.0027358453303116,-0.00183774590541949
0.0916755382708426,-0.0186242633592037,0.00940547363817697,-0.00127066230555203
0.0345361516258764,-0.0167724446936742,0.0159520950242319,-0.000453777891345888
-0.0339266578021964,0.00430370495906861,0.0141057691263657,0.000213120346989842
-0.0658838049619309,0.0509888478459645,0.00595690674809208,0.00050554589910199
-0.0545205914993774,0.0741395352710764,-0.000437173537871906,0.000791104185417814
-0.0357034647238106,0.0431296342962571,-0.00114639447371793,0.00119701473134057
-0.0247527386144015,-0.0124883644762391,8.80924976918475e-05,0.00124488545651023
-0.0146842489530721,-0.0551902760192889,-0.00129146569819327,0.000896657339971604
-0.016720793675993,-0.0693543875207228,-0.00216579897519478,0.000714396424451927
-0.0329075784446507,-0.057812539512481,0.000375120066908024,0.000613532793984236
-0.0323993682317057,-0.0525357566582438,0.0014823981052466,0.000175301749509107
-0.00277414158298243,-0.0666433594293142,0.00015488669943688,0.000128531145168375
0.0288587808263404,-0.0593732272099742,0.00170856864537121,0.000894044642210683
0.0435488886909923,-0.0239115188516063,0.00585538147002471,0.00107944798438794
0.0507322365774012,-0.0132974128086051,0.0081662992456205,-0.00019819750602175
0.0577698831813532,-0.0335213474231959,0.00918966005171478,-0.00157209541959426
0.0583561163467868,-0.0385199726109593,0.0117342384404987,-0.00178804493054868
0.0459801470648888,-0.0333851936362276,0.0137998300210866,-0.00131303950232106
0.0195875555037518,-0.0387595716542965,0.010110303652559,-0.000969884959775843
-0.00895900623551998,-0.0243774863235761,-0.000946840825616489,-0.00102251354491211
-0.0227127253611228,0.0239105189311679,-0.0142098927905573,-0.00120649590088377
-0.0251569368540581,0.0777636961985672,-0.022031617938229,-0.00120950121394119
-0.038948466027587,0.130424408317484,-0.0259184989818591,-0.000772475743523454
-0.0651065599199242,0.178602414695561,-0.0288088587839932,0.000304675997185955
-0.0729468468830741,0.18746020264204,-0.0223160159678125,0.00145213408932709
-0.0520669739750417,0.145865396029047,-0.0112941318409316,0.00162610126745885
-0.0255761300675181,0.065160628855222,-0.00614141161283167,0.000659972642129093
-0.012593682516066,-0.0345485093921033,-0.00107223062104023,-0.000583298628666431
-0.0114069206816751,-0.0992784511215762,0.00226124699983531,-0.00142335302422584
-0.0106110856781352,-0.0947986693906633,0.0022659568727786,-0.0018779049605787
-0.00727490266139093,-0.0502961989571435,0.00820166210525341,-0.00204097574365709
-0.00358579036031132,-0.00954331892069454,0.0180346978233406,-0.00172967102398343
0.00134252156971453,0.0133833946701152,0.0227219734777235,-0.000861370733160283
0.00111721195194266,0.0257483245574403,0.018745059923726,0.000178353619827945
-0.0133957532408639,0.0338040975016623,0.00767802184857011,0.000836243181618487
-0.0336575995339673,0.0412198282558475,-0.00622243517639054,0.000896548426471266
-0.0419099398080305,0.0500025547278017,-0.017888524965558,0.000632758625614958
-0.0345250727845224,0.0573675530281271,-0.0224806377303642,0.000315216997473261
-0.0165812124226151,0.059971018666305,-0.0212622936469308,9.2268263199747e-05
0.00738217621142172,0.0517167209343135,-0.0200136946436077,0.000325875157292102
0.025170470160041,0.0290218509824138,-0.0178222436416004,0.000920601122878521
0.025261160135496,0.010767662522297,-0.0122955798578783,0.00118207520153634
0.00931730339909941,0.0130511422549681,-0.00790940807531729,0.000518362232780534
-0.0110848173692776,0.0132612565287593,-0.00678123065897323,-0.00104785679433102
-0.0230813403746254,0.00366911157473469,-0.00734191133104565,-0.00259463871621747
-0.0236609320759587,0.0071233799583744,-0.00953983196976823,-0.00311758930428973
-0.0176602292580354,0.0232263893458736,-0.0118620737808762,-0.00243143161923653
-0.014480270955589,0.0331850194183127,-0.0103884099796549,-0.00116427408405521
-0.0226892738325284,0.0277421991813056,-0.00573056352441205,-0.000138838219595071
-0.0360602575122722,0.016671476107223,-0.00149771821909821,0.000423494773110046
-0.0427383682537283,0.015180833525048,0.0026605921462794,0.00063948592573546
-0.0405035477307134,0.0254225748007611,0.00535054502076272,0.000530465728238843
-0.0323816279623859,0.03692344060915,0.00458260370708514,0.000392750506393709
-0.0239472578407988,0.0324611031968309,0.00381575488950203,0.000569461474622734
-0.0185956304860246,0.00966744944881674,0.00368443700752737,0.000971129283655146
-0.0111475744116259,-0.00660918233808962,0.000784218543942838,0.00109688458493316
0.000403623998268942,0.0013024942850116,-0.00350923242153891,0.000430109923620803
0.0130322419761155,0.0164485554849368,-0.00461280576048775,-0.000812684985067602
0.0296580545616765,0.0206136967091607,0.000214839560997927,-0.00202527401780843
0.0503825156029814,0.0214604884212396,0.0111698961576401,-0.00281662391093702
0.0635197252008558,0.0217811141573212,0.0231828821834363,-0.00293842958996591
0.0599620672186678,0.0133707840845162,0.0285459322897763,-0.00249617961867958
0.0406735087204282,-0.00121351465255003,0.0255300479818852,-0.00164895586576828
0.0165347952636502,-0.00574630006411709,0.0182368880265146,-0.00047574674001628
0.00183557372421141,0.0103447654988943,0.0106822209076657,0.00064423777764401
-0.00356683476770406,0.0174362740582293,0.00524964502404557,0.00122567002163401
-0.00315721208642091,-0.021709313636172,0.00593083869441763,0.00116833870903335
-0.000384021517252718,-0.0877716148375106,0.0128365408625445,0.000831685690198565
-0.00931059870189761,-0.111233893675256,0.0174274344570613,0.000465452852432697
-0.0257764520717893,-0.0689937401470865,0.0162621194861366,3.82241085798539e-05
-0.0267139843455365,-0.0205394162121828,0.0140436766983248,-0.000222598490112674
-0.011233951111055,-0.00369902922721087,0.0144118568895035,-5.65891883587083e-06
0.00341289093454804,0.0121406025387814,0.0155899009482973,0.00049397048191237
0.013128202444193,0.0523491860216323,0.00943369841297345,0.000928259096247759
0.0234476300701461,0.0818669043520724,-0.0043540159124913,0.00108564615060027
0.0190773680828007,0.0647930432288082,-0.0113471181920115,0.000986616416550849
-0.0178361890334262,0.0167733348250554,-0.00121545650742926,0.000717490368620506
-0.0482532495402577,-0.0255043655168753,0.0162200720575628,7.03234578467338e-05
-0.0236184772397865,-0.0433727486223823,0.0263544416955374,-0.000813604708204888
0.0273863011168313,-0.0558950396798974,0.0285050426745958,-0.00136098359553827
0.0387358862374509,-0.0733018598694301,0.0253184622738201,-0.00115111505717468
-0.00257550146969699,-0.0700042590246677,0.017321300202202,-0.000242554116973475
-0.0398836466397774,-0.0451350909363941,0.00999425713579227,0.00083220078924548
-0.0376467404009176,-0.025503376863962,0.00761740715674464,0.00137224639882594
-0.0158429051441022,-0.0203314484732512,0.00746489229824145,0.000714748972050138
0.0122985624596587,-0.0232482777841572,0.00426112093954801,-0.000744806167309453
0.0381456076734759,-0.0245716499200443,-0.00491585946641033,-0.00143338696009293
0.0431858508861231,-0.0204894274953383,-0.0179029868557464,-0.000778506462632227
0.0270947052889268,-0.00937300427644636,-0.0304723229598553,0.000250764569867409
0.0164649438668459,0.0102363266704334,-0.0397681722964077,0.00105413129190311
0.0256524223895474,0.0261766026717081,-0.0446985625953864,0.00162732305694185
0.0349433766495641,0.0172072255419273,-0.0446974494025434,0.00168868516591162
0.0257002585466924,-0.0117701142700419,-0.0404182455500702,0.00116726496982854
0.00905580341564076,-0.0150542165319689,-0.0343290983792711,0.000873314502192916
-0.000995420930182421,0.0191797241610306,-0.0310763242210137,0.0017825725790405
-0.0108561360329561,0.0604953077230036,-0.0302482594763648,0.00341145344428571
-0.0271557328221741,0.0896948861040233,-0.0220947251024244,0.00383067145067173
-0.0487869373873322,0.0821355214299878,-0.00821057204040804,0.00206716142996373
-0.0605038701209749,0.0385302635166454,-0.000442595307822445,-0.000540327214939175
-0.0407378711303121,-0.00285627010849281,0.00116306378438355,-0.00216630545755591
0.000389321811954176,-0.0375366572521835,0.00293413737079285,-0.00231993888542397
0.026508177134878,-0.0989857628488195,0.006530192146191,-0.00170527728193684
0.0262828164846608,-0.171517546712621,0.00964220948595109,-0.00122936230437074
0.0208980161030436,-0.196957025195721,0.0104903801385849,-0.000802759723885523
0.0253195051716886,-0.159371209919293,0.00946726465491558,0.000197420027466395
0.0323561436761794,-0.0859561374587158,0.00655338915344523,0.00141020687937238
0.0321280548312369,-0.0133335058390247,0.00329091513120971,0.00187008012446617
0.021827234527136,0.0365501815015999,-0.00112185322804062,0.00150122074507415
0.00338621162951589,0.0688094583300508,-0.00969601906544341,0.00126013928150208
-0.0123742136181748,0.0939868036612734,-0.0186339482901318,0.00182126530841267
-0.0191017700175906,0.101844538537226,-0.024819735023387,0.00291665280695602
-0.0217537020791445,0.0799874761623239,-0.0314622709960755,0.00352523126321945
-0.019796873577237,0.0248886666918437,-0.0385758130118411,0.00269453380284328
-0.018842005859465,-0.0422018130473193,-0.0442393292392105,0.000671355290743804
-0.0342944412701242,-0.0641035923886234,-0.0471878800715928,-0.00133774618499387
-0.0532020975369967,-0.0285474386823614,-0.0442769936634285,-0.00226389321093108
-0.033829096471494,0.00700893476874884,-0.0358029533718515,-0.00188657761509917
0.0296733614496001,0.00289642917827856,-0.0265580065294611,-0.000940855935358252
0.0809160032883226,-0.0218700568505788,-0.0199373541400838,-0.000419396264261878
0.0737212645360126,-0.0298406988090398,-0.014348486802704,-0.000335846312684263
0.0289089423879556,-0.0226827294084703,-0.00770334251076053,0.000103606024070206
-0.00346558710329993,-0.0314527838896059,-0.00192837444259983,0.00109527836045413
-0.0144809499340099,-0.0582424755072242,0.00259316563598121,0.00184674670391221
-0.018721887367943,-0.0864541017404461,0.00539358950433697,0.00161580610687658
-0.0152658575932906,-0.113283539615575,0.00361595437602812,0.000688435246353542
-0.0238734310062466,-0.124392770603731,0.00239385192112804,-0.000271467313441456
-0.0486951004921747,-0.092340429711486,0.00735411828068482,-0.000948620365230556
-0.0429553555841053,-0.0366098243136946,0.0144512643302205,-0.00123799028162891
-0.00184688685699264,-0.0110743952744185,0.0205873277351128,-0.0010141562871567
0.0235182462791732,-0.0188165881260933,0.0259323044783268,-0.000229425063950686
0.0179203788656053,-0.0206915511795044,0.0242946257199206,0.000821333991985556
0.00995593020067762,-0.00367088683873176,0.0134997408508162,0.00182181744811811
0.0115371523097624,0.0150965974978914,0.00175744057735407,0.00265120347164342
0.0085473262706816,0.0258775885620526,-0.00462615630330886,0.00338908484072586
-0.00342549457243156,0.0304402465369369,-0.00331064873038383,0.00416344539366082
-0.00731205907651567,0.0346311685839656,-0.00140336742030521,0.00431585221186013
0.00810410873746131,0.0434828048136378,-0.00330350529502221,0.00287946138469684
0.0250530159051564,0.0460406863659359,-0.000901317606813657,0.000491841937743391
0.0130759658211643,0.0414350227451142,0.00802237106732847,-0.00126260140346502
-0.0150285350659231,0.0425256584044622,0.017214629736943,-0.00197314838672543
-0.0158260274035317,0.0437560222586311,0.0205172368150767,-0.00214246027775432
0.00626700550985416,0.0332801163094084,0.020589253362573,-0.00228636957521039
0.0194970585781208,0.0112567335841629,0.0224410365859475,-0.00253020533424253
0.0137734075389919,-0.0135599917375916,0.0243188274992691,-0.00214426004958556
-0.0192329161673313,-0.0196392763672896,0.0267298860349755,-0.00073720133941549
-0.0776469916597992,0.00960312802240282,0.0270895343465429,0.000481108006785703
-0.111058766659622,0.0319914792332262,0.0195346754566941,0.00054202163075873
-0.0793400772206967,0.0038506435870618,0.0086157869170622,0.000545753599306819
-0.0194556168081466,-0.0285063021616102,0.00316748213460891,0.00165298209278846
0.015106462379386,-0.0109353827917522,0.00627630307307031,0.00303131149706542
0.0197374663553998,0.0302774511619305,0.0143691835296459,0.00321029042526014
0.0124518368126992,0.0531021934220849,0.0187108392847555,0.00193306283263336
-0.000920837415659931,0.05831398461484,0.0167716874170236,0.000433860879755162
-0.0115095522875775,0.0573936381945204,0.0140934903271233,-1.46004931826315e-05
-0.00811891326312508,0.0592405791364461,0.0135975715258119,0.000495435597582119
0.00133006856827794,0.076003067661773,0.0144480927809449,0.00118608932566196
0.0024538457750115,0.0983529449601144,0.014526975635013,0.00144179241960745
-0.00309021747494033,0.0986357352535496,0.012807651226695,0.00119867842484201
-0.00156030531281713,0.0847355922405554,0.00943387325176272,0.000809269583078389
0.00421697581927188,0.0856291878662519,0.00720286779984416,8.09151791585482e-05
-0.00456662969520753,0.0848500923256813,0.0109130185939828,-0.00121786200894019
-0.024566933764545,0.0616960795612233,0.0161694263629112,-0.00229736224650779
-0.0378711255017869,0.0415290520541199,0.0147258665051536,-0.00240875519757067
-0.0417736637276532,0.055768533635996,0.0109343259860767,-0.00208434643844265
-0.0447798414377036,0.091121302843199,0.00883050421431426,-0.00227841814600535
-0.0506101928264213,0.0980098349737053,0.00224543266151098,-0.00293325061905461
-0.0560336013651888,0.0486556808965959,-0.00845397588952897,-0.00301131062081338
-0.0643615966891017,-0.040150511726408,-0.0145226640741573,-0.00179420776835544
-0.0715931234330006,-0.110296871264304,-0.0135620277178918,0.000327688146698871
-0.061741817224274,-0.100691064734698,-0.0111030034933778,0.00231907455933944
-0.0337205215523079,-0.0213913879545208,-0.0105946829796384,0.00332888325553589
0.00277420104306923,0.0584903309986084,-0.0109062785092716,0.00326938353237364
0.0402670898702395,0.0927345494957926,-0.00996976069832003,0.0025643286475373
0.0720032371662222,0.0797401044535708,-0.00600040357842629,0.00162803571991617
0.0845170506050976,0.0441171001843241,-0.000235520740921143,0.000884679603301069
0.0604864580990738,0.0191335443443072,0.00440907181055639,0.000347036998018803
0.0181179212917323,0.0128443703368536,0.00721586468208788,-0.000483321500525701
-0.00596901434031968,0.0112808442011879,0.00735285302612757,-0.00163949956458984
-0.0104072321832542,0.00145738293594834,0.00548142954426791,-0.00249197508361236
-0.020931330882905,-0.0249020001377345,0.00456970458506625,-0.00242220406347833
-0.0537999343638173,-0.0301334594698371,0.00774990410002206,-0.00168760502643579
-0.0782270253991502,0.0135871528568554,0.0129385589321397,-0.00166952492573264
-0.0570106507113443,0.0389105673063275,0.0123673468072285,-0.00281400116925413
-0.0131801059453774,0.0142641162961109,0.00281171301727777,-0.00357113865431906
0.0109546922295242,-0.0094023890406387,-0.0116617420209399,-0.00260701573122204
0.00599418905451992,-0.0155145062167785,-0.0223574124630256,-0.000125049236958411
-0.0120075145952094,-0.0201312285005966,-0.0237374916726065,0.00246885569797186
-0.0216812059773936,-0.0348120289771923,-0.0233115134318474,0.0034957681764125
-0.0194900024360203,-0.054127921695995,-0.0288228291583441,0.00284219845205493
-0.0158656469989465,-0.0437618356734749,-0.0267268488936102,0.00173779584556293
-0.0168327377043594,-0.0135735293653321,-0.00557663318472266,0.000498374028696237
-0.0260143825006103,-0.0194862485329692,0.015731461247125,-0.00116960630641137
-0.0367931589298772,-0.0544652549218141,0.0221803889140454,-0.00232785109404719
-0.0334725548901861,-0.084112437879283,0.0216051221903423,-0.00177602435054198
-0.0156823752559648,-0.100327807003218,0.0212933607807957,-3.30864563838093e-05
0.00286301435541401,-0.0880050170002134,0.0224677246521608,0.00149254844888476
0.0193681789951647,-0.0562747023664354,0.0211955864562282,0.00205359808900344
0.0412243625247239,-0.0361012902226793,0.0120048046798648,0.00152726298873407
0.0602755979455886,-0.0350951773564663,-0.00283165877864149,0.000561699745228481
0.0598079673443688,-0.0383672345373321,-0.012528559522956,0.000350429990330749
0.0367304311961652,-0.011549479413893,-0.012738545787114,0.000938475560542108
0.000236400010078314,0.0712454955173996,-0.0148410050570834,0.00101934216365701
-0.0256761513793848,0.159887603738813,-0.0200876439899656,0.000157547321442776
-0.005792463368046,0.184223773889085,-0.0118644035822228,-0.000959775651076192
0.0575880144918479,0.152939635665397,0.00686567892989197,-0.00228335640825196
0.101796809276469,0.0863202589887059,0.0166066889979646,-0.00371021965978952
0.0860884241306042,0.00830684390037126,0.016174116208673,-0.00416784172617803
0.0475582696740465,-0.0459952613146013,0.0136351833505196,-0.00310545672746547
0.0252314033040233,-0.087171314110732,0.00956925563453962,-0.00130220320348791
0.00732796631178508,-0.11836012870801,0.00587630240438878,0.000323877493443885
-0.0148830319311073,-0.110934000930322,0.00306874944571734,0.00155268291894031
-0.0359713863591232,-0.0653138327415897,-0.00293674390771531,0.00225404426759268
-0.0619823066194893,-0.0251045900634048,-0.00692659411288939,0.00223299207863395
-0.083474753276375,-0.00918921156841363,-0.00370890521899051,0.00173326006072989
-0.0815536581938615,0.00595491699466661,-0.0017604481286445,0.00130405094707385
-0.0710261374077404,0.0305935781197228,-0.00649918668204142,0.00108845012604837
-0.0721967858869112,0.0483654757561267,-0.0125396495593025,0.000653772053053085
-0.0707037427439193,0.0371601208722088,-0.018960730834198,-6.20779909731317e-05
-0.0427813238418929,0.0110209720936936,-0.0275359254305617,-0.000771742055051402
0.00571712658313323,0.00938816902492682,-0.030718430402993,-0.00145311442989949
0.0414868457179642,0.0227540893566313,-0.0225495547097487,-0.00198502893724134
0.0533607906438141,0.0179081885001347,-0.00816116895527197,-0.00231425285111803
0.0582390975013296,-0.00309712802197885,0.00297614640849148,-0.00258091481324337
0.0607125992217183,-0.0225500951258648,0.0066109290467157,-0.00273204041181366
0.0570907778399441,-0.0332605710436302,0.0057845674055941,-0.00252943435737924
0.0482790049668098,-0.0366138248908692,0.00333848496779096,-0.00188646312057752
0.0342192256012265,-0.0328323574304248,0.000684259080200297,-0.00100992495948514
0.0236059193716133,-0.0203568008068259,-0.000323054515237115,-0.000133364670924327
0.0231493809671654,-0.00106081515618135,0.000455033456165233,0.000599422666356374
0.0262524970510646,0.0126713542064109,0.0012800988174703,0.00116479898013397
0.0312513911186783,0.00670937026571989,0.00240763877665933,0.00121017699939475
0.0372873204500761,-0.0131336908138795,0.00378715625508474,0.000346027620926852
0.0383172148915858,-0.0238485077813167,0.00384814371620746,-0.000874136066784019
0.0338900507216648,-0.0171402274349988,0.00132087017755766,-0.00156339353730927
0.0235583710142869,-0.00284387522133213,-0.00468015673235694,-0.00146402072567322
0.010073241061035,0.0163113418158318,-0.00966671897665025,-0.00117559540090046
0.00471182111589463,0.0360424348842132,-0.00830663983146599,-0.00136363137478011
0.0107043432913541,0.0421455055269141,-0.00281181483110955,-0.00178816438830377
0.00971285741751588,0.0216297673855965,-0.000149661236737761,-0.00189307391844515
-0.0154882067456715,-0.0240640107097919,-0.00268937193206853,-0.00167987215912708
-0.0561781207535703,-0.0627471850345541,-0.00504027885765348,-0.00137589535471972
-0.0779331038210903,-0.0566847106493658,-0.00386515627535121,-0.000845136613528098
-0.049238339908647,-0.0176748490800212,-0.00272815352501265,-9.85232275629848e-05
0.00682373037130678,0.0100077367495917,-0.00292522298578416,0.000308708008502526
0.0387010702546701,0.0198271058154244,-0.0019800794974912,0.000101071085668236
0.031496662119565,0.021662685917431,-0.000809838449702515,-0.000281469016495733
0.0098849044047478,0.00384082085985369,0.00299280946959766,-0.000421328918477679
-0.00118510540696303,-0.0195175287816361,0.0112251309803803,-0.0003316658017171
2.69220642026835e-05,-0.0116187273477856,0.0168293319510982,-0.000197072271671142
0.0141123488349047,0.0140432327189296,0.0175107536948859,-0.000273978760222535
0.0411428081440354,0.0145630120875112,0.0160553565057464,-0.000664617754443904
0.0564448399044208,-0.00587785730561536,0.0128826890737229,-0.000863109884592416
0.0432841154432076,-0.0199012721471954,0.00975904941115626,-0.000303630169703439
0.0208113188765978,-0.0195181156040129,0.0100401726995138,0.000563488197369626
0.00724503309166509,-0.0133779564628068,0.00979743909458041,0.0010101794026429
-0.0044903017463699,-0.0156197655423127,0.00427556865040013,0.000999091713740339
-0.0270496755212553,-0.025828920253523,-0.000244289117882865,0.000725507182467887
-0.0584506873186526,-0.0210748062041885,-0.00156234520241439,0.000337325033507654
-0.071191784547771,0.0174710204174813,-0.00511655701717926,4.57754902731403e-07
-0.0471146498589251,0.0688605457165056,-0.00920298117134637,-0.000391646061509024
-0.0163208234851359,0.0963310377338214,-0.00928565398402669,-0.0012651024502633
-0.00562811624147318,0.089198838802865,-0.00636111167222957,-0.00244373042072738
-0.00610645849197353,0.0619471932605535,0.000157731770247832,-0.00290597131524571
-0.00385215687956675,0.0384741884627236,0.0108406877733469,-0.00222277769011535
0.00487809296134989,0.0358266025165068,0.0180614883554499,-0.00109125572047273
0.012542095327104,0.045301047908725,0.0165362091797411,-0.000266406212052275
0.0151324714577827,0.0483536126233347,0.0118830577742927,0.000215821528980008
0.0170764765878123,0.0402416908406327,0.0101724157002236,0.000687264133057747
0.0180140838322452,0.0135404593832491,0.0138369305245982,0.00116264367989528
0.0196046411583435,-0.022914632853508,0.0217847563545813,0.00143137325237079
0.0194223715070301,-0.0412231606283615,0.0265017943332222,0.0014475649545275
0.0131347985853284,-0.0341679228279593,0.0249707843220757,0.00129543859904225
0.00555517954118298,-0.0150176844137241,0.0198386519604628,0.00118829652824941
-0.00967574370711018,-0.0167216586429901,0.0101332774522807,0.00144742516152178
-0.0409174124372231,-0.0531018362209543,-0.00200681816981722,0.00198830091017924
-0.0752386426964146,-0.0794391881834808,-0.00781065307916678,0.00230617942535558
-0.0835715940245158,-0.0558918472257194,-0.00576152030680628,0.00212347132624942
-0.0524389994519682,-0.00493456932537606,-0.00419659409887049,0.0014480555683096
-0.0100724734599829,0.0229459127204519,-0.00614366564074382,0.000261600280952744
0.0126469357469794,0.0182812005242015,-0.00715430741651212,-0.00116662793316737
0.0134736822660213,0.012480902946274,-0.00705994015042487,-0.00220222844577436
0.00108951649467259,0.0196123231703438,-0.00986655442376729,-0.00245272419149105
-0.01975830190252,0.0307760099702844,-0.0152698823838749,-0.00199480212534545
-0.041264417694019,0.0383739955798306,-0.0204144658501466,-0.00152870056419379
-0.0462918285312369,0.0339224072145449,-0.0232163543701297,-0.00173428730708339
-0.0291449114512205,0.0135390615072056,-0.0200081159290591,-0.00200307632587583
0.00149997369539356,-0.00849303542980332,-0.0100521111126481,-0.00148250925411832
0.0320313528453697,-0.018626570943237,0.000316992348851679,-0.000400838392293071
0.0475037690221723,-0.0203627666042607,0.00486431635379764,0.000583677949270177
0.0456859410968276,-0.0190243045928587,0.00341216526005336,0.00133248531524906
0.0328199472713403,-0.0181985759633274,0.00135898554483682,0.00230687149418138
0.0174943039410904,-0.0159014813293929,-7.66773978269006e-05,0.0033341264350684
0.0118742149651932,-0.0194941292961385,-0.00556450916415661,0.00343815580359971
0.0142567133025535,-0.0424620221258487,-0.0126041217527165,0.00280679840064819
0.0220755725420547,-0.0596931879017126,-0.0133777762697688,0.00264427608117081
0.0375000637584655,-0.0507628764895834,-0.0118161080180696,0.00288164987114778
0.0264717933586135,-0.0307768125054841,-0.0173533630317858,0.00229686793437954
-0.0262836601543511,-0.00695645162307188,-0.025572532161405,0.000135849129722272
-0.0703091347084158,0.0134922388086804,-0.0305920111707879,-0.00272101274903725
-0.076291716802106,0.0185356280321198,-0.0339807390010499,-0.00427900730396949
-0.0588316418277167,0.0122687829528183,-0.0358936101048726,-0.00388053337448372
-0.031887039992559,0.0013224948242434,-0.0342241150655548,-0.00259610333728339
-0.00689325560280443,-0.0121767708054165,-0.0289059809613063,-0.00131431617723657
0.00591419606081547,-0.0229401167008855,-0.0249480448612093,-8.75327832878469e-05
0.0115064330054208,-0.0214334996102278,-0.0244310390199723,0.00129010378255431
0.0330147093828534,-0.00257455671645861,-0.0233761544787892,0.00254972759817173
0.0794506048425596,0.0216398645832349,-0.0182466936080408,0.00285638891982797
0.131951938818765,0.0353232491326959,-0.0105988705551972,0.00200488663963835
0.170041572403917,0.0349612833921884,-0.00627326135199861,0.000834457027299765
0.171588759823994,0.0267328889334279,-0.0050120277674024,0.000289057343446304
0.128046564030552,0.0151385837743265,-0.00228408777181923,0.000570157694717771
0.0694563941516899,0.00326261981246138,-0.00125375501640271,0.00114507959465379
0.029998627689898,0.0117874625639724,-0.00473100534668641,0.00150479657341242
0.00929980746083833,0.0438526702594345,-0.00740051657204231,0.00142758421770638
-0.0226319287794073,0.0740338024016227,-0.00612956792630162,0.000904775447305754
-0.0623746591547632,0.081137367307107,-0.0036616335891287,0.000140636032510301
-0.0674076618727276,0.0222207174164819,-0.00388644944011233,-0.000397978114105139
-0.0582347873985549,-0.085531687507831,-0.00758562371993064,-0.000360490968262766
-0.0884956380804418,-0.119841301133945,-0.0108051067544019,-8.20165312609022e-05
-0.124773029931356,-0.0519301641510608,-0.0106074750384759,-8.31067469033674e-05
-0.100108150241502,0.00374503236031146,-0.00929174949300192,-0.000198782317033377
-0.0283797665997398,-0.0114774222411335,-0.011355384395592,0.000323876381844901
0.0204079354860266,-0.0444075084508252,-0.0157280341608827,0.0012723182884116
0.0323850790847625,-0.0407359785966586,-0.0156723422560568,0.00138077038423299
0.0682426368301643,-0.0173660492899034,-0.00730934780668973,0.00023172783442661
0.131183738250624,-0.019134209037488,0.00576801738089459,-0.00110487469476697
0.150938248011035,-0.0315628197196526,0.0184188393053369,-0.00119138111947938
0.121620727898879,-0.015512048046868,0.0315855365372746,-0.000141086303788293
0.0897425128944823,0.0152548646433564,0.0477086859102006,0.000789805963426542
0.0649596928526399,0.0236000737308677,0.0661857004808508,0.00135350385224885
0.0354765327891655,0.00481444422759005,0.0801499643410806,0.00179197922991333
-0.00764870587482751,-0.0195398574267882,0.0789064491893117,0.00184541897862954
-0.0619377263479932,-0.0297213180908458,0.0661656700252175,0.00138687536733312
-0.0968483690062332,-0.0184215641264204,0.0559850985334622,0.000719184104756627
-0.085431356356121,-0.00488660911067407,0.0495386545084584,0.000243378701547888
-0.0442023955024376,-0.0276976806562213,0.0384117914843064,-0.000187645072692717
-0.0095585926285575,-0.0787494022458371,0.0186492055371995,-0.000642215827867211
0.00694246106770667,-0.104060851330788,-0.00248500692060677,-0.000522849931048916
0.0157380276115708,-0.072834787531301,-0.0145420447572687,8.39231635305874e-05
0.0194730816665025,-0.000886578208125127,-0.0185068844680494,0.000501007376237082
0.0223119171897267,0.0589717135198311,-0.0209631930010742,0.00067478669102048
0.0297915868720679,0.0672523098756955,-0.0226834318630696,0.000830042111468045
0.0307182943212419,0.0329551723533992,-0.0214711386681107,0.000740094935763226
0.0256577985804008,-0.00328213720004493,-0.016975013553001,0.000252507809388616
0.0246812401793965,-0.0122334364462212,-0.00660053420293213,-0.000114753516171125
0.0138909816716703,-0.00959512891366658,0.0120923097779724,-0.000100733000600776
-0.0129407790450316,-0.0268055977004648,0.0324289089741592,-9.78461001513968e-06
-0.0308435683424848,-0.0595262218358472,0.0431328894718589,9.65836816504769e-05
-0.0344333866210035,-0.0764036174902209,0.0429493776474637,0.000338419564801618
-0.0435264454506547,-0.055918625194965,0.0395272217851344,0.000537140716339684
-0.0458557008699337,-0.0102546522651516,0.0370900041248391,0.000514944117813475
-0.0239645925666766,0.0132187446310615,0.0337662518813704,0.00025401959884723
-0.00557350052034917,0.00431696256207646,0.0274806472855131,-0.00017326439785714
-0.019624982810815,0.00233339046835082,0.0207983537777668,-0.00023753810705065
-0.050086320198816,0.0256980928920469,0.0182427620000539,0.000158767089308945
-0.0572437715451889,0.0564894718014337,0.018906886983574,0.000277815897172425
-0.0313111754972094,0.0746989349734785,0.0166174611329846,5.51683456556075e-05
0.00138458464641228,0.0759761295850439,0.00719165995511648,-1.18464953382226e-05
0.0170986200359568,0.0463202106688477,-0.0075875942824289,6.91984562184266e-05
0.0159848669082356,-0.0141021568260381,-0.0188761432296654,0.000115153761088933
0.0131854707371886,-0.0590821857482708,-0.0206520199103655,0.000127672444900045
0.0143745023407703,-0.0576803147271989,-0.0171544204147045,0.000138652954694051
0.016090390660151,-0.027194240090474,-0.0131127131852042,-9.75326467305405e-05
0.0183060673238537,0.00184378446324665,-0.0117918168316319,-0.000954875404049587
0.0212031894268301,0.0148245343931622,-0.0138993675568753,-0.00163335522985743
0.0257823484041678,0.0168527458054633,-0.0136569832773158,-0.000864403742028413
0.0356588132248126,0.0146915559232364,-0.0110970915963822,0.000741666055490658
0.0445507325685994,0.014368081016504,-0.00963586268964837,0.0016710464274859
0.0395618097071309,0.0183116783703148,-0.00743340223902079,0.00152484118444656
0.0225487356455941,0.0235168440060559,-0.00498975698487899,0.000885169122251313
0.00531544401586951,0.0296031568740248,-0.00360105622687219,0.000255853790155993
-0.00794005145303048,0.0347905641940313,-0.00292486508520717,-0.000182085989300251
-0.0192379059284412,0.0395809255634699,-0.0022717307875775,-0.000200703986816463
-0.0293746286177055,0.0415028767322791,0.000742473007570539,1.920675821502e-05
-0.0402741982120324,0.0332858224492413,0.00631773666097806,0.000230362356069937
-0.0532712214558267,0.0210397813179199,0.0145610158129213,0.000371954576953645
-0.0480954442929454,0.00478298143484985,0.0244867377155383,0.000164327653432685
-0.0104849895340999,-0.0254480732315731,0.0312044729219717,-0.000158464604083795
0.0270209818345046,-0.048857678878746,0.0336328163442367,-0.000362089380427747
0.0390199077676137,-0.0390059385443643,0.0351158956111813,-0.000906103486168022
0.0381328556978048,-0.0195827441635173,0.0341675589941779,-0.00193594704166251
0.0303429466562267,-0.0287517547077213,0.0244705234410411,-0.00297051549192239
0.0116012098844119,-0.0493186408282824,0.00819332286130455,-0.0032424201244414
-0.0133206549657674,-0.0395809136855545,-0.006039541316037,-0.00205454307468878
-0.0341067537794147,0.0042660347338697,-0.0151641684273679,0.000207862185894386
-0.0413409229056526,0.0670893396804713,-0.0245950433178606,0.00190362332408293
-0.0431863466274752,0.107404710911203,-0.0353421762720785,0.00216359721202833
-0.0481345833031156,0.0722836741807961,-0.0336601947736818,0.00189056628315155
-0.0362864700174548,-0.00441986082536605,-0.0219340405720428,0.00183915480381491
-0.00289488708851333,-0.048667151499996,-0.0209953350985673,0.00195159859982918
0.0196726497184783,-0.060373203967171,-0.0289436798170309,0.00201578612936684
0.0126872969164838,-0.0668257681276692,-0.0301960649279761,0.00139885111363219
-0.0066485572387357,-0.0607010506540596,-0.0204616898278584,-0.000153371244744787
-0.0118136354534787,-0.0313730754650222,-0.00625838053142289,-0.00212058865265524
0.00327101254689432,0.0122015358471497,0.0030161148390479,-0.00387438348877846
0.0264896643370342,0.0453408087013181,0.00607656215049411,-0.00453146407512282
0.0434655044293171,0.0519365885900219,0.00629517316131129,-0.00372404984276908
0.042686859589616,0.0399165085577609,0.00558788984318025,-0.00227829804692509
0.024876448836062,0.0172558043859689,0.00409948094566739,-0.000903127965385772
0.00453726783094813,-0.00985900630858456,0.00246726785782241,0.00017174405548346
-0.00531524554358676,-0.0286126015859071,0.00453210646477611,0.000845563014778765
-0.00701025093243563,-0.0322718429047356,0.00728280753775412,0.0013058467561348
-0.0106664095716506,-0.0263910092074663,0.00503904897545139,0.00137025950632684
-0.0170970609605814,-0.0203174236687265,0.0016950252228349,0.000843515828760143
-0.018396338138727,-0.0166690773040609,0.00097581571605179,0.00019659897824493
-0.0081632417656332,-0.0104939954887581,0.00221372233787967,-0.000170223990872122
0.00514599814177839,-0.000573349373656877,0.00443862816710105,4.85872422273544e-05
0.00385188885716494,0.00685272805679463,0.00617461162983439,0.000858973445975161
-0.0111250986104921,0.0124529395538391,0.00625909478004517,0.00120446270592793
-0.0306273612089146,0.0222630057159791,0.00268380080074395,8.36571702094086e-05
-0.0489178514465826,0.0350314341157788,-0.00616966244301791,-0.00200765858494487
-0.0475526594608802,0.0467787479158306,-0.0183853237472167,-0.00324322373804715
-0.0225370823726693,0.0545888171320884,-0.0298801493256828,-0.00225140950338774
0.00272872081347442,0.0532357630846069,-0.0359882895215763,6.00551702943722e-05
0.0173500996137067,0.038999362257737,-0.034874443736019,0.00172866083324789
0.023138949860991,0.0155099900915843,-0.0311904777855341,0.00180151864762041
0.014636071096019,-0.00236525448063659,-0.0288341348804422,0.000680777707817881
-0.00559183248011349,-0.00131316317909535,-0.026491375032694,-0.000591811425075707
-0.02042442164665,0.00847814612645589,-0.0246300623619811,-0.00143530763652913
-0.0174947503839848,0.008138130229763,-0.0232809440668076,-0.00181809369780223
-0.00542424045602507,0.000736788561800563,-0.0184317050902546,-0.0019147172136561
0.00168468377114467,-0.00110494232932146,-0.00802481146249919,-0.00196025887656366
-7.34453824698771e-05,0.000878759769350328,0.00274427008815238,-0.00203608624717906
-0.0169983487184889,-0.00413161955039099,0.00872591945166387,-0.00178547360076479
-0.0518217880953925,-0.0236463810079833,0.0105416004358096,-0.000848596754473798
-0.0832057536594935,-0.0521776209433476,0.00987384692455921,0.000346885067789746
-0.0809910322866692,-0.0661935007524443,0.00837642120505927,0.00102630094521201
-0.0440940037594562,-0.0511160204122022,0.000604409376805663,0.00100054397989303
0.0084334185329053,-0.0304927866339562,-0.0144150151653909,0.000761670486164726
0.0515353623185508,-0.0290108053587202,-0.0245269262889938,0.000890151873007188
0.0623285026033525,-0.0330442270223469,-0.0253168580101731,0.00151353928968215
0.0431683196062559,-0.0180048650285417,-0.0201170379796325,0.00188970076797228
0.00977852248095705,0.00766678484877691,-0.0137729337066182,0.00113406413726344
-0.01558791633631,0.0209424424373632,-0.0125535064421591,-0.000196665268364183
-0.0149114699439269,0.0269372929702022,-0.0133514629581762,-0.000773542734502148
0.0103303500824285,0.0358748463496753,-0.0107024287166888,-0.000205540611714179
0.0373733220011895,0.0435756936743359,-0.00899815774946501,0.000779543042678281
0.0367925699415586,0.0466542834220007,-0.0104063917621328,0.000958466595313352
0.0186210787625073,0.0444313780397511,-0.0135382321982134,-1.53682324180652e-05
0.0156777097662324,0.0395485734670006,-0.0154271237113197,-0.00142256590804813
0.0316649791540091,0.0413057240083181,-0.0112712789606547,-0.00269832613515467
0.0510753357813422,0.0508264194639094,-0.00458598167989115,-0.00346708831807343
0.0537843894549419,0.0456743025418112,0.00393166774543006,-0.0033331000456448
0.0229291773057216,0.011619246485295,0.0177197333800974,-0.00236434957806592
-0.0248165647366315,-0.0243092084923812,0.0317531675463886,-0.0010435366134436
-0.0492983792920531,-0.033219513140988,0.0373396621996182,0.000296549105494709
-0.0439386561996648,-0.0221048465728503,0.029284428319879,0.00137382031238618
-0.0415354497231681,-0.0151509060255732,0.0148751792895652,0.00186482096273743
-0.0600090541285568,-0.0136503153357835,0.00703965086912446,0.00158826860318591
-0.0790051918546631,0.000846607964272859,0.00582471792136749,0.000822304332779125
-0.0725517704420287,0.0131030933443301,0.00371537789509967,0.000195498118249667
-0.03755777082711,-0.0138361525043131,-0.00040956558913844,0.000157862948591596
0.0186399677060757,-0.0774048604191588,-0.00394031323883094,0.0009329541505438
0.0806531220886093,-0.115350764364862,-0.00825301872591665,0.00206311838776648
0.129093504875366,-0.0901432330177372,-0.0111346934344196,0.00261982173554782
0.157997700581826,-0.0310402122586477,-0.00935661747073466,0.00235185997441862
0.156971157234145,0.0317916532465823,-0.00871430146632683,0.0018021706477896
0.116038862778651,0.0688016006558742,-0.00980059780390045,0.00108863284203722
0.0577483036553716,0.0675564498649854,-0.0060977329176718,-0.000231062513229761
0.0142078630190661,0.055813124591744,0.00135076745464757,-0.00189784649711157
-0.00506109519781842,0.0513336749550374,0.00718864611553244,-0.00319798475260113
-0.00312222663629753,0.0411301846186306,0.010615198817859,-0.00381446486697931
-0.00456313536951451,0.0244869956843397,0.0131503399002497,-0.00365694106571141
-0.0202172839891211,0.0190159964848579,0.0157861326672228,-0.00260722124722391
-0.0115190427317051,0.0160022360235036,0.0186710607490621,-0.000948646902372151
0.0248712100416932,-0.00104422830012217,0.0198695401831927,0.000420961588824086
0.050932918441545,-0.0164691620787289,0.0192214628194075,0.000987121220742098
0.0598814773558509,-0.00992894575569863,0.0193497723612702,0.00109627150676229
0.0538992375813609,0.00700380180436983,0.0199195251811409,0.00124827798602815
0.0184706531480107,0.0131557138874817,0.0189688305962048,0.0014842699853269
-0.0365606575822752,-0.000280535204931874,0.017774175667091,0.00164036014254508
-0.0740986626147746,-0.0244649579289828,0.0168884204410355,0.0016459021523477
-0.0917954886389177,-0.016748194790915,0.0153051933010021,0.0013953018145299
-0.098887850247213,0.0322474651864267,0.0133528244290277,0.00111779642167959
-0.075750050353662,0.0663815374039422,0.00935546562257176,0.0010125142084862
-0.0311090701461568,0.0605162398131479,0.00319836612867392,0.000780391489093401
0.00507394373709788,0.039530051487337,-0.000450993483094632,0.000333539934207775
0.0298821389648853,0.0207496803806186,-0.00169650396381032,-0.000240750304583263
0.0411931311005067,-0.00420070490169179,-0.00169659769734003,-0.000899194782556761
0.0331317552179602,-0.0423886394329449,-0.000489222096022427,-0.00138978608454179
0.0181716003558545,-0.0659114056553062,-0.00251093789803158,-0.0017460917037354
0.00994680986227399,-0.0500718714558041,-0.00850160487659186,-0.00219997230515493
0.010627001875496,-0.0216880342385692,-0.018075447941337,-0.00249547334000001
0.0166197835454,-0.0129398494828101,-0.0330700883757857,-0.00205816238210168
0.0182272008750389,-0.0256920595638404,-0.0493158309729526,-0.000733274929172408
0.00215347789554683,-0.0341849446945183,-0.05891007937356,0.00097294278988349
-0.0270202502670961,0.000768485206228638,-0.059984670560705,0.00228730958548229
-0.0438651412962654,0.0665872944667513,-0.0567075026789229,0.00267971304203092
-0.0422340466321396,0.10086311030702,-0.0506196379068065,0.0023482997714086
-0.0330148466404314,0.0693159085963405,-0.0401330169888634,0.00193490842810038
-0.0215322459247421,0.00663192752790753,-0.0276707761304896,0.00162055757968031
-0.0180999623922762,-0.0269040774312228,-0.0159473415740643,0.00106385971582903
-0.0258873713250281,-0.0236151278134527,-0.00365457172287866,0.000203170056278196
-0.0302079070652306,-0.0154210716107656,0.00818783897071149,-0.000520879597563879
-0.0239414603596716,-0.0159785128730987,0.0149845508753192,-0.000700294480488484
-0.0227648359640762,-0.0187935372300633,0.0154571999931878,-0.000492661022870279
-0.0326660088278804,-0.019670590210092,0.015705362609304,-0.00020301477444796
-0.0364999536038753,-0.0209493292109969,0.0230257380192573,0.000162471032133151
-0.0317043878943497,-0.0128799842049654,0.0322797351980273,0.000382578673165133
-0.0274373755139856,0.014675238826592,0.029543211656842,0.000230874479781559
-0.0132741173311743,0.0365601358909853,0.0125131404092417,4.81611379407103e-05
0.014863595019602,0.0328383943552839,-0.00728609357262792,0.000207981329606059
0.040171993998458,0.0142273262372683,-0.017634411451645,0.000684621474738963
0.0596587286016555,-0.0166021099886547,-0.0164779070281533,0.00111329209725192
0.0672533567194737,-0.0409769485903302,-0.0121548545053065,0.00116647015513295
0.0448504744874748,-0.0305942224272477,-0.0122583609363745,0.00087724383796883
0.00456545669041199,0.00532075996864862,-0.0165995961823803,0.000360175462415545
-0.0376821578733487,0.0321784254756122,-0.0192036822573205,-0.000259894954021132
-0.078731944295365,0.0333751981989988,-0.0187012752149435,-0.000895025423094876
-0.0868664515719458,0.0246129149467972,-0.0196586287611486,-0.00115100701351765
-0.052348488246455,0.0110452691584339,-0.0203747757740901,-0.000698457307745067
-0.0320853483235188,-0.000642698997418999,-0.0162580792137018,2.50089409159762e-05
-0.0481256314619796,0.0168549626047399,-0.00689619529297851,0.000654616581381011
-0.0507318452471267,0.0465800346887221,0.00579095661434645,0.00109257474668436
-0.0182266176551319,0.0456346524658808,0.0176158804330215,0.00117837660572544
0.0206344581456636,0.0228807987814145,0.0249462161816619,0.000827570253565803
0.0414095467051053,0.00148442242053581,0.0242694452348171,0.00039506938603226
0.044272183296092,-0.017193333179034,0.0183892787091116,0.000496848000116749
0.0420536234374893,-0.0308925870508255,0.0186161251713471,0.000753420462649969
0.0377653216702934,-0.0409904028495666,0.0264472976504461,0.000219203283738277
0.026380189189568,-0.0431934455980363,0.0316028311376881,-0.000921120816686099
0.0134016092044983,-0.03163737717516,0.0287829364942647,-0.00166822208179913
0.000930642054310444,-0.0274161991172284,0.0212376716028311,-0.00152191023260129
-0.0177016064911065,-0.0375391918008598,0.0144181776277494,-0.00062288764028082
-0.0320216380444463,-0.0290290290865391,0.0140163583911238,0.000475522161453407
-0.0244492625105928,0.0108601009413904,0.0198733347059113,0.000999070867511526
-0.0041204770217452,0.0525939040897953,0.023704450864375,0.000790049042852605
0.00373332183898726,0.0696598237662222,0.0185520605927258,0.000347728180920238
-0.00823313281008839,0.0664223851832759,0.00576926580833592,-7.57417314473716e-05
-0.0270219229525911,0.0601856912332926,-0.0080109776987227,-0.000214858523621642
-0.0349662678273176,0.055097536876953,-0.0171146486690807,0.000178586607030469
-0.0261545903397277,0.041147317712326,-0.018371250870592,0.000481117276523345
-0.015492038309811,0.0148608385132117,-0.0105156189599617,0.000167864931847565
-0.0145749182590842,-0.00847384966950902,0.00332486210088176,-0.00040016693449018
-0.0155606291188814,-0.0119227296318477,0.0132429483948502,-0.000839384251113306
-0.0141696709592159,0.00182879303068272,0.0116453577255276,-0.00146045063610803
-0.0151670826183457,0.00648841134541484,0.00144519710451192,-0.00278495733017474
-0.0167338467178085,-0.0116610668470146,-0.00460980431641714,-0.00366701250430324
-0.0113385279578296,-0.029415656153913,-0.00109070578827748,-0.00269970215049014
0.000724389561017506,-0.0385127071598595,0.00309454601399572,-0.000788017609341356
0.00801483312046479,-0.0527251405773366,0.00459307403073814,0.00066161034996999
0.00705990344074412,-0.0623377332978447,0.0046387843233244,0.0014929111350294
0.00486426389273551,-0.0536083863378891,0.00315689175444554,0.00226758636050542
0.00493118841093018,-0.0357103873438516,0.00300085865076892,0.00295745747998972
0.00774305654272227,-0.0214322761349596,0.00558710797813705,0.00276884364881181
0.0087682293153658,-0.00816693920562524,0.00847407235474477,0.00153809711468967
0.00324876651376355,0.00673341409032921,0.0081479586763012,-8.21787260477792e-05
-0.00406972535810754,0.0101688919221552,0.00049697387294606,-0.00130754399134684
-0.00776221644017536,-0.000589423390711042,-0.014953829586638,-0.00154232658779792
-0.0100711359749973,-0.00480057259084879,-0.0256306008709575,-0.000664674070620439
-0.0135549177180846,0.0119724408011865,-0.0178249713348107,0.000613362023973921
-0.0151070973654938,0.0307682871025597,-0.00262465979258055,0.000778003400585786
-0.0130991426367052,0.0262023064813327,0.00195536239124383,-0.000225748090318612
-0.0117542068583361,0.0082925165315143,0.00101070142744527,-0.000480363661481478
-0.0106581629227513,-0.000808286583581889,0.00279084835868571,0.000585885024300237
-0.00243235709756487,-0.00268378079041953,0.00156232273746914,0.00171758664852438
0.0133341309988844,-0.010594156564729,-0.0057557493763932,0.00196248768578379
0.0251482084957417,-0.025656064234401,-0.0131696542414736,0.00131817958362172
0.0231472474081194,-0.041644990059069,-0.0174557651029447,0.000342426930039357
0.0125872981039106,-0.052526437733528,-0.0174127384773018,-0.000471781040888127
0.00858984698113664,-0.0508118551176419,-0.0132244662406403,-0.00105795682909923
0.0157952275614701,-0.0406466923675677,-0.00921845143498391,-0.00128709476891945
0.018508923925568,-0.0319467950409083,-0.00542623698450342,-0.000995680192190164
0.00467981406195197,-0.0233425334785814,-0.00219889997415346,-0.000389883705307804
-0.0107373323199038,-0.0123243412565098,-0.00205526920426124,0.0001025592748219
-0.0134970200945065,-0.00179124625034161,-0.0020955560884788,0.000185162468938516
-0.00933381832514182,0.00448792852492757,0.000583491115961093,0.000230671984189031
-0.00419359314282068,0.00557465253087785,0.00501833103476803,0.000787584024542017
0.00227107109754818,0.000786152650517393,0.0076317583609311,0.00179863025648274
