0.0593875989475817,-0.0751599676664505,0.00939992454473053,-0.00160733176150582
0.0426500279451425,-0.171470489195967,0.00371280884780847,0.0008559544507601
0.0420061331793208,-0.260642090447881,-0.00136838354421535,0.00419324377713344
0.0339453036754676,-0.201615567789152,-0.00340599128520856,0.00784446507732109
0.0120042186136855,-0.021335461317721,-0.00545678413740787,0.0107625034202681
-0.00456079309774403,0.120490972112369,-0.00874207757975868,0.0120928523656806
-0.00346534433472486,0.168323941768848,-0.0103080674179219,0.0115704224252198
0.00780721837594617,0.162060894563283,-0.0109679758894826,0.00947836474950194
0.0152749135615213,0.134048263076308,-0.0143100065198231,0.00655816237884252
0.0185338783590687,0.0968254925797317,-0.0189235217450269,0.00383383143093595
0.0178798317548997,0.0521576523128567,-0.0171609129858231,0.00173848870891143
-0.000630133298201246,0.0105220659670696,-0.00890645045087211,6.19440569057201e-05
-0.0335471057234523,-0.0167894735050411,-0.00223071223138336,-0.00139147230233539
-0.0549992960315855,-0.038813102398215,0.00197678581521357,-0.00269677690283317
-0.0564706917052725,-0.0658196650437092,0.00546654848992948,-0.0035941959976131
-0.0473412421916247,-0.095877481912105,0.00749075009486704,-0.00389054890604309
-0.0306042275485307,-0.105701190431672,0.00906667652777472,-0.00381527989269932
-0.0124624155853204,-0.0657155411341051,0.0115176275267345,-0.00372531169324671
0.00147844029624508,0.00727409245657457,0.0134615419559188,-0.00377307514996122
0.0170292302668686,0.0684842173727629,0.0117859830413185,-0.00356792854363817
0.0320781149958701,0.092577158642649,0.00670385510871093,-0.0028109137567923
0.0430756477074823,0.0740747185105992,0.000119908163666617,-0.00158871246732551
0.0662145033318172,0.0659363261338263,-0.00490702191051919,0.000195288727067339
0.101450498141908,0.125099019144338,-0.00655734993600531,0.00235396970424266
0.103323505993525,0.17872758955145,-0.0067906133151334,0.00413322613931831
0.0571566066062928,0.145302168258166,-0.00631737108903612,0.00471070911167455
0.00970416480377723,0.0745498616168209,-0.00957255122077828,0.00408372881507503
-0.0127107678983386,0.0343629742886842,-0.0193550507324996,0.00343518779618077
-0.0200805499400317,0.0153731479341862,-0.03046367940512,0.00388067373958776
-0.0267853690910842,-0.00620964305654523,-0.0347204111031724,0.00532504713161272
-0.0458707375288742,-0.00940838854345032,-0.0251543616858589,0.00651722993098636
-0.0791689839937535,0.00882383066647495,-0.00827349543642197,0.0059345818455064
-0.117232607669216,0.0148235725600039,0.00318308841593653,0.00291985674383743
-0.15223447338027,-0.000978064686476848,0.00739348837752239,-0.00160054445984343
-0.160267350611357,-0.0235572119405881,0.0067788393963,-0.0053275817992397
-0.13563968325015,-0.0377045286445787,0.00386516078214716,-0.00620170155420779
-0.121196785514493,-0.0356731972861891,0.00273501473290996,-0.00417737720141968
-0.119808148029326,-0.0232775868263668,0.00114363840515748,-0.000727878615161858
-0.0852027182773312,-0.0170362919828357,-0.00278893474419915,0.00271207835603812
-0.00605114338916585,-0.0279700643285981,-0.00564312669546633,0.00496781531231762
0.0822527845039212,-0.048330581225642,-0.00694648013840665,0.00535446486547898
0.148579540532219,-0.0463869623847113,-0.00684037571123092,0.00445810520557883
0.180932536484388,0.010986142886932,-0.00585995030785508,0.00354577416487984
0.171509854664579,0.102737563010069,-0.00518188460393508,0.00339719051593562
0.127831274745032,0.142988759363167,-0.0052234161708574,0.00395545129652239
0.0678790667934528,0.098156304851986,-0.00620583149344332,0.00456492485333233
0.00206353719712737,0.0325515337393493,-0.00734580218199771,0.00488401155299981
-0.0584540043351958,-0.0116356437028234,-0.00826242518005285,0.00489942986766587
-0.0935937642214965,-0.035751356775658,-0.00905826531811541,0.00440414190218581
-0.0945333937511941,-0.0379029631305203,-0.0100279175918523,0.00342678379408041
-0.0710085918058143,-0.0273525670854996,-0.0101257904790353,0.00251688301194061
-0.0111508077102421,-0.0241322879835584,-0.00853648073152147,0.0020963073527905
0.0853100482340351,-0.0289854317874561,-0.00677830807690331,0.00184969348729992
0.1455978691236,-0.0229242105797,-0.00644162147673598,0.00118933756224344
0.123271681942401,0.00439171453884397,-0.00659273751273554,6.51119894292994e-05
0.074914895399032,0.0398975812431467,-0.00590845882670929,-0.000937819313536139
0.0522427566782183,0.0560145299158955,-0.0053176771909371,-0.00132861744388667
0.051100421470451,0.0533430945371274,-0.00446420602703206,-0.00105566986107433
0.0587125835023886,0.061761086609738,-0.00393573949576679,-0.000489515768041078
0.0543694643012697,0.0776107709512584,-0.00663300279663772,3.91657050609468e-05
0.0391161793359314,0.0702881567030235,-0.0100722438634721,0.000572535981914083
0.03540156177058,0.0330541345815689,-0.0100539203232978,0.000659837092582544
0.0265841483057252,-0.00761096988540592,-0.00696173595006723,-0.000290958095374514
-0.0106680305506131,-0.0198187213439294,-0.00263675126324829,-0.00178681723445161
-0.051552301260145,-0.0053430166225954,0.00131710723217767,-0.0025601950332387
-0.0669951326914235,0.0172666452100626,0.00432714713171531,-0.00189008967249188
-0.065582519879332,0.040623544498554,0.00578048692673161,-0.000390726360259346
-0.0621849020704873,0.0562583473856378,0.00619892518987525,0.000745616625355762
-0.0471366530779701,0.0610084458789554,0.00703757748753726,0.00114700346726402
-0.00578071494484686,0.0592307642191427,0.00770168640470117,0.00128149778734982
0.0492587434803217,0.0532457239722608,0.00867353258869411,0.00143752981510239
0.0887825888061425,0.0470449132000499,0.0105067742602388,0.00156126062890427
0.1049165865248,0.0385606960715397,0.0111227055579084,0.00154526885089342
0.104892631448972,0.0231119156948677,0.010980185472565,0.000859922708650006
0.0940179394503689,-0.00981010905436616,0.00934461287300978,-0.00108930902761799
0.0801509551443735,-0.0736333601638565,0.00366954925711979,-0.00341257788549701
0.0616855915734235,-0.127644808264131,-0.00208063508882665,-0.00428040839723672
0.0284416355121398,-0.110058247250883,-0.00362659619853273,-0.00331377530020304
-0.0127436927736509,-0.0386207586174855,-0.00272864439350213,-0.00178303818664647
-0.0391266837814761,0.0281558761022483,-0.00284365416123465,-0.000798435876002868
-0.0511856707439179,0.0646400384072183,-0.00299760954703842,-0.000600806939272917
-0.0670179590829985,0.0711565658813605,1.0085466550613e-05,-0.000967978526661136
-0.0841032976776786,0.0622169908605647,0.00621950528578176,-0.00141926653723162
-0.0886581207533063,0.0554822677032643,0.0126369086409053,-0.00154360409033224
-0.0801999951347836,0.0542333629885012,0.0147732062151722,-0.00129557535703571
-0.0691226405775164,0.0589051262058266,0.0126229497012433,-0.000885931148502949
-0.0612852054085521,0.0635846042420024,0.0102302377854993,-0.000275518069797077
-0.051639280539868,0.0364843858424395,0.00787219039254009,0.000775935432804313
-0.0311514962649679,-0.0120458029908344,0.00466945575270324,0.00186000870174267
-0.00442517128659885,-0.0290936371964271,0.00278692185345428,0.00219341181772333
0.0146827375246881,-0.0279253673556748,0.00232296596976522,0.00131266227482269
0.0291675818045056,-0.0355809780444721,0.00317831869856616,-0.000680910616980101
0.0443191439054805,-0.0116014799888092,0.00719533731631702,-0.00275300777875442
0.0430154497071985,0.0568916722351365,0.00913639283345543,-0.00388429896513896
0.00922047719931955,0.0927407997100914,0.00455404356376335,-0.00380565613077323
-0.0398700048731029,0.0537674616319155,-0.00154919881924635,-0.00273685986790886
-0.0693015967997657,-0.00150269286004925,-0.00564595121034668,-0.00133934889459831
-0.0658483505847287,-0.0227831156910862,-0.0062227993432026,-0.000252232896952519
-0.0463230097213685,-0.0227038470168495,-0.0024162170627446,7.69955858038892e-05
-0.0369933709208872,-0.0222940542659983,0.00287681707468393,-0.000377512187510323
-0.0536539872342249,-0.0128621543939137,0.00641127130050433,-0.000910946663334795
-0.091581373712289,0.0236913086127293,0.00685599413276564,-0.000666238265760357
-0.129420958766823,0.0649955502130018,0.00613207418444852,0.00045426102100547
-0.145512303302298,0.058439597542677,0.00676807279756537,0.00150200022686263
-0.132074261789905,0.00198786300135526,0.00888466989674907,0.00130205635622398
-0.0964414726962764,-0.0708567526228845,0.0113631714330498,-0.000371395611464477
-0.054395963382134,-0.119778823883739,0.0117340640033347,-0.00249129374232861
-0.0222269798921139,-0.0961238659843899,0.00840255014314505,-0.00400476952567659
-0.00367307577068102,-0.00906536709195299,0.00244010554458323,-0.00449407041342946
0.0141117686666898,0.0849919690974074,-0.00312923172546726,-0.00365094577554349
0.0413793050154796,0.141766475907168,-0.00489854187917075,-0.000979318818713601
0.0715379857515299,0.120598430840048,-0.00295366055692955,0.00361426559333694
0.0885722461178054,0.0404153429106054,0.00131821775691813,0.00804234850900567
0.0902341944960309,0.0185833744688481,0.00766831870711443,0.00932076346690033
0.0864216019732802,0.0805348975610749,0.0119426139858914,0.00739819643976095
0.0697082669087639,0.081756899631215,0.00963606612990768,0.00409678463995308
0.0401816179699718,-0.0574291157980564,0.00358862095587015,0.000355498871570705
0.0207403140239859,-0.227387060532585,-0.000285859553948652,-0.00287929483684417
0.0110390912857195,-0.269143174377069,-0.00155939887464201,-0.00465110685031903
-0.00594366671748311,-0.172846826580491,-0.00369923882884227,-0.0051898374382984
-0.0246900976235695,-0.0602949860543293,-0.00695431299857812,-0.0048931688170181
-0.0306884137356329,0.00324126492066623,-0.00637910170553139,-0.0038427825197937
-0.0241711965641788,0.0272012945050559,0.00152291277261786,-0.00248474767135776
-0.0176094675440224,0.0261741262545409,0.0120572607033577,-0.00123325652284495
-0.0169562899070376,0.0121696495037364,0.0193794766389577,-0.000283139916644189
-0.0108223894049039,-0.00428669133652118,0.022574201194633,0.000133561336731612
0.00599477537090133,-0.0138089963830996,0.0230460586099601,-3.34048798834724e-05
0.0187129489277379,-0.0113252656619361,0.0213110244525218,-0.000400065096147756
0.018056237220098,-0.0071942960066952,0.0169453763659411,-0.000340512607437373
0.015589324831157,-0.0211833450949648,0.00888505484503071,0.00051322363411507
0.0212727871257846,-0.0464843385419954,-0.000101837648677851,0.00200684685039036
0.0293616961803862,-0.0571203699234401,-0.00253047716094262,0.00354916568227653
0.0327976682193667,-0.0540527988513403,0.00209591139838909,0.0043216371018754
0.032218191260314,-0.0501292791753117,0.00581417293614085,0.00372745571863258
0.0328232801299969,-0.0417836006364277,0.00386069729259939,0.00190391458517943
0.0316902344366756,-0.0251111466038178,-0.00104947894309715,-6.38707584031317e-05
0.0143501931543518,0.00768431442846331,-0.00566192044412573,-0.00113710145501456
-0.0160902040436134,0.0506081804556951,-0.00661698419491465,-0.0020160341844616
-0.0303340622250421,0.0651612880504626,-0.0037572975438325,-0.00462611054105348
-0.0197375860901092,0.0340955182818874,-0.00240113207255199,-0.00940872719833362
-0.00830507000035689,-0.0164128947726127,-0.00242969940374724,-0.0143785737412755
-0.00795251490734802,-0.0571463459490194,-0.00148687432922891,-0.0175190995702538
-0.0128963423220283,-0.088022754711242,-0.00116563380453883,-0.0210122332112003
-0.0217093409786437,-0.102376211516308,-0.00120359050379424,-0.0303624494367972
-0.0364465478030386,-0.059976041672998,0.00129012202612252,-0.0438556092348077
-0.0741348306006822,0.0268283575140101,0.00617069784293754,-0.0513348015943275
-0.141386288926752,0.0946027704748963,0.0111536163949122,-0.0444581765860922
-0.188934884270806,0.137212045610579,0.0165173138098567,-0.0214804330817802
-0.176142250087626,0.176322422590095,0.0201071075721029,0.0139208638808795
-0.126533141785399,0.187310638233651,0.0192068459220291,0.0605392643514118
-0.0705831030634503,0.140807759642768,0.0169865963223917,0.115503568615235
-0.0166653452147372,0.0636896786098818,0.0144584745522773,0.156925408205629
0.0274877739161407,0.0340329584006619,0.00989479954216045,0.154937380335097
0.0541943930082052,0.0730370833927035,0.00253604522932988,0.104304048485049
0.0628707512726219,0.0720718095473257,-0.00733500705713748,0.0278954551267139
0.0736357511946346,-0.0563316730042379,-0.0165118670537351,-0.0465483527816582
0.110457415537012,-0.202204296331229,-0.0232530120583472,-0.0997466108418357
0.144229969068855,-0.193952879506766,-0.0270685288199577,-0.122677653747574
0.116750541555513,-0.0507028041992949,-0.0276745937999888,-0.117220353890395
0.0319271522546658,0.0712986293235827,-0.0258455340736017,-0.0931337862752298
-0.0480658147354572,0.101958662031002,-0.0207450424666556,-0.0613908258601233
-0.0836337508561154,0.103258290146043,-0.0108464788921003,-0.0298916841933852
-0.0932115227431145,0.126569049753033,0.000621107614265759,-0.00292871487079155
-0.111236486696798,0.151868371665541,0.00642662167456119,0.0182923928893303
-0.126782710368772,0.148195438827292,0.00520756289802559,0.0339051371933348
-0.113308768847982,0.0961940060277512,0.00295838310858809,0.0439895284169704
-0.0845786421232145,0.0215697599725621,0.0027520395711738,0.0487742051033492
-0.0618858119047038,-0.00598030069746838,0.00224427308069268,0.0490358502531297
-0.0436508644997187,0.0238139728145185,0.000138132692426263,0.0459507076972047
-0.0281574012763558,0.0562956249174236,-0.00216758405231473,0.0406035501285514
-0.016272160093353,0.0633847982948628,-0.00313154215694183,0.0336631943466832
-0.00260126112799626,0.051342320536435,-0.00272124680329195,0.0255884560336042
0.0126195057400411,0.0325269799579334,-0.00278504818874269,0.017362897474528
0.0254778367080902,0.0169000829736537,-0.00334295279503251,0.0101274355171787
0.0352128137243699,0.00614362038088568,-0.003027476558036,0.0042071264039133
0.0426218516911921,-0.00748739751771786,-0.0030946828498821,-0.000462179551891255
0.0501274398887111,-0.0302528414974063,-0.00442429602912608,-0.00385968913014857
0.0565224883070297,-0.0524043797442607,-0.00553980224320259,-0.0059405133773851
0.0572680113718317,-0.065584935123798,-0.00442534294106857,-0.00703352365387651
0.0477022849977927,-0.0730227807816476,-0.00306580237247624,-0.00842216494163374
0.0259707799253995,-0.0743368354323956,-0.00325658695015828,-0.010720202237236
0.00199671427469736,-0.0696555140862869,-0.00250647194641526,-0.0126401636135585
-0.00902588647507541,-0.0653126842770511,0.000465414899409225,-0.0132815879598069
-0.0124324787888399,-0.0632564131317267,0.0020249457414164,-0.0131162734416874
-0.0329247830860541,-0.0642966679557544,-0.000227964774496377,-0.013336427453074
-0.0668851114712704,-0.0673944857309681,-0.00191013727554386,-0.0156321367358813
-0.0775927828267845,-0.0648712303265371,-0.000541608771106334,-0.0202112918532448
-0.0568236623256141,-0.0609691691099047,0.0012365179532782,-0.0249169542024175
-0.0227987434644982,-0.0602529839848176,0.00166536822181811,-0.0270156024840382
0.0235076775224099,-0.0661899226135577,0.00205509721057857,-0.0243903803492874
0.0848256192761695,-0.097739570796394,0.00227721980998446,-0.0160954164725611
0.13922911162808,-0.142359729031204,0.00142150589538763,-0.00269648330147327
0.153240883413107,-0.153135601685067,0.00131625122817502,0.014031335013624
0.126058840452156,-0.120523133138456,0.00304956053873908,0.0278930425809508
0.0904563957761865,-0.0636568054280615,0.00503464204925185,0.0296701002770553
0.0667678918359782,0.0244740685349561,0.00651744956960945,0.0187006721884088
0.0470223209758591,0.114033136051128,0.00779540211144505,0.00345221680654371
0.0136645621204441,0.131794639805958,0.00697677909995251,-0.00939836243407718
-0.0346357764193549,0.09314664524841,0.00446216469423447,-0.0182448549573022
-0.0717104319962921,0.0582308752049148,0.00316832778835292,-0.024194303513221
-0.078392639678165,0.0301814769660114,0.00198761535437414,-0.0285244795733057
-0.0717974073268088,0.00116828051963197,-0.00086346764744793,-0.0301999140018292
-0.078123125611228,-0.0154570974776738,-0.00250007555990352,-0.0272597303040383
-0.0931360742928899,-0.0173402463279654,-0.000457641126825081,-0.020578577215424
-0.0875429042449558,-0.0176334970302254,0.00402128091388187,-0.0140290465150405
-0.0530861051500495,-0.0193464896075964,0.00866143786752603,-0.0105621543427959
-0.0106087570194428,-0.021646304361385,0.011158453768483,-0.00970107737059659
0.019513014817244,-0.0247696011754892,0.0107217744682383,-0.00902665739995536
0.0300908836449628,-0.0267527103315866,0.00899075799378189,-0.00627559594584262
0.0275143461336973,-0.0283886445226113,0.00722828175269226,-0.000720805721957939
0.0208722532720342,-0.0286220373211924,0.00560040498533308,0.00640526294631037
0.0140397981896828,-0.0221725175333683,0.00581520431791797,0.0140410056133508
0.00855708293525005,-0.00544288230186858,0.00681920863615285,0.0246699769614283
0.00667319234093607,0.00864927161007928,0.00508191045934663,0.0399028360221163
0.0109626763751053,0.00442129522115085,0.00324635197416868,0.0499605854347613
0.0166099639325942,-0.00472885175704236,0.0042146418485133,0.0405730568025511
0.0200744739583087,-0.000186465376121592,0.00403118816054776,0.0123513464394821
0.0243063795612408,0.0138768890432018,0.0032069269809597,-0.019303559586736
0.0306572792651233,0.0202636060930527,0.00530943803567323,-0.0404092306715671
0.0407532308137824,0.00232115055213943,0.00609974877525127,-0.0487865675163994
0.0528994465630892,-0.0102759449833796,0.00363435820424029,-0.0510541868706929
0.0569496516737774,0.0185481870516837,0.00277878787236587,-0.0514419537030704
0.0434517148387199,0.0459935434174629,0.00567607624901557,-0.0473249106591809
0.020722285854411,0.0330757596609106,0.00881517423371766,-0.034539904239803
0.00626247990086121,0.00932498959060192,0.00779425951076348,-0.012138007762901
0.00100232055909519,0.0112341608127017,0.00346537854734711,0.0168489518435304
-0.00691886607667501,0.0397360521946883,-0.00123683803552298,0.0461418280184641
-0.0170854023142546,0.0657778872158642,-0.00727114301511689,0.0696345293828073
-0.0190059319573775,0.0649153496776968,-0.0148506385602922,0.0839944846763048
-0.0142796134751355,0.0449246563257511,-0.0182603090891794,0.0846685902652737
-0.0147964366379282,0.0272248093139184,-0.0118732058258832,0.0669162680955631
-0.0215869759506793,0.0154863685485776,2.5036117796657e-05,0.0367261273003951
-0.0222339854183611,-0.00445131879618324,0.00814445019177963,0.0092371632910455
-0.0192358917379126,-0.0379469764570006,0.0107372343067999,-0.00668015974329974
-0.0275467506417914,-0.0691491050777251,0.0103206730987246,-0.0133533235974308
-0.0414528874163813,-0.0782807961294709,0.00799809813108106,-0.0170219699028261
-0.0463647095458165,-0.0628030367787462,0.00525521646878338,-0.0213783901501315
-0.0408004338292647,-0.043797317885701,0.00252360200714509,-0.0257784643533012
-0.0312945757844326,-0.0294310583530603,-1.88242372344828e-05,-0.0270254075143057
-0.0253038349713174,0.00184841228610756,-0.000780079926314702,-0.0230346836784072
-0.0207847339470381,0.0484337721310578,-0.000212133902785165,-0.0149156910447185
-0.00308840689694063,0.0797029096021404,-0.00181448649772868,-0.00545765838667948
0.0342208270588463,0.0882908340075569,-0.00705516378660851,0.00336242256556695
0.073550980104477,0.0738820814849679,-0.0141672168784818,0.0107479202607798
0.0959407832673008,0.0229360017729247,-0.018823070084683,0.0163501377897962
0.108205516101618,-0.0238880911051516,-0.0158983343066745,0.0198614908481609
0.114453410537268,-0.0102603137857885,-0.0078597278221435,0.0208497509606427
0.0860412988478203,0.0232653444621745,-0.00309734501055338,0.0193194742549786
0.0184036477898983,0.0252226914016592,-0.00317571669940451,0.0159842567351248
-0.0415684450083976,0.0143648434093893,-0.00419223275294338,0.0116346385828168
-0.0666242021265138,0.00333099820273992,-0.00512180405865567,0.00713701383439445
-0.067912419910093,-0.0103085297214155,-0.0056715613526928,0.00350065475737493
-0.0614431517140883,-0.00466157078538301,-0.00537996442739253,0.000863000536251931
-0.0571807374218695,0.0272633375741715,-0.00548979530808883,-0.00138088500813879
-0.0525818088178055,0.0535611355935057,-0.00568297506805123,-0.00354607750581905
-0.0396436310937937,0.0499286586273631,-0.00459589669355355,-0.0057016650134365
-0.0159272789656323,0.0238082739625811,-0.00452178988299268,-0.00786683938933723
0.0105202677020463,-0.00819953787703871,-0.00502075741889349,-0.0105116897380574
0.0323838405850813,-0.0358046737578255,-0.00251364223007819,-0.0141281213685041
0.0525178769072956,-0.0302466743678168,0.00107148866834987,-0.0175850486207449
0.0599010002670713,0.0287115954982923,0.00292117332529431,-0.0189519892323805
0.0333201261070335,0.0728851529645476,0.00342440252587635,-0.0176351751590154
-0.0141971454756165,0.0238396335645099,0.00361139678605639,-0.0145481979125984
-0.0390008892437214,-0.0973627758763025,0.00379279896585229,-0.0111813817743793
-0.0265406677824154,-0.20573722217372,0.00312154321092934,-0.00803571050547736
-0.00272800132909656,-0.221035381109538,0.00155509210130088,-0.00407765634779073
0.0128069481610255,-0.144639319455467,0.000470961601309416,0.00119907416441417
0.0204259741831937,-0.0502739307738015,7.49209783349226e-05,0.00675749230965914
0.0248380004989902,0.00802164858899079,3.93551745484725e-05,0.0113242137206975
0.0239668298402104,0.0245015923701551,0.000407265432655077,0.0133739780372744
0.0190572004011569,0.020508383854411,0.000145070999635601,0.0109888577964753
0.0223657665026727,0.0204807212710102,-0.00134127566640037,0.00372827016830595
0.0368888206637826,0.0453061533605039,-0.00371305299802136,-0.00636963645565369
0.049517994118197,0.0980772639869768,-0.00698676086484025,-0.0156096672154428
0.0445238596466674,0.124827367494538,-0.009935675778904,-0.0208663571772706
0.0208518930219306,0.0844698910084153,-0.0106776287788015,-0.0215572580181046
-0.00612989065014431,0.0253778081640022,-0.00852317794668728,-0.0192081826435042
-0.0208823587550958,-0.0112143520946276,-0.003214853294451,-0.0155861451783324
-0.0212748054854287,-0.0354224807099564,0.00274829395322186,-0.0113337040026389
-0.01321887269127,-0.056381427436747,0.00571336281287468,-0.00640365948749686
-0.00123234893089169,-0.0761571889583846,0.00673150819377031,-0.00129520674450678
0.00419554759707347,-0.0790664701217544,0.0100888208428181,0.00291999710240821
-0.00933838535707347,-0.0435420538648529,0.016217059171807,0.00546163837869571
-0.0309161309981164,0.0213702219070738,0.0206466063341539,0.00630361623237225
-0.0403179412471209,0.0940272846448631,0.0214411308409253,0.00574870313935697
-0.0406061996627285,0.148657816528111,0.0222646217788124,0.004115636090674
-0.0326037676031429,0.157348449831236,0.0241600508182312,0.00210881478696994
-0.0103168459211026,0.121597702372749,0.023245830483313,0.000628553944802131
0.0132711760825663,0.067929565795987,0.0195020950166849,0.000260673602957517
0.0270706079381827,0.0231428971454193,0.0140524921760724,0.00102125488948133
0.038706417905252,-0.0166114932072846,0.0067759537290711,0.0024530907720766
0.0610742976783496,-0.058328595843135,0.000793638227245458,0.004088448638027
0.0892464796326437,-0.0814827739122466,-0.00483220138360245,0.00537195630411978
0.102418457903772,-0.099783820986386,-0.0159829022529941,0.00585713314941216
0.0876640226238806,-0.13816455471679,-0.0283864114562392,0.00561178497726564
0.0539443886156569,-0.193505390057878,-0.0318269551588598,0.00485363852927257
0.0277298930711611,-0.216919440917466,-0.0281785406989309,0.00401386298827799
0.00852206893687654,-0.127609925927166,-0.0223951014475281,0.00366494455502283
-0.0226565264385827,0.0368249916349177,-0.0128976981941285,0.00341492398964941
-0.0506010533302266,0.144880912084073,-0.00129512523264119,0.00199191783137294
-0.0534386971063444,0.164077681512239,0.00807759184423087,-0.00102985370046308
-0.0373318006059747,0.146678752503004,0.0134691240609183,-0.00429299018220756
-0.0195067294746321,0.121916116724644,0.0149705169630835,-0.00571913538451518
-0.00746082498357713,0.0969240819107978,0.0132860299962827,-0.00453713711426838
0.00179123827041264,0.0738009349276549,0.00893295749525157,-0.00175146915130238
0.00690557955463484,0.0505434780005478,0.00536657182451501,0.00122572217522056
0.00464904049364815,0.0269441623628898,0.00417236124868686,0.00367063404086285
0.00244725633601449,0.0147555096954056,0.00172285239660121,0.0054192742143894
0.0034351275248527,0.0206187022907218,-0.00200196914895391,0.00651793516855306
0.00054939019188871,0.0254488724375093,-0.00436965874402581,0.00694384782962029
-0.00492384724020563,0.0164893667189831,-0.00395354979787942,0.00657642021693031
-0.0047448360550248,-0.00478960105522532,-0.00142009744212216,0.00558050586315941
0.00681946505396119,-0.0391079976946492,0.00124561590811877,0.0042807813328323
0.0238298565247325,-0.0773209997298877,0.00344756567216417,0.00298705216660603
0.0376375829285927,-0.104291594937261,0.00387579289421627,0.00192565181076721
0.0435978332630653,-0.111769677973789,0.00216458300639231,0.00111334138763719
0.0283873665179243,-0.104652605800337,0.000364058339362365,0.000567885987097149
-0.00546784657074992,-0.0995890039640123,-0.00101160901757042,0.000496223373496843
-0.0302920774457419,-0.107926930230067,-0.00473653193165544,0.000987687269041633
-0.0303173756558608,-0.133390447169364,-0.0104747186065199,0.00167439922171248
-0.0140799969457781,-0.161517970128671,-0.0123325670232655,0.00185583449914272
0.00963911499923225,-0.156954446286725,-0.00915243250838543,0.00119043102367356
0.0309452423976869,-0.107006306608507,-0.004806913953922,0.000118861225932804
0.0325958453904156,-0.0389800963138468,7.72831245844573e-05,-0.000951209908124106
0.0144265286415977,0.0144460431267756,0.00392622770245975,-0.00197117524206443
-0.00546231756994219,0.0467442851778127,0.00253171192810728,-0.00258410351758609
-0.0113918332977968,0.060646280284069,-0.00324410194631484,-0.00244743737227978
-0.0136403082025992,0.0504051299692211,-0.00685475925327199,-0.00174423562996193
-0.0406177295762559,0.0308530579255725,-0.00589772094794034,-0.00080163253446979
-0.084436210999659,0.0211002892502546,-0.00397750876890563,2.35217255084537e-05
-0.103134084695932,0.0128518893072254,-0.00399588527135264,0.000300789744713531
-0.0857831311777648,-0.000402942689095631,-0.00765689298738805,0.000179147431656955
-0.0657732574728602,-0.0140287108247756,-0.0110694148890125,0.000134400451703056
-0.0671855168619243,-0.0218550186429244,-0.00849060022824708,0.000147614434363795
-0.0748975731951317,-0.0176054873880245,-0.00260662502774568,5.89945011044406e-05
-0.0586140425107607,-0.0135794374238068,0.00178408366146917,-0.000277276900385523
-0.00982033389064461,-0.0188999935880444,0.00386467474247158,-0.00104218981745642
0.0470751496830087,-0.0227161342555728,0.00497454164688701,-0.00205929694874221
0.0739816787814215,-0.0143307181992781,0.00529616719263545,-0.00276498773426979
0.0506379499458901,0.0227837970502789,0.00448728802195666,-0.0027498853263988
0.00894220125255822,0.0740744075220822,0.004893327060579,-0.00191223348939004
-0.00190767778933432,0.0653978351246096,0.00659495276403219,-0.000486976351267703
0.0175623018732241,-0.0277414492968241,0.00659007057763783,0.000961931513022819
0.0351538630402732,-0.112211981591014,0.00368700940949185,0.00218679741978532
0.0368533587966475,-0.112633752124884,-3.52108034546959e-05,0.00321392012906261
0.0284952386961067,-0.0494377474690817,-0.00102066063881946,0.0038692472769287
0.0164424772048246,0.0262782662601828,-3.71983777368704e-05,0.00389127634392605
0.00239076216536835,0.0730391354236323,0.00113276312508093,0.0030999054554788
-0.00929117696916017,0.0818290438892564,0.00245901214774113,0.00153111807816165
-0.014592767864045,0.0619111111828451,0.00107925990980133,-0.00021836272943397
-0.0209348357283601,0.036058229414878,-0.00293799485600851,-0.00135857198226797
-0.0267834978681173,0.0486386741010757,-0.00782270999361706,-0.00166154452237107
-0.0194083990116086,0.102004553566485,-0.0135162901101447,-0.000992869258790409
-0.0119552349013272,0.138516917235635,-0.0170869051190431,0.000584371571553644
-0.00878057090488571,0.112546351628763,-0.0148858403393851,0.00220765704465808
0.0113765102535391,0.0428081714121192,-0.00823813091820883,0.00302764699711196
0.0368413788566652,-0.00521113869751691,-0.00190594660461315,0.00264500658657865
0.0377337116892701,-0.0025762888048235,0.00229249523264354,0.00141020841797403
0.0149820783049577,0.0152666921057092,0.00389991330481178,5.66797987337428e-05
-0.000166114664308617,0.0222141415197624,0.00243306840173321,-0.00108666341248478
0.00668669982299652,0.0231744898641005,2.71433766194985e-05,-0.00166133372952093
0.0126787683545997,0.0224076904976428,-0.000613111470360821,-0.00148838206200376
0.00564201115710312,-0.0151990773742287,0.000197710780179644,-0.0010103455231523
0.00306945702685443,-0.116924199080049,0.00162384120748341,-0.000576987835634388
0.00731757039421928,-0.192402597867117,0.00439190675617167,-0.000131618697440195
-0.00118639180892827,-0.148384481399607,0.00707814055275247,0.000207834236326453
-0.0260733975815437,-0.0456409168575914,0.00809357316878071,0.000285593245050442
-0.0612532650913885,0.00575717538389692,0.00819155244376786,0.000248258355094801
-0.0930310658680232,-0.000946267933437925,0.00676411153401623,0.000229609293853025
-0.0912049541299617,-0.00416812013176883,0.00319463474608165,4.87624365080113e-05
-0.052140718707354,0.0061727388948786,-0.0033975711836571,-0.000364723406129488
-0.00727927382743979,-0.00459862150449886,-0.0119375285054384,-0.000609576030382363
0.0268557768114796,-0.0219363347300152,-0.0168153255150016,-0.000201634756937937
0.0508687939135977,-0.00503677834726128,-0.0160696520783832,0.000691311014128972
0.0607769448237974,0.0215345108336628,-0.0142298462412088,0.001248095119987
0.0582667373617079,0.00887600359549006,-0.0128997906145094,0.00104768744590289
0.0517912285675291,-0.0267732452265293,-0.00899762361514871,0.00026794788066215
0.0490829189175218,-0.0226781664985629,-0.00310469825880485,-0.000905373141648778
0.0508900621004346,0.0330084939085744,0.00109143938564555,-0.00208195961048286
0.0419717857675543,0.063406741391839,0.000423049514563656,-0.0025366407008713
0.00844351495304774,0.0234541287753997,-0.00316107186882862,-0.0022016383825621
-0.0426141540945872,-0.0364828162898129,-0.00365871354008953,-0.00191267950681197
-0.0856956774357731,-0.06726776387238,-0.000453920633582888,-0.00227625844141245
-0.102754232749627,-0.0700628749213981,0.00170855170469826,-0.00298923447261294
-0.0982241002598484,-0.064148914883234,0.000698383185834636,-0.00348658188563638
-0.0788724469174955,-0.0552371570986216,-0.00172318472210786,-0.00368310959494943
-0.0465219014352456,-0.0405915048425138,-0.00447485334876885,-0.00348100938304775
-0.0111963344205852,-0.0267021764157565,-0.00701627981760417,-0.00256928677341878
0.0096172555274308,-0.0151029755136508,-0.00711466297399668,-0.000774297533493286
0.0144466928474511,-0.00751824498323141,-0.0039190461379668,0.00234056025424908
0.0211817611767181,-0.016446004150626,-0.000554832219185063,0.00683280748112482
0.0382821396306433,-0.036489458137239,0.000630305781185894,0.0105796672024142
0.0568393009030911,-0.033320584805749,0.000395281139090671,0.0105663986728241
0.061049697846701,-0.000510845254587575,-0.0006635457195929,0.00655168193671055
0.0383779171064504,0.0122952855496543,-0.00357907103259494,0.00126076074359396
0.00310297147055713,-0.0161651330787518,-0.00732577272580214,-0.00269116239621731
-0.0202341764733076,-0.0401993329595811,-0.00858331715608264,-0.00454358504616317
-0.0286389805638312,-0.0270525236501876,-0.00729942520945014,-0.00505268496832931
-0.0228957163102705,0.00258990463098476,-0.00624574315990454,-0.00535954053265605
-0.00845921602958805,0.0191691130131037,-0.00678414093755105,-0.00577765673226193
-0.0012393695338457,0.0169792409405846,-0.00620966795998714,-0.00574887142452308
-0.000878889095620861,0.0178040058394763,-0.00407188975047901,-0.00475665927657937
0.00089150778450689,0.0499823023440426,8.04594198504036e-05,-0.00300424362035251
-0.000356156022747564,0.102878207656196,0.00644298738006955,-0.00124216513655605
-0.00515049526120736,0.128408985094789,0.00910732424017114,9.9521953472583e-05
-0.00836041526139763,0.110204074970859,0.00860095898152591,0.00117931731254018
-0.0109880108694922,0.0805847296750147,0.00904252393198523,0.00226780922717292
-0.00939964768123523,0.0573990100665975,0.00900049337407448,0.00326343093825413
0.0014294433477649,0.0508605317711265,0.00754919426514906,0.00373660240824822
0.0108580301931263,0.0768494609000577,0.00786236436124495,0.0035552924301632
-3.06829809785109e-05,0.116785199863893,0.010976333608711,0.00283729398763932
-0.0312861663897013,0.143730463979357,0.0143663725513501,0.00148048760243198
-0.0509397724919817,0.107707131494444,0.0156283779337771,-0.000311864612292242
-0.0332422350433144,-0.0394687246175072,0.0125230655074569,-0.00192908513594464
0.0193888377352325,-0.235043837296979,0.00544925143001848,-0.00349067348165685
0.0847902902439585,-0.362865308147522,-0.00326083972474076,-0.00542463745830835
0.114942849972461,-0.356047260933782,-0.00953188403230845,-0.00733108589294302
0.0915094552350627,-0.228974783677845,-0.00919269078509435,-0.00874523979165218
0.0536488548833613,-0.0757708727193684,-0.00465375898179935,-0.00933448460034907
0.0329839137496383,0.0221833012220744,-0.00291194909751413,-0.00655434429113194
0.0291761074722175,0.0535052170820124,-0.00460945999279792,0.00311851948781635
0.043395218190689,0.055847525998004,-0.00605385479468939,0.0150268690586513
0.081600221497421,0.103911036992914,-0.00693403633892674,0.0123625275060034
0.111258143529724,0.193007076183829,-0.00599032919003541,-0.0175558819168766
0.0929283501327129,0.205799434095084,-0.00456052769572725,-0.0594647517727609
0.0411020290919249,0.129838706564634,-0.00523367018774937,-0.079597270245544
-0.00579247793500132,0.0662655980787316,-0.00449769282644006,-0.064335492837445
-0.0256423560802468,0.0367487983890804,0.000189846963030305,-0.0305480603187375
-0.0256700107271895,0.00520412844759358,0.00573044595746227,0.00442944977395354
-0.0277102273780493,-0.0248720542198049,0.00708894932453873,0.0472899281909237
-0.0326824315491214,-0.0356256728332582,0.00550065782438565,0.106448487582906
-0.025203754677167,-0.0344909442711959,0.00408316983419685,0.157270748292985
-0.00678758421953516,-0.037418935393975,0.00115881987790249,0.161635091468292
0.00226941342977585,-0.0516010138938763,-0.00297413995336534,0.112564587693219
-0.017241569556569,-0.0714390391349055,-0.00684132137795508,0.0354821893514124
-0.0489433604749736,-0.0818470495497072,-0.0090197344487844,-0.0401103070570311
-0.0485389236922373,-0.0766926854109203,-0.00952773927727394,-0.0947949246166172
-0.0119853233130943,-0.066369104474438,-0.00981812344079598,-0.119698039974351
0.0266807744362684,-0.058512364927403,-0.00868953991187343,-0.116021803701024
0.0494783711833091,-0.0462036822267905,-0.00702846319950148,-0.0926748540252465
0.0633349939748062,-0.0263954990050519,-0.00615373368065741,-0.0608840034960013
0.0775979018695051,-0.0084040027683821,-0.00503688685465502,-0.0293072966724893
0.089088413846025,-0.00047814579991491,-0.00452367900336139,-0.00254257630528545
0.0937005811193371,-0.00191726405129611,-0.00478448819074323,0.0179602989012243
0.0912469615915797,-0.00659984328256384,-0.00468879060271571,0.0324018012961608
0.0832317072908016,0.000775060331576985,-0.00478561534665876,0.0414872348582329
0.0762400582899729,0.0386614299796159,-0.00567803116857277,0.0459160004241401
0.0625590017477891,0.0699763635554597,-0.00713099772686144,0.0464266901872265
0.0334506880633629,0.0432127092617389,-0.00975524222310858,0.0439224519801308
0.00231392464013749,0.00453068518287483,-0.0142014579782013,0.0392502276117152
-0.0194299344793084,0.0111638196798481,-0.0178587441002572,0.0331678817898874
-0.0309117779445126,0.0369593840150015,-0.0156777451757636,0.0263756649233626
-0.034838299109605,0.0445402726894376,-0.00917410705863837,0.0194378280807958
-0.0369868711116657,0.0374891528747238,-0.00462427099975611,0.012628520485122
-0.0376265417060206,0.0341411986974006,-0.001191581867223,0.00607030320683752
-0.0346888821232671,0.0352390862903649,0.00204209393050479,0.000113453586764022
-0.0327416159543182,0.0320431824127054,0.00268512459100785,-0.00496532972404364
-0.0344397673118293,0.0276249270392996,0.00330956225679746,-0.00909368006131254
-0.0349366913503056,0.029670520795367,0.00554681711811408,-0.0123226899223494
-0.0344926784667286,0.031406355370248,0.00711061188308867,-0.0146146345637598
-0.0382343075753529,0.0205571269198472,0.00881210451398294,-0.0156974985896499
-0.0390494548219949,0.000948047995042334,0.011142116623894,-0.015705534574386
-0.0313195809366428,-0.0169656110501347,0.0121661241472841,-0.0151334615783672
-0.025189622491554,-0.0292239067690998,0.0122782836251829,-0.0142571585167226
-0.0215984488621556,-0.0357240960486532,0.0124624575050848,-0.0129146185225273
-0.012120113160368,-0.0298851902730245,0.012378113057749,-0.0111550373156102
0.000154683663306864,-0.00922904558793604,0.0108912948190625,-0.0092436778438078
-0.00291895076273709,0.0100677589589186,0.0068435957077046,-0.00727755762491879
-0.0393739490122951,0.0182801417263388,0.00424534919457977,-0.00577746707768642
-0.0887763979316577,0.0210880809086277,0.00638426211025465,-0.00518380621779097
-0.104706542889805,0.0400415192207412,0.0088224661362427,-0.00552689882826097
-0.0820438017943591,0.0894987365963013,0.00933711195891231,-0.00673514005742567
-0.0620045732867043,0.128374318818381,0.00747196466550356,-0.0087138873066119
-0.0646906926115084,0.12101799111121,0.00333232257355304,-0.0111477691379622
-0.0612093947359568,0.0951561332909285,0.00176290353752544,-0.0127924405374984
-0.0157479097182373,0.0664419798928569,0.00498915027878551,-0.0122397325518081
0.0632915495521516,0.0207345465881498,0.00715401322891554,-0.00930224766649351
0.111351212284579,-0.0314465529126313,0.00523975377130306,-0.0048656537504708
0.0785070279754605,-0.0409292176761135,0.00453489752891985,2.13836850922119e-05
-0.000865601482817335,0.0298369779951579,0.00732936047626393,0.00460028562990284
-0.0568873176560973,0.0982777328669369,0.011897923413649,0.00790442825441067
-0.063724651843525,0.0156368558549316,0.0142196118727406,0.00896588433955825
-0.042141611240407,-0.188613692627683,0.00854400917979655,0.00737993449812211
-0.0103700310069248,-0.277685915575396,-0.00102607398516758,0.00243532308023645
0.0208131664810032,-0.150763700115579,-0.00614986106214403,-0.00546841293664588
0.0332797999633276,0.00490516365554255,-0.00666372467921606,-0.012508981425719
0.0259086411693372,0.0489401961787859,-0.00329852910573267,-0.0150445971377592
0.0160373815693045,0.0435853869822618,0.00162161119160271,-0.0137898835568157
0.0171202557436918,0.0509254466740928,0.00508230414303381,-0.0117468734897442
0.0251464196715782,0.0572010399814541,0.0088162122581724,-0.0108775561308779
0.0305786431352726,0.0315172409384129,0.0116884432893568,-0.0108576328300095
0.0308299240116749,-0.0188542972595707,0.0113075520444669,-0.00995832032140934
0.0219129658258665,-0.0517185259934979,0.0100758078273215,-0.0073268931266751
0.00471355570948755,-0.0514828039930025,0.0098471717108579,-0.00357392506137484
-0.0130482786040534,-0.0224330755231822,0.0106798202767449,0.000317400379966123
-0.0254936023652192,0.0273877764355136,0.0121573152771755,0.00359472631839773
-0.0215558800212392,0.0622461539120814,0.0111564803600881,0.00531092083951772
0.00193769456895061,0.0603053578115057,0.00482679109497404,0.00508401943345094
0.0322672478796515,0.0492491181521387,-0.00447211384758722,0.00446082159842415
0.0579186141389935,0.0479550267330715,-0.0122855286557522,0.00441747120220376
0.0679087400559206,0.0445536487243156,-0.0149205609295985,0.00347829941341328
0.0575161763680273,0.0273874970394439,-0.010168110554614,0.00136471034278036
0.0352523044256839,-0.00651549782220838,-0.00358457006383169,-0.000291089274324479
0.0127249712587245,-0.0430098860871046,-0.000315414951092214,-0.00111685837259484
-0.00722770760155271,-0.0621547788050566,0.00122186260168369,-0.00178452239865177
-0.0284074733579274,-0.0766518881064703,0.00220708621400878,-0.00219736650482391
-0.0515704743934759,-0.106360011170506,0.00377705377229555,-0.00145191914981432
-0.0636482662841386,-0.125232573594498,0.00453520544439745,0.00142166618272205
-0.0455230337385343,-0.107129803346171,-0.000228353511656241,0.0065225547306962
-0.00354744495062018,-0.0701355422882843,-0.00862588133958567,0.0126786730807686
0.0384016074571855,-0.0365188969516016,-0.0140541366543515,0.0184806554239503
0.0653630528562432,-0.011055389219943,-0.0134991921891664,0.0241429637679916
0.0766109361403942,0.00125258367534392,-0.00713669083610498,0.0333092162625049
0.0810520645589728,0.00784850942370693,0.00145153040306725,0.0465965161433859
0.0810506798776851,0.0374357716106358,0.00737219596716132,0.0521538214677323
0.0687613773587724,0.08703734173776,0.00838990707827383,0.0371899029474193
0.0407727842513499,0.112285046117181,0.00586665642770613,0.00654722017021243
0.00969768491834863,0.0961817503188588,0.00318315101260546,-0.0230413198702233
-0.00773468570708538,0.0590905764826753,0.000807245078452135,-0.0398708267920829
-0.00778558338231857,0.0238646026611503,-0.00265495444297179,-0.0422945125130777
-0.00399920337528102,0.014545431180928,-0.00502074038548374,-0.0347245704140838
-0.0129550067829265,0.0329076787507275,-0.00417490479008706,-0.0231985200505309
-0.0244244544016566,0.0337151283839262,-0.00352926323029996,-0.0120151198540641
-0.0244964731380477,-0.0206288277535255,-0.00721577161264648,-0.00244150882973449
-0.0277201303937572,-0.0849645406285359,-0.0109082508596688,0.00586209578137837
-0.0493367727086229,-0.0815120433236679,-0.00881572129360462,0.0130795821178977
-0.0795822313191028,-0.0158653140928587,-0.00409235844836866,0.0185193565018317
-0.0926355857674218,0.0458590727944648,-0.000731160315092747,0.0210940832197065
-0.0737904902360311,0.0703354863349595,0.00013597235086996,0.0205735019385202
-0.0359563549081191,0.0658305774709743,-0.00161365941975909,0.0177847788130742
-0.00776142533219525,0.0541141065222359,-0.00226878626232241,0.0138105892218039
-0.00106273061721857,0.0468287696223152,-0.00108576633751694,0.00971104595702753
-0.00510675086502866,0.0405614408735165,-0.000970067464396618,0.00629684814374518
-0.00830668702503136,0.0343744671446204,-0.00164651107352771,0.00379508128999617
-0.00466515025301542,0.0174918397384348,-0.00293549900276055,0.00181955163321107
-0.00257033841566986,-0.0223049921199008,-0.00506975056517779,-5.25019310809267e-05
-0.00862569071282854,-0.0569009662465186,-0.00766514606655717,-0.00175937689518124
-0.0102050220259903,-0.0514840039276334,-0.0084574462158735,-0.00340784755568504
-0.00183906978155243,-0.0169085390332305,-0.00574841988505493,-0.00566125409666418
0.00841349589492909,0.0153568774202247,-0.00387246071845342,-0.00872917738771322
0.0126669891715436,0.0293305307895075,-0.00346046172560562,-0.0113885236373174
0.00728094318394652,0.0273807452489461,-0.00191396912892507,-0.0121182031355355
-0.00284598582611505,0.0172234381838361,-0.00158887114331765,-0.0108870027813933
-0.0096174585183189,0.00554527197563007,-0.00227636497095934,-0.00858430216382845
-0.0128283456544173,-0.000576380003118125,-0.00228429341359852,-0.00590578096812603
-0.0162260741890836,-0.000120828739724708,-0.002622912899578,-0.00351562454675612
-0.0223336729736973,0.000859825275927401,-0.00259253203651597,-0.00196607023794385
-0.0334274232844258,-0.00134454378695507,-0.00176846310743866,-0.00136392999676412
-0.0471103160208523,0.00457462604932205,-0.000717497167352034,-0.00154211489825251
-0.0568832129884535,0.0329252500345239,0.000443940548538512,-0.00216824703723381
-0.06983441520287,0.0591831408540548,-0.000433766147579918,-0.0026765853257476
-0.110160520218423,0.0555686203803676,-0.0026605055550248,-0.00246246713603452
-0.170048589669016,0.0475628260175183,-0.000963433557304002,-0.00172601509184383
-0.196000756490421,0.0684727999667109,0.0064941200313396,-0.00204891591089598
-0.174746008531726,0.104288446176581,0.0144532977770837,-0.00520041856110352
-0.150214623825822,0.102002148403924,0.015208939801456,-0.0101983490034029
-0.134002558732754,0.0437236256328746,0.00909600939516662,-0.0129533181019999
-0.0991062093213979,-0.0271311953715217,0.00484737507638693,-0.0109792678400354
-0.0392022825243486,-0.06063169166354,0.00628499326580986,-0.00613632047905553
0.0245474102295761,-0.069826702016119,0.00725745952112563,-0.00186840200571924
0.0727720147206251,-0.131089179090787,0.004279416040586,0.000212014222733502
0.103826913982419,-0.23170873215473,0.00251525091187822,0.000496129193363988
0.134059122709623,-0.260531967134529,0.00548857652962593,1.14191626860612e-05
0.172139547570431,-0.228011498687162,0.0102322633706402,-0.000510068355756339
0.188822043010208,-0.212582273608917,0.0121054075595401,-0.00106718230607697
0.157337145925962,-0.160766194142479,0.0119440574618714,-0.00172054903510035
0.0879993439825639,-0.0441675717344381,0.0119711618570406,-0.00233711784171097
0.00884730497356628,0.0425051521029707,0.00987285687832904,-0.00288149172364909
-0.0455306052926709,0.0646561037530314,0.00656843624925451,-0.00336068937287861
-0.0606480100522645,0.0774946909992289,0.00459738002695863,-0.00369113695169433
-0.0512438853141341,0.106288769195483,0.00295257282685554,-0.00372061386461984
-0.0367159417117674,0.113081079123778,0.00170590861407839,-0.003343113649123
-0.0318651024021449,0.0588051037749643,-0.00183604376131029,-0.00257132298019007
-0.0344035413122465,-0.0290372683767955,-0.00746167879333165,-0.00149796997886288
-0.0377453766234806,-0.0721609323219904,-0.00879291166380023,-0.000185285556273451
-0.0440020079941993,-0.0542203221173514,-0.00602664648103248,0.00124621324837112
-0.0414884120769486,-0.022459171517398,-0.00244882533812106,0.00228404379550687
-0.0284234227804017,-0.00315291444252987,0.000726181889241961,0.00218586828595013
-0.027251912608617,-0.0107847541141234,0.00271101609815847,0.00105980956009383
-0.0347714747964639,-0.0426687787147235,0.00392172747138597,-4.97347664746555e-05
-0.0205074734870366,-0.0792339074748126,0.00559161053564646,-0.000565388569848768
0.0272863916279841,-0.104899832649206,0.00760243294871424,-0.00132405152553327
0.0890934915905235,-0.102841140890305,0.00718180490444453,-0.00322609300426684
0.133668195951132,-0.0625097854872911,0.00239696534372606,-0.0050808827206091
0.14710779072062,0.0163372202803,-0.00387439284917926,-0.00463796511583024
0.134094078476755,0.0867162718715926,-0.00634312666545608,-0.0020002676495407
0.101977694808483,0.0812071812025885,-0.00449096526134986,6.81654650174163e-05
0.0678876304417964,0.0249103484663164,-0.0033078657418741,0.000671746979136932
0.051263484772372,-0.011707860299625,-0.00423690006699302,0.00240147651272478
0.0513802398193441,-0.0203317897144323,-0.00483785864594521,0.00702175704088205
0.0557189051556083,-0.0183861743236982,-0.00558510678399676,0.0128999767002489
0.0567449367680616,-0.00749159532844677,-0.00610355188729408,0.0176101460155655
0.0470612178938424,-0.0145190363551939,-0.00515733685025905,0.0204210155832424
0.0320982886148233,-0.0639085218735971,-0.00389807296971274,0.0210101080138836
0.0289026040650022,-0.10007541222363,-0.0035263449821606,0.0185764659737259
0.0330623468409,-0.0702816676787915,-0.00319165751476138,0.0129850541353929
0.0334198512463841,-0.0111929294645721,-0.00148699255764002,0.00273546357532944
0.0297850603876395,0.0280119097669126,0.000146670737698871,-0.0149267477514733
0.0264203522851208,0.0433085728163424,-0.000105636548682375,-0.035783930379503
0.0262293745320439,0.0456216398212637,-0.00134299140633127,-0.0479191405426762
0.0216928096022091,0.0381178034964035,-0.00254963317823941,-0.0433209641226245
0.0112337976477654,0.00575615320633798,-0.00363091147484758,-0.0243534937783505
0.0104742930811729,-0.0472901508406595,-0.00243557056743564,0.00117368920521425
0.0242282391289498,-0.0562444853747801,0.000814237072314105,0.0266157083648386
0.0320120581791428,0.0152146480783158,0.00335332977458748,0.0482557737609107
0.0162577138217787,0.0911509898838332,0.00395475841508839,0.062469448430977
-0.015611403796576,0.0878635201178467,0.00121702059597696,0.0624203764658167
-0.0439975396221169,0.0383059280926836,-0.00244735413121537,0.0447113897106468
-0.0603802692096485,0.00825707851113079,-0.00316939580097721,0.0190885208166306
-0.0695986377197223,0.000131879872531274,-0.0003223644603011,0.000312277629376759
-0.078731755987237,-0.0067647084602341,0.00406849391276712,-0.00736160195159544
-0.085575157747982,-0.0174715486657496,0.00604930642707645,-0.00989556731942032
-0.0776633993135109,-0.0241228019298899,0.00571518322600734,-0.0135801019597366
-0.0528311248840213,-0.0249770796732313,0.00731243539819854,-0.0199474338716028
-0.024289608465857,-0.0250944749143405,0.00945956754665803,-0.0257386403100003
-0.00297449371934806,-0.0249230351549326,0.0076685385242804,-0.0265271644410163
0.009109798757187,-0.0233065105853756,0.0043740426946172,-0.021560917009092
0.0126151374198785,-0.0125455158847433,0.00431225407023321,-0.0134755096491917
0.0159053538456806,-0.00229488512607862,0.00479439668943523,-0.0049460559408295
0.0280933039545334,-0.0141252300309264,-0.00189079919863866,0.0027893404025035
0.0388519932353995,-0.0311959061012915,-0.013494370543938,0.00996418191599173
0.033436582554275,-0.0269860041769505,-0.0180282983344119,0.0164806213471806
0.0135852650948241,-0.00647239214669974,-0.010529815080052,0.0206060670618384
-0.0110406450437914,0.00818795787441007,0.0030249391401246,0.0205750785826828
-0.0330144120153173,0.00439559076138122,0.0141803064160597,0.0159689177937057
-0.0366366013752774,-0.0141791113029073,0.0188909724171466,0.00880843648889001
-0.0142810824186833,-0.0325380725389096,0.0186152662067308,0.0034702337396083
0.0115918564783437,-0.0377953233164235,0.0155764937511818,0.00334958929598478
0.0156550506001601,-0.0312636552791831,0.00992558920512422,0.00899565551328419
-0.00246960268773669,-0.0137759850981147,0.00342750345987058,0.0183599081778923
-0.0206048514461547,0.00870445366460244,-0.000602268290556467,0.0265266119817223
-0.00939993164868043,0.0149312978146674,-0.000843386248898736,0.0275549096355821
0.0317074407688404,0.00435519090549156,0.000275072992798233,0.0196106877113346
0.0576023792128965,0.00147409261393848,-0.000920166850314799,0.00575874676346278
0.0459583028693837,0.0134350189178505,-0.00451201064057173,-0.0152720244330042
0.0175366308480239,0.0290981617070731,-0.00955135996157169,-0.0461131378359754
-0.0259876722292594,0.0381671537031455,-0.0147836732015029,-0.0741960382807655
-0.0822677292050913,0.0354236834189805,-0.0149274120023441,-0.0788703549841688
-0.114356146151451,0.0227846132418969,-0.00821799516417859,-0.0542459065879034
-0.103611239532841,0.00783633045281224,-0.00212080394868801,-0.0148462952143861
-0.0814218621767085,0.00449293936058405,-0.000437288017783383,0.018033992854478
-0.0707385158072612,0.0145940186763923,0.000377368676871794,0.0332765426744415
-0.0476249813222545,0.020462770935341,9.21519361561261e-06,0.0329207376961394
0.00846470976624017,0.00517638490911088,-0.00180202972600853,0.023469869166311
0.0695870665724073,-0.0252596325544765,-0.0011052989968397,0.00962008495986947
0.0978350272227974,-0.0144793902156151,0.003094003941569,-0.00814863274442141
0.0888252039085249,0.0712802443704674,0.00754431358391258,-0.0350786969791705
0.0484154388006188,0.166769132015129,0.0081276255142801,-0.0718131985391017
-0.00538343093787101,0.198031841433481,0.00547884330885657,-0.100872701379177
-0.0389758183670737,0.159476055928112,0.00348829670418241,-0.100316350303216
-0.0418187663130348,0.0898850900202052,0.00289285502005537,-0.0683292653310681
-0.0217450701000253,0.0367097335828237,0.00445525462765074,-0.0199616085040537
0.0132757510339905,0.0276624596365034,0.00652472761714442,0.036591624063757
0.0470769351425007,0.0407397273733818,0.00531434881000736,0.103886704225905
0.0592106160126886,0.0335485266670024,0.0037114656606443,0.169184220324646
0.045115454760572,0.0106162104253232,0.00322168690575196,0.195504657990163
0.0235057391034677,-0.0024861445856954,-0.00094681956160729,0.157521765333143
0.0161412711713496,0.0149716783742499,-0.00879399170800797,0.0707798122789584
0.0109389111024845,0.0636813065784241,-0.013722520613411,-0.0267282108185433
-0.0200304770142918,0.0845493088162196,-0.0132343544489922,-0.104344576336406
-0.0609199616557646,0.0433457520983774,-0.00902530177858438,-0.146993630728506
-0.0785740196381994,-0.000264036166611234,-0.0011852987850176,-0.152987630382193
-0.0652286688881119,-0.00492488602397034,0.00734207111545452,-0.131085173742454
-0.0270528641508519,-0.030172348316798,0.0113580965650642,-0.0946997591331243
0.0168854160779916,-0.11571995810315,0.0080383417408793,-0.0552038114132136
0.0401296135667103,-0.175112684533268,0.00094060098366251,-0.0189969237305862
0.0341242707959512,-0.123194365967758,-0.00270311011726852,0.0109661737198241
0.0213047618437871,-0.00990562154387095,-0.000830226236314215,0.0332491811231181
0.0243628104315522,0.0697086361457917,0.00352214593192427,0.0479643679339047
0.045019739088179,0.107254679276313,0.00702804319498315,0.0564827184677921
0.0658239884683959,0.139154075534756,0.00741684735099031,0.0602469864790743
0.0558572742875882,0.153637411520788,0.00475468285386429,0.0600798925925275
0.0219757789658979,0.138441296763852,0.00107548017078083,0.0564273246702919
0.000349939754273498,0.1036870087667,-0.00217362950262625,0.0499229989511964
-0.0109125076183301,0.0356680249149427,-0.0042936887930122,0.0417212272087349
-0.0310162131347679,-0.0485482574310938,-0.00466777197579121,0.03314109201799
-0.0462218713076771,-0.0865906629634593,-0.00376809944712385,0.0248232505616026
-0.0340913546164794,-0.0482398255186426,-0.00388429759997075,0.0169600825422722
-0.00772638827642627,0.0227899589128739,-0.00487140029340993,0.00991415004265878
0.00176435796721872,0.0592789238772862,-0.00628212790171395,0.00400347325778777
-0.00834846724692427,0.0507941781794216,-0.00981921995073619,-0.000666160255120243
-0.0159066929944979,0.02932237065569,-0.0137671226928777,-0.00421330247845748
-0.013514349588004,0.0056628813108269,-0.0135614862240613,-0.00690906200448908
-0.0079670657466934,-0.0364047040276898,-0.0101277339882438,-0.00881018544685723
0.00173123538091233,-0.0881256608057656,-0.00814551062725587,-0.00979468137012457
0.0175992538552424,-0.101145258220392,-0.00709738582056333,-0.00972615318627999
0.0293228026147908,-0.0557974389728396,-0.00579193624585806,-0.00861382938666701
0.0243905949115322,0.00433088766354423,-0.00546337139500175,-0.00688632536753116
0.0117909897453783,0.0396225292525933,-0.00538144729165694,-0.00520592319540883
0.0116163060534701,0.0334471554952078,-0.00471598515910503,-0.00404441368477559
0.0270435375016316,-0.0151332235880755,-0.00438768964275806,-0.0034842904228382
0.0452740130581915,-0.0531634216753187,-0.00348095811763254,-0.00318343528462066
0.055036227850142,-0.0380144296821598,-0.0025127103241735,-0.00273056818937452
0.0544685425559761,-0.000780117722535174,-0.00474415336993534,-0.00216560559339024
0.0446274593142968,0.0168244226670526,-0.00767519972880145,-0.00169124205843895
0.0296237642477021,0.0109288509796663,-0.0084113817056365,-0.00131162839256114
0.0176573008209527,-0.00380612031609247,-0.00790379135496449,-0.00114730638968992
0.0156059486484028,-0.021222327450378,-0.00553664813005385,-0.00155542593500016
0.0238841035804537,-0.0399910567723699,-0.00284643931775198,-0.00246925865582525
0.0348978896681654,-0.0517665959469566,-0.00291252082059509,-0.00344668134950868
0.0336844032967174,-0.0495546087138068,-0.00335491829577016,-0.00425186268524164
0.0128039810408605,-0.033388811756626,-0.00162975289492562,-0.00474544263981333
-0.0106010402489655,-0.0139569642423816,0.00132268865840196,-0.00494512826542646
-0.0183250068595929,-0.00788445556756265,0.00478803025239101,-0.00501374668738614
-0.0169967935784458,-0.0139214178667177,0.00747282939789358,-0.00505896278220938
-0.0185626449399128,-0.0220753225473305,0.00862412797522334,-0.00530513836106229
-0.0224089082275431,-0.0308198272213058,0.00807164998535225,-0.00618794384002523
-0.0294072427410271,-0.0294985801959002,0.00619744283948175,-0.00772005906602265
-0.0482662557320295,-0.0139541909973906,0.00430713887737667,-0.00921743573249652
-0.0851313174675554,-0.00223737780588174,0.00437701181565637,-0.0096858094657426
-0.129452789479496,0.00751807811765155,0.00615457171935437,-0.0088359428939016
-0.150895434013167,0.0275104318326206,0.00713720097885375,-0.00790418855011578
-0.134330208285101,0.0440843590564562,0.00818353966520798,-0.00824826868956481
-0.099680806095223,0.043594670390371,0.0123701332557615,-0.0100172212714395
-0.0632644415415103,0.0280721356342633,0.0175773320367411,-0.0122235815848301
-0.0200891889979331,0.00937312464611829,0.0176202151689461,-0.0131612595282389
0.0313899327761357,-0.0064306357201641,0.0136462744315839,-0.0121079153220152
0.0879716459799083,-0.020698669877932,0.0106543835644859,-0.0102694539521475
0.137313725961163,-0.0180339762815048,0.00819835435683983,-0.0089537707968202
0.164212468125584,-0.00189589174580722,0.00363810222178402,-0.00788246101033139
0.182527446239444,-0.0115338183378774,-0.00117546960557414,-0.00562757327493696
0.181851746352357,-0.0861934262226268,-0.0035915100193143,-0.00148158979263213
0.126791120270445,-0.202181633240541,-0.00662487152785535,0.00321911749464071
0.0423739740973688,-0.235520937012102,-0.0119330488968108,0.00572710269681135
-0.0143310361149266,-0.134052945502612,-0.0172289855587338,0.00433778209315282
-0.0284004501401037,-0.006876221418707,-0.0195374025573441,0.000460140518391137
-0.0289365010243336,0.0546593469828296,-0.0134959978692993,-0.00327294509511827
-0.0447924934689587,0.0669551124296774,0.00099787490960377,-0.00540673121015441
-0.0768538061345195,0.0652795861728905,0.0121561620071382,-0.00359928171000697
-0.101701586718914,0.0487294784501256,0.0134818683920058,0.0057753464674545
-0.0992073279950864,0.0215593463085309,0.0112428565521419,0.0202184822869322
-0.0745418832752012,0.00384595899699164,0.00948380726532028,0.0284430914877575
-0.0489785382513258,0.0044585722595139,0.00803806177724137,0.0239084256333641
-0.0395703962814757,0.0153517178738629,0.00657008829754337,0.0134368277305718
-0.0480190736437952,0.024002166957097,0.00393769782373016,0.00593019495689361
-0.05796373202675,0.0282016884496643,-0.000774622993475177,0.00259097149161861
-0.0498769771687436,0.0287810949043336,-0.00711711251785963,0.000807022113943221
-0.023827242446719,0.024149356048055,-0.0122689292376031,-0.000476702139309888
0.00387525742680767,0.0184378903480418,-0.0134443108431996,-0.000962227993886464
0.0261086443309189,0.0176105950964449,-0.01162572874359,-0.000520871145208398
0.0468936450703633,0.0229787653621741,-0.00894764368800597,0.000420690487103164
0.0598402109353442,0.0338708481584995,-0.00670526840339477,0.00128173756980064
0.058702436656292,0.0414938141906122,-0.0050077619356163,0.00191982922464853
0.0471135497715857,0.034233693861282,-0.0036912884865516,0.00250734280772234
0.0299019169312224,0.0198934779783471,-0.00376078125411211,0.00330082792952756
0.0170741504919748,0.00906076140607385,-0.00363318440287509,0.00422616392663989
0.0221619782479784,-0.0040472119284557,-0.00408596130589091,0.00504650937488539
0.0497615766208413,-0.018221602378063,-0.00749730930943657,0.00586859768563514
0.0844762299259135,-0.024283544478495,-0.0104143039551631,0.00649265436072411
0.0969870835726533,-0.0402817148740573,-0.00967207864319945,0.0065445664716011
0.0737271820610525,-0.0761820274115451,-0.00767911976800034,0.00609752307218054
0.044434065430516,-0.089636327000586,-0.00724354446109301,0.00525401221911666
0.0381276619879636,-0.0595669366313522,-0.00951904924729778,0.00403657096784065
0.0296842483628669,-0.0177413650577685,-0.0145975235157815,0.00270326979829011
-0.00782080335735017,0.0125483825756796,-0.0168672303151393,0.00172407867114929
-0.0536123994384368,0.0283404230730363,-0.0127159913660478,0.00111818565193368
-0.075186230900208,0.0310400124380749,-0.00610892009598883,0.000525503575941415
-0.0727704476295747,0.028888793397602,-0.000748101783842452,-0.000294467335675159
-0.0727587084716713,0.0302388810020828,0.00238948375086821,-0.00131773350541314
-0.0856757650959722,0.0400771540648032,0.00421474440775098,-0.00229300146096448
-0.0965751277353631,0.0452149603051586,0.00456773536810895,-0.003382355622534
-0.0964680461723206,0.0206070806523668,0.00220947854838431,-0.00468456446624111
-0.0804864921619984,-0.0212904447042837,-0.00209236818733348,-0.00532264952526349
-0.0452107973040745,-0.0380176919892244,-0.00521681286968921,-0.00449570827511977
-0.0107374667222902,-0.0180855601211571,-0.00414425957099038,-0.00277114244439602
0.00237582408476314,0.0113419164672623,-0.000976871491061313,-0.00129142745736439
-7.18149953774019e-05,0.0306326822484957,-0.000333896786757526,-0.000548688058212655
-0.00303053071138901,0.0412599443717043,-0.00182930999084896,-0.000423557288826297
0.007440810761347,0.0451686050608266,-0.00357793641821055,-0.000727035024959092
0.0271593706698016,0.0384418437359289,-0.00719311280103924,-0.00130788619028122
0.027683994326577,0.0155046573236484,-0.0107676527447477,-0.00189092296762508
0.00593835144103087,-0.0290811003608071,-0.00815486503814901,-0.0020826708719738
-0.00639419852224542,-0.0719870401539542,-0.00135282555488078,-0.00174622118378153
0.00560477337675274,-0.0587581070511198,0.00243618585096315,-0.00112462008398791
0.0142689472276526,0.00828193170619616,0.0032807613368424,-0.000715333832596592
-0.00595383845873359,0.0514187757291186,0.00335852302523938,-0.000952082987628455
-0.0394921301522276,0.0377860551948248,0.00264036895845368,-0.00140591208808209
-0.0596941099898406,0.0101762207501245,0.00107579381380758,-0.00146849487739925
-0.0613395746119274,0.000177037631343538,-0.000810467365410152,-0.00109596345244018
-0.0541825336942412,0.00318777450432682,-0.00274040734637456,-0.00037672925371069
-0.046394350333963,0.0108334800408513,-0.00507473383397456,0.000450146625571243
-0.0392898220327261,0.0204897154018418,-0.00661676045110004,0.00112716187268253
-0.0318312914695643,0.0270459914832774,-0.00578137053755059,0.00147124576582685
-0.0217101166973183,0.0290282163545082,-0.00347676816067738,0.00126101778238977
-0.0053835844219038,0.0277753717675306,-0.0022841008692946,0.000554638587987916
0.0107808831710479,0.0200000156920698,-0.000362064839422349,-0.000259186156648008
0.0118067130117043,0.00472792397625484,0.00316139580713887,-0.000817600532243131
-0.00314954665806114,-0.0113982350361373,0.00481054743511369,-0.000879550432785135
-0.0159732724557143,-0.0184308825587871,0.00402280543439742,-0.000582003680292041
-0.0133272088122647,-0.013179081677942,0.00261579245878682,-0.00019515578590323
-6.91774664035032e-05,-0.0101751809512194,0.00367338667459224,0.000276438891496915
0.0110876731014594,-0.0227215206707857,0.00551792246618662,0.000527746238150086
0.0143406620186456,-0.040256142199153,0.00491856042171496,0.00018484131018015
0.0126806211388432,-0.0455644489683245,0.00335069957730362,-0.000438489723997664
0.00977236325618981,-0.0331863268647306,0.0013715655768853,-0.000897130777614471
0.00331974472402171,-0.0155921596841077,0.000360492151273989,-0.00125761015144401
-0.00265301990106046,-0.00063350943191573,0.000587113311748247,-0.00160994675042294
-0.000200433458207774,0.0278230706486149,-0.000270987086048396,-0.0021208441361608
0.00568792350448525,0.0703659231363887,-0.00409216816874645,-0.00300785983178161
0.00619921691456013,0.100939614405408,-0.010786249377017,-0.00378333578991264
0.000820534934368399,0.109371524230798,-0.0166961319394399,-0.00370191248885282
-0.00211557117741483,0.104527364460849,-0.0199803481730044,-0.00242334076237003
0.0031668286270483,0.0934088806952187,-0.0203175071543721,-0.000132533166289056
0.0117784411156732,0.0774431442066407,-0.0157765912497807,0.0024938437797914
0.0161606644507934,0.0531927772645338,-0.00766121927765117,0.00440544174063612
0.014241008974227,0.023315165461132,0.00028805941929632,0.00466228490627474
0.0107368630996841,-0.000435347195300834,0.00605262538340198,0.00314782130002292
0.00944632376445732,-0.011559556438686,0.00967157077586255,0.000765885703238532
0.00792389010633744,-0.0145422463466689,0.009960781808482,-0.00110622961317546
0.00505155979240989,-0.0149015066560822,0.00747157695151594,-0.00174278989972964
0.00487384600607199,-0.0120286004646978,0.00584417470400498,-0.00163656467456157
0.00847050259012151,-0.00706257663744555,0.00531796674200236,-0.00145954318814227
0.0114594913189425,-0.00771373778324206,0.00448269610194271,-0.00117636889815454
0.0134551242985008,-0.0195873257760277,0.00247887780235049,-0.000713000120213738
0.0150547550032562,-0.034423399345497,9.58200266888087e-05,-0.000273060556824368
0.0130920878270419,-0.0324037034458566,-0.00132721645264645,-3.25380615046059e-05
0.00682547045563094,-0.0100965215802397,-0.00306900673684639,7.3063349303447e-05
-0.000866710878338461,0.00900837102376935,-0.00558257469669323,0.000100113875144809
-0.00858046761926001,0.00997151916113406,-0.00753079456820468,-2.1683591266349e-05
-0.0141325405771053,0.00648480040316361,-0.00824115077763433,-0.000269103202365215
-0.0126937476557346,0.0155444342908128,-0.0066374639168192,-0.00101280742944133
-0.0083897871221577,0.0390076444109142,-0.00372118467683933,-0.00257707222954288
-0.00666728747296177,0.0690703347928993,-0.00287746996468727,-0.00434803281128314
-0.00287791750083877,0.0851929002534806,-0.00405908827947706,-0.00540565028080265
0.00606416908483285,0.0759061035424712,-0.00629340496829766,-0.00505839333000681
0.0133840726150878,0.0575315640328725,-0.00852586940489424,-0.00329665433906789
0.013182943956321,0.0433445560992656,-0.00758536147690677,-0.00100284289948294
0.0102917053762922,0.0346405539935957,-0.00448555642408404,0.00118785780747747
0.00806456494058551,0.0283411064524908,-0.0030944647298342,0.00372606357698561
0.00607116597491038,0.0223724535304535,-0.0025655839827475,0.00706226213565472
0.00693142685367774,0.0175770511553612,-0.00175106459347056,0.00961142806546391
0.0073921869201648,0.00471440639215768,-0.00186494338854428,0.00873902919190342
0.00364957052704633,-0.0219267396716875,-0.00169888045092621,0.00431623413822594
0.00116724944451103,-0.0451909280564631,-0.000692091530912994,-0.000830780031314248
0.00435422524778271,-0.0488002317916845,0.000913171777453327,-0.00429867499802855
0.00998420662703254,-0.041055978060112,0.0029101337641073,-0.00599800490356226
0.0135848114713125,-0.0380448338693969,0.00410336962859477,-0.00653744102911836
0.0124549758794299,-0.0419734315031147,0.00538672889007094,-0.00594707305659967
0.00539654148149219,-0.0418560125841578,0.00588254567043619,-0.00406160444303478
-0.0108144434036155,-0.0351046723469611,0.00478343613381289,-0.00123787397617885
-0.0364435246103163,-0.0273162433255333,0.00546676547566119,0.00137694891367487
-0.061130345984519,-0.0099456963891728,0.00838315590829556,0.00250889533973228
-0.0770550813756997,0.0205992907909573,0.0106695738091626,0.00207107936724276
-0.0791943881344105,0.0515151982444925,0.0119857496793467,0.00136549828872707
-0.0745252214684279,0.0682488102781032,0.0131006702276447,0.001396572042692
-0.080450986003825,0.0643714125496548,0.0132424297741891,0.00186468608280382
-0.0887436482990159,0.0522611162366776,0.0123255511196028,0.00195974840409945
-0.0830720847809435,0.0390125128738854,0.0104373910538319,0.00128405538645916
-0.0687018813565485,0.00837772773322155,0.00746685649183346,0.000340914654743492
-0.0468572611232139,-0.0464778809323922,0.00582488629416228,0.000239931709278538
0.00246785862596657,-0.0794477407197853,0.00524470498921163,0.00126963504494693
0.0721769918744584,-0.0473399786613797,0.0017807695933156,0.00264923890938125
0.110301446769812,0.00260987846000958,-0.00247809776264504,0.00342833154310711
0.096682842696848,0.00766102165539726,-0.00311371935097886,0.00299342133206134
0.0678144180867722,-0.0195043851140933,0.000325342255883597,0.00154397177935688
0.0496091005036268,-0.0509554104943368,0.0048771584699025,3.66597940926433e-05
0.0293388747932915,-0.0680223369542945,0.00920264633015375,-0.00118313179618468
-0.00341981468620588,-0.0327983867882563,0.0146578503866921,-0.00336189776011896
-0.0376476426003846,0.0194846648536461,0.0176098502625799,-0.00730399340903008
-0.0586770000498344,0.00158338500687615,0.0152013703117447,-0.0115392815819298
-0.0630764002509704,-0.057195036963173,0.0106422726237437,-0.0145653845738665
-0.0608103837319218,-0.0660961774761638,0.00650738280124123,-0.0160846808646568
-0.0515052225562626,-0.022510026483969,0.00381630235157129,-0.0155812311473893
-0.0268179912622125,0.0255800107945331,0.00523004699987015,-0.0129599535972487
0.000654052160914693,0.0466323805395504,0.0105295545279623,-0.00925261362385134
0.0192860149294634,0.0330936273872211,0.0120073820760232,-0.00500664519901127
0.0286919075137562,0.0179347552820468,0.00473073955475992,0.00092319425664918
0.0260089840912481,0.05870923751996,-0.00468311108699131,0.00987136356365804
0.021463964830431,0.125291681419334,-0.0091710883770048,0.0213928574896941
0.030740558382586,0.0830176148188407,-0.0084753255921587,0.0352515606607752
0.0521023294695608,-0.0563845594596633,-0.00397880614740133,0.0526287694103771
0.0642476545236258,-0.131090544189755,0.0019928322202121,0.0674897166687232
0.0506581933111449,-0.116355733151909,0.00589835323250165,0.063720033920412
0.024763291559017,-0.0862717219234369,0.00722062535381244,0.0335616306218767
0.0124541138433938,-0.0590692881381822,0.00582746894035124,-0.0102481547476459
0.0186169562091415,-0.0327894015257616,0.00235573666604241,-0.0477180985671883
0.0267723628352784,-0.0124369117264152,-0.00114993665873453,-0.0671727484073741
0.0209197141474292,0.00212943633197853,-0.00377133321591047,-0.067786971876705
0.010915293552393,0.0200796515823721,-0.00370022856521984,-0.0553719824943006
0.0180774376312655,0.0539228142620702,-0.00209060201241482,-0.0371749920597817
0.0348835550456222,0.0771463028825004,-0.00238489693872361,-0.0184595433171819
0.0480666006857808,0.0377345340041153,-0.00625943488620517,-0.00159991289384425
0.0705477423528695,-0.0369854805314108,-0.0142765165889096,0.0130860385860157
0.10028450509707,-0.0661401736383779,-0.0226093932296592,0.0253993375696435
0.10556981839605,-0.0491635042853913,-0.0248689023383594,0.0344790192940608
0.0905571995252255,-0.0243454610884128,-0.0194420732554188,0.0386043619391899
0.0823988330560644,0.00556826896695264,-0.00973295783267514,0.0355377655446613
0.0731062946159382,0.0315267945801141,-0.000973936832070529,0.026333760967056
0.0485755128459125,0.0381869397961353,0.00372089054591171,0.0164545097540043
0.019730428042583,0.0352393242733152,0.00523411068778602,0.010109158433059
0.000835269224139679,0.0298702845571377,0.00575896733403281,0.00646895190116768
-0.0110163376689904,0.0165985176215565,0.00597391511150651,0.00290329051313669
-0.0199608042613027,0.00802607478929949,0.00587632753590123,-0.000997037988065065
-0.0199243194524654,0.0109188149488896,0.00607432617250627,-0.00403128814935247
-0.0110794042859356,0.013475447790696,0.0072537302173665,-0.00560515472225555
0.013721442054221,0.0180833620019472,0.00766552441181627,-0.0059969294367848
0.0670264853088129,0.01977583086093,0.00581688560282996,-0.00579246653967889
0.121574720925836,-0.0537881058075027,0.00093804842608548,-0.00576614623000519
0.13685050851213,-0.231143433958282,-0.00671657799798455,-0.00585164373984104
0.10303525352126,-0.35512238166592,-0.0123648487264362,-0.00512662594826536
0.0395683141570228,-0.292230649237043,-0.0135147416086843,-0.00376436505190901
-0.0263631390647112,-0.119571950897308,-0.0116110937948548,-0.00279464350899569
-0.0867309824880812,0.038782216387261,-0.00861061510420864,-0.00250066079625532
-0.140083646306046,0.127679590638458,-0.00645311321161327,-0.00263329379625526
-0.182391669546122,0.130517699044962,-0.00531554169136785,-0.00299672756853041
-0.200871388902012,0.0790222804612522,-0.00463150027717947,-0.00358949777286477
-0.17890309734989,0.0300439745230269,-0.00671179119089695,-0.0043241823578992
-0.121406220644589,-0.00478016759831519,-0.0103238589093874,-0.00485283725320278
-0.0488987049248709,-0.0501485624258306,-0.00847011996337421,-0.00530909980471948
0.0184270270002666,-0.0904022117040739,-0.00241890229429573,-0.00601467659459658
0.0690535733414916,-0.0737592434617119,0.000584177961094303,-0.00658996154378576
0.0935079021004797,0.00358326926229685,-0.000580832348898688,-0.00627089733236693
0.0846862794450362,0.0610625165999683,-0.00199438003742837,-0.00477557662612763
0.0570421743923705,0.039032760035944,-0.000889993854831005,-0.00276191368694394
0.0523678207199337,0.0164399496628835,0.00249267381237406,-0.00136674549847243
0.0816188461911156,0.0534386577304569,0.0068185641671275,-0.00129350234070641
0.0843689065350899,0.0838254398215005,0.00921245135848616,-0.0027724518199592
0.0274471295495281,0.075405543320846,0.00896640427276271,-0.00553962293126524
-0.041747060580453,0.0534778420928788,0.00712287732660727,-0.00820589167227434
-0.0746175357455726,0.0318258027633793,0.00402664872680257,-0.00887654984403772
-0.0688401430608952,0.0170012760037165,0.00132639102187081,-0.00675431514114011
-0.0435444693298386,0.011396512645495,-0.000420429563022598,-0.00319237208336081
-0.0182824755460595,0.0149083123337865,-0.0022224282324869,-0.000823967804319928
-0.0127581306360434,0.0139010356821773,-0.0054471653541467,-0.00108163691465415
-0.032035872923757,-0.0152934169615205,-0.0071402637789726,-0.00276155964366294
-0.0578676270348992,-0.0623227421086428,-0.0046774757618527,-0.00359327983055665
-0.0711421084257427,-0.080022571923983,-0.00306055513375165,-0.0037375844861334
-0.0724322913895474,-0.0861420722784994,-0.00477223871921314,-0.00617611424708686
-0.068411278417853,-0.142046465927285,-0.00687783486733846,-0.0118209123486927
-0.0583642404598634,-0.185887918864394,-0.00714034850506627,-0.0171015515520398
-0.0359915479534866,-0.124295314503662,-0.00529869552724353,-0.0182624852728604
-0.00399296292601628,-0.00820434358647998,-0.00274572058225523,-0.0146583122359984
0.0187174793808678,0.0666136762026987,-0.00110731862623192,-0.00737567555819494
0.0254537081790662,0.084899514330699,-0.00113155726888291,0.00236742251988986
0.025500654263515,0.0764212965594291,-0.00229194578206473,0.0129488709470222
0.023820137503496,0.0616996075577636,-0.003759795399409,0.0222802199878987
0.0212323732896955,0.0446557138701135,-0.00406016535652144,0.0272867674848008
0.0177797491958552,0.0238751859104549,-0.00293679329690667,0.0248306769431863
0.0144120550597645,0.00964589275969704,-0.00220048719388103,0.0163215049843688
0.0109778592798414,0.00496022674252825,-0.000981896385983954,0.00762904765727184
-0.00410972705144484,-0.0039180240868861,0.00302360063534968,0.00334715429107362
-0.0366603844756024,-0.0170601637370256,0.00739968177549752,0.00302179648088572
-0.0636659180625162,-0.0231085479488715,0.00782005865587525,0.0016169359546757
-0.0664911157491397,-0.0231364236224053,0.00536948905000795,-0.00460433961739774
-0.0556823803493614,-0.0240015478343922,0.00406424750072051,-0.0133884672183365
-0.044490325645223,-0.0100784264568658,0.0063667194503023,-0.0198446180857493
-0.0302040669090555,0.0330534353492891,0.00977502271418761,-0.0212582732934549
-0.0118644309276115,0.0689783881898421,0.0101405454321994,-0.0176369757008806
-0.000292779609322544,0.06727995881518,0.0074954426176881,-0.0104127767982977
0.00383974273670119,0.0505528584938784,0.000994645479790314,-0.00129175846935987
0.0177182874113554,0.0327253122287917,-0.00640899157905424,0.00856883595316204
0.0516109641868605,0.0326539525979208,-0.00941553365491874,0.0180006036523546
0.072741883164979,0.0671577438285097,-0.0108987921852953,0.0248819305070872
0.0382510738066766,0.085656501964093,-0.0134387909395776,0.027280996444836
-0.0313261863026406,0.0486982248225046,-0.0131138591211458,0.0254667494053629
-0.0860503113144924,-0.0174248891133892,-0.00613852231250073,0.0212797619786662
-0.107213229720786,-0.0798837506683993,0.0026332327287196,0.0159458793944967
-0.100411392597013,-0.120966706414487,0.00514424586248976,0.00996151097549966
-0.0780462097609828,-0.145308611751913,0.00402988885969032,0.0041895800501065
-0.0528184054941937,-0.170423219529289,0.00474534270030052,-0.00017098789970376
-0.0374346821875359,-0.164460542085032,0.00574182693797859,-0.00328682259480526
-0.0328501078943363,-0.0942535651870832,0.00517702319738154,-0.00671347942551322
-0.0287770398758326,-0.0146985539971234,0.00404409579208824,-0.00968175306695381
-0.0154617441390341,0.0109028295719605,0.00245130783143165,-0.00894560854776693
0.0185148220416842,0.0170382766097844,0.00153172662595105,-0.00429665334406117
0.0625872401381779,0.0464561277239274,0.00325421455794025,0.000133996826857516
0.0807289594942308,0.0564571548076571,0.00383336754062354,0.00109110392291763
0.0654730199962849,0.0435023018732577,0.00100267674163861,0.000876865326003261
0.0419187525696786,0.0516490453279076,-0.0031614444573074,0.00458989788997327
0.0274619753781344,0.0581844449731912,-0.00782167538180321,0.0118596502263366
0.0263236661493613,0.0590979296508223,-0.0105134738384752,0.0161861383035501
0.0233460048731186,0.086150674361122,-0.0108482578206023,0.0125507612005295
0.00461373107324457,0.105868174125563,-0.0104607162806924,0.00252261826667551
-0.0165379529612767,0.0875843160015919,-0.00937215245811663,-0.00773623782607638
-0.0326229978021627,0.0545541786947119,-0.00816875966009771,-0.0136022459867838
-0.036538893314325,0.0295455851000557,-0.00683028509223076,-0.0146290447759991
-0.0160207856747748,0.0145832496532358,-0.00523753946261055,-0.0127672822117861
0.0131231938148651,0.00338002252700782,-0.00427400160661577,-0.0101446053734589
0.0300602597363004,-0.00288594924251648,-0.00509686951991904,-0.00773134096197548
0.0384255010059735,-0.00431625160384682,-0.00726658438227866,-0.00550641108589672
0.046419674585574,-0.00510509802683698,-0.00673457125119252,-0.00472636147075151
0.0546409575203137,-0.00835628996859821,-0.00315361830829204,-0.0122258193546706
0.0652964069611461,-0.014995167397485,-0.0015390232813262,-0.0348726017274102
0.0701169044011202,-0.0184254705667659,-0.00177661737340685,-0.0627383418706634
0.0566337083437549,-0.00886864611614134,-0.0026872780842148,-0.072959224446788
0.0340937325395854,0.0132463018169564,-0.00410169244063081,-0.0567685971491344
0.0176470395173066,0.0305161647273671,-0.00262130222297825,-0.0281879188286243
0.00504198457752907,0.0282191531251958,-0.000356743424100439,0.000734061841224529
-0.00955592462191362,0.014112499322835,-0.000775874897851327,0.0405806072653667
-0.0194898009520865,0.00498106911559344,-0.00075435030668248,0.0997971692993721
-0.0171739606467851,0.00464875395001871,0.000887811331683524,0.151720018029217
-0.0052520395029439,0.00449542230519892,0.00164232503870782,0.157982992330343
0.00520283091238326,0.00150839479656813,0.00162941949074542,0.113072011248274
0.00858941954510331,0.00191092211948179,0.00113943251611825,0.042651850429402
0.0106800900682268,-0.000487787176254657,-0.00160653829605129,-0.0249940371220091
0.0138464168276528,-0.00579761153961763,-0.00444108164245919,-0.0724228404199416
0.0180001583034366,0.00398965453995037,-0.0036618773673592,-0.0955815213737008
0.0272240201539813,0.0159713480576042,-1.78762299917266e-05,-0.100159218442024
0.0414729622668773,0.00997986768799137,0.00290884616235461,-0.0911189081595676
0.0543119142907094,0.0113210424410945,0.00410114040735158,-0.0714137788924919
0.0561933096127326,0.0279875996581673,0.00379811224537035,-0.0469537561448045
0.0413805603845963,0.0313133610008478,0.00178367079639102,-0.0237470180132103
0.0161717156453752,0.0236102916213007,0.000641667541061016,-0.00400732256259947
-0.00736468858103658,0.0151221672531996,0.000871141618789081,0.0122609192210999
-0.0221210608563724,0.00416283234430235,0.00183187094834896,0.0250882763674358
-0.0263937606427195,0.000341436278757485,0.00433428299454823,0.0343647227035682
-0.0217148753409681,0.00520041242103345,0.00784102842532294,0.0399983696931205
-0.0151029936749024,0.0107312097452613,0.0100377122169704,0.0420098699049374
-0.0112859971651562,0.0117700441728277,0.00871903535876527,0.0409665921900208
-0.00987212125198855,0.000535014707723158,0.00540784292943429,0.038103973989042
-0.0113877171956434,-0.0243051149356467,0.003145351076033,0.0344641321360413
-0.0116960350273573,-0.0395899371122224,0.00339294503575476,0.029975123032522
-0.00664230858477875,-0.0278432948519869,0.00418681683658684,0.0239993823911269
0.00127117349811155,-0.0109337881408136,0.00152632028464146,0.0169759117835104
0.00966450516281535,-0.00811475197125731,-0.00197013177909595,0.0103347693968654
0.0133213019360615,-0.0148084655894854,-0.000436917065945848,0.00482945834380329
0.00361224763134264,-0.0269808748665003,0.00359544642764702,0.000218679818777705
-0.0147002310387203,-0.0382369222881554,0.00639902473727273,-0.00381919434536867
-0.023808383283002,-0.0402609935732937,0.00991872805864399,-0.00726889801765287
-0.00989223833315382,-0.0365013171939282,0.0113970909901149,-0.0100420106969399
0.0189391215872547,-0.0364268694118137,0.0102242605249397,-0.0123013891550032
0.0314244346536652,-0.0362254967991167,0.0109198445039619,-0.0144623934854043
0.0076241722092567,-0.0219733604955667,0.0102484465811305,-0.0170937824251374
-0.0348161554133277,0.00784470946033618,0.00563496074238916,-0.0198980959297386
-0.0622270530539533,0.0330246758964026,-0.00124274840895289,-0.0211253592692573
-0.0636400033638627,0.0399330576315546,-0.0116381181922485,-0.0197041312019976
-0.0499072338926491,0.0409960858190286,-0.0215349714462196,-0.0154131088020326
-0.0327728640332973,0.0450437416161497,-0.0210924905877627,-0.00660249636718869
-0.030302118206995,0.0489195938168,-0.0112847319820147,0.00725370351305176
-0.0583432526862984,0.0526450098469225,-0.00135133148094038,0.0194912817974269
-0.0943646700308172,0.0553401900169713,0.00414858925274632,0.0199944552916967
-0.093363743145504,0.0626942898834065,0.00650171855903732,0.00840589012326378
-0.050383528163266,0.0910681795060003,0.00996775636983244,-0.00491584197695346
-0.00892191348073532,0.130368110881422,0.0136476913501519,-0.0123087311933122
0.0161668939480655,0.152820079374116,0.0129869303649614,-0.0146524036235159
0.0465895838282983,0.167506626583469,0.0103788410112447,-0.0153352427171724
0.0775329271786069,0.180213337335919,0.0102040734910322,-0.0155482260668733
0.104627298822686,0.135891790404444,0.0101340603727921,-0.0151000684786092
0.134630253919774,0.0070894629503232,0.00789374917192832,-0.013948696744173
0.146733378434008,-0.152336365606909,0.0062952771300717,-0.0120950066446248
0.123135191696614,-0.242904438299094,0.00732217558676507,-0.00959518579303599
0.0760444378316197,-0.180389229372564,0.0099229296995156,-0.00680876034684324
0.025835405068174,-0.0374000046784743,0.012043435390329,-0.00426062111753189
-0.0129374759497768,0.0227853997470592,0.0119385653435293,-0.00273209481687614
-0.0436636509893213,-0.0262010221206307,0.00802436226110531,-0.00274219466344205
-0.070172422604961,-0.080427640864751,-0.00110380125304829,-0.00375422922930876
-0.0848833574690929,-0.0728881862627742,-0.00972741689450756,-0.00443827402495521
-0.082670345187176,-0.0288507415380406,-0.00793031898821129,-0.004018059960119
-0.0660391046461391,0.00783034978622824,0.00190948454692798,-0.00315130054685926
-0.045595820503291,0.0191493723368957,0.00886728372163496,-0.00290944491694658
-0.0288199281347353,0.0119318463795611,0.0113191793157293,-0.00314753379367688
-0.0226883571840059,0.0214489909852449,0.0117610787176874,-0.00300479394645821
-0.0260024315853287,0.0628013586982818,0.00576023133910342,-0.00178519085668836
-0.0229261023281023,0.100214981280994,-0.00792043451659771,0.00136625158815879
-0.00471408066331048,0.10823432991589,-0.0190400780440075,0.0056021940004921
0.0215191226303842,0.0974501313734811,-0.0199205046955564,0.00746129717004217
0.0456671932647385,0.0817139287454944,-0.0147393846748807,0.00465419488231156
0.0669663686769414,0.0582057564425889,-0.00882311611521888,-0.00114067486984622
0.0829286811818221,0.0211151282909932,-0.00216878155847916,-0.00642287849981831
0.0924365650620608,-0.0212347308712003,0.00507760032906481,-0.00932150910394225
0.0977107835551463,-0.0596013518254388,0.0101018511815298,-0.00973152813565806
0.0807895798177427,-0.0883573940938183,0.0134122657367593,-0.00790308067261772
0.0376191742071827,-0.102885645994771,0.0163464356501398,-0.00454915322432359
0.00332383277360535,-0.111850037588885,0.0170242221367341,-0.00078528451570333
-0.00244134473935797,-0.127845231798445,0.0149793160316463,0.00254989457732131
0.0034466014568046,-0.143345309820473,0.0112598132971118,0.00543242895408437
0.0064483160918774,-0.141324629407225,0.00672483962203423,0.00825205180227688
0.0087475881109461,-0.122161109112318,0.00331892919726651,0.010578441569995
0.0166980127368042,-0.0961890127947232,0.00232951450372756,0.0115068099313263
0.0305535031611647,-0.0714116458519817,0.00239406459912182,0.0109194572340976
0.037000382469568,-0.0491257312888766,0.00127604866855823,0.00964417153406383
0.0301136724578445,-0.0240456702106146,-0.000674506184875309,0.00867965942230051
0.0259270509403007,-0.00375095261850234,-0.00339306201764604,0.00853938609696973
0.0348091768753645,0.00213031632463588,-0.00770805698877676,0.0089443960273107
0.0540947605105306,-0.000908604040074482,-0.0119089525537851,0.00898136787817268
0.0728154978392787,-0.00956540489803214,-0.014601381884945,0.00817784213667413
0.0697766472468679,-0.0196424090998057,-0.0135818275694952,0.00675271477766836
0.0438431352276785,-0.018854271995494,-0.00891266706678389,0.00516916479532465
0.0154868997243962,-0.0112823740834745,-0.00534474917607336,0.00395368778394584
-0.0116177342875427,-0.0120598471576298,-0.00552996901133696,0.00308459997701307
-0.0390304771880411,-0.0197436084795113,-0.00684930087107915,0.00210640854987242
-0.0599193197097349,-0.0270484258593597,-0.00561765405158642,0.0010431551475214
-0.0741753840124327,-0.0338011359724973,-0.00254379407177546,0.0002331442162643
-0.0775850404704639,-0.0393198339569435,-0.000363787900301198,-0.000195675588554283
-0.0691412247894246,-0.0392939852892529,0.00142454781506661,-0.000357904440336633
-0.0636115882153806,-0.0214992877154104,0.00402536536050809,-0.000570490699775751
-0.0735512686908002,0.0146545703059317,0.0055952996811258,-0.000978695042357843
-0.0886176885410473,0.0311431479084696,0.00414172017479184,-0.00125609934970734
-0.0773400279546772,0.0158447535536327,-2.69157268873435e-05,-0.000987305847181246
-0.0498293261980429,0.0126455385817274,-0.00337834693778124,-0.000230892984607064
-0.0559498967839526,0.0576067660231116,-0.000772290054253006,0.0006124426448996
-0.0770173175532858,0.161462116910899,0.00674965607464856,0.00103429514698641
-0.0606470543489507,0.265633229061712,0.0129382094820378,0.000756227524636321
-0.024345906541496,0.269571738184653,0.0160498424655136,-9.33584985321296e-05
-0.00961802457777394,0.18445783741796,0.0173794473175606,-0.00118548738345835
-0.0126461238505787,0.0894330162430259,0.0174306760489233,-0.00206327423853283
-0.000877867839514199,0.000406600917408073,0.0162442528719316,-0.00246914625085364
0.0321783362117814,-0.0950278640537287,0.0147750825148158,-0.00238756564234454
0.0615019248137658,-0.186172863750793,0.0128145103370875,-0.00178754315570344
0.0746509893797646,-0.231369139782408,0.00706982186835617,-0.000610460204333874
0.0797314814154794,-0.188750988607062,0.000281967721391822,0.00102619159470272
0.078890963965146,-0.109163357924393,-0.00269877003164847,0.00252981718176193
0.0659669566903815,-0.098769430648893,-0.00510828675964661,0.00286564667805894
0.0402992697311854,-0.139582795399957,-0.00888158586862267,0.00150668822530047
0.00797088147973235,-0.105109606105838,-0.0117785072512999,-0.000661122902921586
-0.0226560897656465,0.0196016378544031,-0.0130610990551786,-0.00197447731404628
-0.0465784764336574,0.114329487939626,-0.0102468824232637,-0.0016896724681064
-0.0630161794806202,0.126662423592866,-0.00255267042911772,-0.000745971388846034
-0.0727418660438928,0.105894561046009,0.00486853852622547,-0.00047651636330702
-0.0750165807093131,0.0892278901730405,0.00804498537990433,-0.000988392650879437
-0.0657698955087349,0.0734590632337518,0.00690810425528388,-0.00129220405718635
-0.0470403847898455,0.0463946821219361,0.00326166818955335,-0.000981659831391496
-0.0298786860438149,0.0164478142156676,0.00217132698454658,-0.000560294870804397
-0.0183263981512902,0.00403775170112071,0.00689392518799818,-0.000376857332525331
-0.00618589946651374,0.0048192211731449,0.0123249105958037,-0.000577059472229308
0.0124030228961888,-0.00482799494258235,0.0113529850759056,-0.00104781369856142
0.035630521063673,-0.021061947182938,0.00391963969653677,-0.00106357626306299
0.0556007221206806,-0.0245014141892318,-0.00517437253222597,2.2083445730325e-05
0.0704705612969566,-0.0302228023375095,-0.0113799907854148,0.00182022348041329
0.079551889928395,-0.0734925528334034,-0.0111831593039203,0.00326392470481079
0.0757121560372408,-0.127213720661847,-0.00709954164884838,0.00354593742618329
0.0609478602413635,-0.118387323773391,-0.00545514499753919,0.00253663977319503
0.0476669855788411,-0.0566868970310555,-0.00845704969389497,0.000937790966552007
0.0376282426445908,-0.0170081984961382,-0.0141784076965574,-0.000348572067123828
0.0265665512096099,-0.0234578742838723,-0.0174388601437629,-0.000876730389484982
0.0156426927792531,-0.0392381244508382,-0.0146563987168053,-0.000662375068742171
0.00587767441608926,-0.0367505243628286,-0.00887995199249613,-0.000161920021249427
0.00638894683725337,-0.0245845756197169,-0.00515136271733031,6.28517182135913e-05
0.0224635929973387,-0.0152483864090142,-0.0046604201682799,2.97955110311943e-05
0.0388242347491336,-0.0136925728556283,-0.00606806049361664,0.000277917709157317
0.0445749875872497,-0.0212472215554235,-0.00810786178423907,0.00101020319236682
0.0427841666708474,-0.0323471205209011,-0.00872820623347493,0.00214293593653151
0.0406149326414252,-0.0265471137876096,-0.00477270050284396,0.00299471578009845
0.0454579072466669,0.0106227611385432,0.00170685138897009,0.00148622760766827
0.0471518774255929,0.0450528538789255,0.00276944115115723,-0.00335324674445976
0.0327529944025877,0.0425569936447423,-0.00452346180137488,-0.00805885582133459
0.0120074670359785,0.0260961601705891,-0.0137577972413094,-0.00807827894250731
-0.00700448583614853,0.0188253621364087,-0.017932109672932,-0.003642398638401
-0.0282374571356692,0.0122827729885922,-0.0175123449352326,0.00164651814655525
-0.0517619634240568,0.00631176064875621,-0.0153327502051637,0.00498809762635427
-0.0711987094002544,0.00912260747898087,-0.0108075083491881,0.00522158366887299
-0.0757090990719509,0.0128287612468578,-0.00458941339697013,0.00283683910821971
-0.060214514430102,0.00752928601695593,-0.00042666703637645,-0.000391148804150171
-0.043103371693838,0.00226172539521205,0.000242101285757985,-0.00274011357043427
-0.0488492429456703,0.0102260516887146,-0.000182607539233044,-0.00358963952245793
-0.072606595732931,0.0168413632340393,0.000842146890259102,-0.00329350052388208
-0.0869972502880144,0.0123529822278263,0.00285481856181562,-0.00234188737632397
-0.0786113947548984,0.0301058754257712,0.00349265418431418,-0.000996716807803523
-0.0583348185081403,0.0703183409711985,0.0026238516505519,0.000230688872302666
-0.0338701505347831,0.0792168777957518,0.00179126775249306,0.000728923190346934
0.00885069252032403,0.0537606431707136,0.00139028685904016,0.000617299307644714
0.07118814317061,0.0589735438748161,0.00187170239068552,0.000441051496017595
0.108451071721869,0.0918476889459307,0.00195542464276826,0.000302882995450651
0.085917779837279,0.0576866783457671,0.00038477715591357,-0.000115872373817299
0.0338255645892367,-0.0416543194692671,-0.0013942886509461,-0.000693505048196378
-0.00504267665802874,-0.0959610655817364,-0.00264077018367247,-0.000850790285613257
-0.0327394955124934,-0.0718945244697057,-0.00399268423357675,-0.000583279572502575
-0.0611566602649342,-0.0257272818948668,-0.00500904122501174,-0.0002173148046563
-0.0800822607194182,0.00636208530314068,-0.00421195602936305,5.6006160004551e-05
-0.083205486423701,0.0228677461973173,-0.00513177387243831,5.18673150427518e-05
-0.0748592569114834,0.0288530281863983,-0.0080363220211301,-6.97510391960586e-05
-0.0551103352228896,0.0379208750587511,-0.00642951225039864,-0.000253335579765861
-0.025535738505955,0.0523763991790853,-0.00035515146162471,-0.000835442405812507
5.64430742250252e-05,0.060533832257433,0.00547443099191688,-0.00183913261934891
0.0081655356109252,0.0781856980212402,0.00849153016515279,-0.00264660498067894
-0.000990487912455353,0.109249722805308,0.00910291309870417,-0.0025444784773701
-0.0177418066333776,0.0965923290486093,0.00792891240421174,-0.00162472887145645
-0.0280445028866277,0.00978637607338953,0.00621219105444111,-0.000492009593613812
-0.0204667442179423,-0.113879377521925,0.00543878080682317,0.000386213022305323
0.00180530294131719,-0.203894702162515,0.00475573974369073,0.000795972237949654
0.0210610280008623,-0.199125580096475,0.00517530853768157,0.000966457426003672
0.0269636705517505,-0.129848771767176,0.00773480188650298,0.000980050609597419
0.0241219045203025,-0.0725128900059311,0.00964220460512737,0.000591726112690402
0.0227307406240057,-0.0462201618276586,0.00870302563065917,0.000108711555090946
0.0239727801594133,-0.0295343236810642,0.00642477543259436,5.02716553536727e-06
0.01275576596563,-0.0137365610200286,0.00502561850568196,0.000177454552026821
-0.00880018122776719,-0.00279173288805828,0.00405416979336275,0.00050177074701092
-0.0247801762518964,0.013430413858033,0.00345018542522421,0.000878112606138299
-0.0351290714489034,0.0421533860858737,0.00207227180765879,0.00114876512000559
-0.043836981261932,0.0659857366487365,-0.00166957845628593,0.0013469981528629
-0.048640593035883,0.0754413402486901,-0.005809888211041,0.00151484356110527
-0.0383721238574091,0.0712751624617768,-0.0105000527864463,0.00198816395311824
-0.00598583874025953,0.0411438632947103,-0.0144012197295883,0.00296361875843238
0.0349740502999896,-0.00989313208463317,-0.014388657187366,0.00373507130406679
0.0696070239746187,-0.0474043802881779,-0.0112413024983629,0.00364798106477481
0.107835426444856,-0.0590574476744974,-0.00629094779837979,0.00271792536119029
0.153244219188177,-0.0561628052830638,-0.00194857475794953,0.00113367502813794
0.176886130532635,-0.0240057108924736,7.20293435538706e-05,-0.000636329475239093
0.152972550274193,0.0664423023869062,0.00202957863261768,-0.00199123778109394
0.083634908258981,0.180437344571745,0.00487606172171643,-0.00257284674089959
0.000112638119461522,0.222439252293824,0.00698673859631242,-0.00228998330317795
-0.059952284191002,0.157763747771161,0.00660977911923019,-0.00170343869054917
-0.0786470200399934,0.0325812572279758,0.00345300593451743,-0.00149369506975998
-0.064257097509213,-0.0781848627015053,-0.00117316182436399,-0.00121699055933966
-0.0491695046551119,-0.110120035033657,-0.00530961862645314,-0.000219277519852737
-0.0539860813774165,-0.0740355576766116,-0.00571137195343821,0.0010535715930314
-0.0621154150755032,-0.0312425191040461,-0.00229092749444224,0.00169237160378182
-0.0524716904555084,-0.0218076475232694,0.00113515476412947,0.00135975527712147
-0.0179638885965988,-0.0486070072972942,0.000526257978245306,0.000691083548238056
0.0307489973250555,-0.0852440505096787,-0.00484116147773201,0.000556623205399224
0.0566462491513697,-0.0939925757611814,-0.0088581637756525,0.00103352806789004
0.0435594924566655,-0.0569524550835838,-0.00721684351797737,0.00155399752700796
0.0236396715070397,0.0018043681473698,-0.00363706812832468,0.00175714145130689
0.0214154360840266,0.0458045383251643,-0.00174859154316816,0.00153491559715517
0.0268004227674061,0.0673243090548727,-0.00200764726750058,0.00102612925970404
0.0285602199781275,0.0733858987634333,-0.00149924812479264,0.000724462501799556
0.0237246354504315,0.0677197938835135,0.000213461614332551,0.00067422290184588
0.0151624139263324,0.0598023047898288,-0.000512893677823143,0.000600660168941349
0.0124657132325506,0.0570931251337754,-0.00211143768313498,0.000418968006821493
0.015097810423985,0.0578094832284955,-0.00185114095202254,-5.24946285651902e-05
0.0133440732916907,0.0576359488308511,-0.000627945941587054,-0.000744778571283754
0.012795719131386,0.0512829223400362,0.000478079682693397,-0.00133683329599317
0.0233339122586464,0.0383992394145597,0.00192715613430229,-0.00168302292742965
0.0348858108461992,0.036068483950025,0.00383107146751532,-0.00179180511739954
0.0390092840250175,0.0586755781303162,0.00514751362474987,-0.00181553929726883
0.0393982346733106,0.0845894193293174,0.0056282962046822,-0.00186048249415876
0.0391843059904138,0.0848095938070753,0.00616332025530897,-0.00190903976224629
0.0356363162473537,0.06592265831816,0.00730449564129547,-0.00186838731269657
0.0233590977569842,0.0425699891800205,0.00858274279993863,-0.00159737671654631
0.000234175484279432,-0.0158050290351756,0.00734087082498863,-0.00123730695537553
-0.029762194701878,-0.106847283404818,0.00447007280483077,-0.000998031939269631
-0.0525669377687448,-0.146103950753262,0.00462125368178874,-0.000680681818474273
-0.0566422379262341,-0.113693885194641,0.00711212842917031,-0.000183787766005575
-0.0529293381656341,-0.0809920990191639,0.00913507352030068,0.00010508394866031
-0.0569911102730528,-0.0883822540350689,0.00724257082539322,3.97579521351432e-05
-0.0601087318292708,-0.108097150091068,-0.000400053411069877,-0.000172777794999608
-0.048748007046554,-0.095216264225014,-0.0103829220391019,-0.000389204697982667
-0.0307561879940779,-0.0504480508393419,-0.0164515426263097,-0.000382423903561719
-0.0200396254752393,-0.00613820510520249,-0.0138574062340678,-0.000368381902389185
-0.0170648322691612,0.0210803208194659,-0.00745106972920692,-0.000546188866711378
-0.0158854842259303,0.0332870629799768,-0.00350221493433399,-0.000438863652909683
-0.0115917104374075,0.037253125307978,-0.00120474623812513,0.000190266641577366
0.00247242884106669,0.0293731196185576,0.00207852837322914,0.000854098406308406
0.032808019969578,0.0146163581881045,0.00909466503653382,0.000764783031301363
0.0702744522933505,0.0160313322469041,0.0168234512231537,-0.000370077542900125
0.0892282717396343,0.0145626011043512,0.0196508311245276,-0.0020728154429369
0.0818924740378313,-0.019614458166369,0.0184342719563762,-0.00360031700288374
0.0614595632860452,-0.0518783256132692,0.0165020231135827,-0.00429816788476563
0.0293362768215005,-0.0693157929316998,0.0142216695722538,-0.0037683174975244
-0.00615777114625754,-0.101577935306846,0.010226848468068,-0.00250964503942318
-0.0183560933825272,-0.124875391030004,0.00739542371981323,-0.00157033143464693
-0.0066472682658892,-0.103612981287008,0.00906190141772218,-0.00299153203707674
-0.00101438643996953,-0.0606372659434427,0.0123882301959306,-0.0129547827005841
-0.0159409267500183,-0.0343705840188133,0.0142674035573911,-0.0378120234165297
-0.0403553162177551,-0.034968742710032,0.0134024324609911,-0.0690808369262627
-0.0657357170271992,-0.0526157347673376,0.00925148295883634,-0.0840459985286292
-0.0939625495510969,-0.0717332410767173,0.00474351668209116,-0.070478274244691
-0.121192797718281,-0.0852434815093993,0.000656191886341126,-0.0382335136831358
-0.126164105738695,-0.0916635089370726,-0.00468791692832896,0.000943980108642925
-0.0920196955362946,-0.068863639950898,-0.00964283053344276,0.0536567040190966
-0.0238397706972069,0.0108014302640814,-0.0136958231348065,0.12404026622046
0.0466414639681885,0.114235675349435,-0.0184477161712776,0.183261574745504
0.0771738707961077,0.136133967151218,-0.0210970011127812,0.191445414467625
0.0661278621467488,0.0565682302710358,-0.0176714661231476,0.14054896197987
0.0582225196335391,0.010458030560074,-0.00960211249107136,0.0551631336335888
0.0821726181862983,0.0634233156477397,-0.000413939964520316,-0.0342439251997209
0.112508589229862,0.109255252054576,0.00680299042608768,-0.105100638761797
0.112385387852849,0.0657110745422752,0.00966016741527895,-0.144020932601708
0.0779266521983052,-0.00902894826584075,0.00852464675725237,-0.148583093083546
0.0364257716058438,-0.0424838591487055,0.00460221457081212,-0.126212861726022
0.0121447831439623,-0.0407650857980881,-0.00132641438435901,-0.0883263538928307
-0.00152803319109714,-0.0336676813540319,-0.00515572510574619,-0.0453922334601632
-0.0202716772185145,-0.0327444536554621,-0.00285721232631965,-0.00434052232945741
-0.0404687692850342,-0.0319239156152999,0.00160478863199529,0.0340403476167495
-0.0484504802769073,-0.0227384724045033,0.00227979269930669,0.0707755781166179
-0.0504610621925061,0.00381124300579471,0.00113193193866374,0.0967947812238821
-0.0609204978836347,0.0468436771212642,0.00248226846118221,0.0976258560971746
-0.0714250213807968,0.0765517956663134,0.00473878332338727,0.073386883946205
-0.0582636536595377,0.070017337858546,0.00448120163545643,0.0401248871834912
-0.0161879095210998,0.0427360577748166,0.000577473963818707,0.0132276951824786
0.0269747776343756,0.0280081645424443,-0.00451851462946956,-0.000894158962182603
0.0465022096119134,0.0383710682386788,-0.00643594195381972,-0.00333003809504217
0.0460653653961756,0.0549802638036416,-0.00499456435209467,-4.29720410004453e-05
0.0385563528453703,0.0565945370095963,-0.00266964209781613,0.00266926887668332
0.0311320131881454,0.0406396451873743,-0.00085445524570802,0.00261913482184919
0.0253914127732762,0.0119379745517021,0.000315519629676031,0.00075308925017857
0.0181935391665096,-0.00267600466421504,-0.000284940306754996,-0.00339964715011242
0.00461588428040588,0.0356458753362088,-0.00139026650402879,-0.0129235649734605
-0.0277223166496747,0.109036321485485,3.09420325334889e-05,-0.0292034148895254
-0.0784675274305684,0.156871801235998,0.00128671043503868,-0.0462361423340921
-0.120086645494839,0.157332356455019,0.000443480562083763,-0.0517209255375932
-0.133638799660411,0.140063571813057,0.00055272208643501,-0.0373355382433355
-0.121521132053937,0.134030214211064,0.00254402152985746,-0.00685143610427398
-0.105722033061339,0.135953221169802,0.00286109108394622,0.028330632000334
-0.109338120559138,0.13235120391722,-0.000369304408260265,0.0591511196686375
-0.118958137901958,0.13289887605024,-0.00403551728219537,0.0799323332776729
-0.105621052005856,0.14027500145047,-0.00631414978894991,0.0826450409149871
-0.0669558980042315,0.0980085951558607,-0.00494579701361493,0.0617003238705881
-0.0154328315516908,-0.0862698011613848,0.00231648486566738,0.0249493631091858
0.052358422139191,-0.354252699239548,0.010245145930225,-0.0111881625385395
0.125413341406155,-0.455119386240144,0.015410551814911,-0.0362514590217132
0.152302768714384,-0.313820747031187,0.0197183840512663,-0.0490967408999039
0.111505220682825,-0.136260264526484,0.0210975724185615,-0.0522134461646034
0.0540294864444301,-0.0823871431607053,0.0180871814726456,-0.0491916989570446
0.0340357107363581,-0.117591544873033,0.0156815496097437,-0.043892548213287
0.0525069989499982,-0.115804638655757,0.016358894562169,-0.0382348292736566
0.0682532453067441,-0.0314727795430345,0.0171745812381189,-0.0330926174741655
0.0440669824650649,0.0681205763860605,0.0159531336590382,-0.0295628599278957
-0.00491219433474208,0.132536216106381,0.0136203801397004,-0.0270187760440292
-0.042965717073954,0.16493344609429,0.0105660867513452,-0.0231239372962084
-0.064172039169052,0.166928943190802,0.00540457894798409,-0.0155091231643914
-0.0758463875087478,0.137450779282837,-0.002313648110241,-0.0014928393214645
-0.0792460082491841,0.101465720214557,-0.0146578930180598,0.0197395942310205
-0.076863684002715,0.0820531296334475,-0.0312905631465002,0.0412675187240419
-0.0642029802525989,0.072548582269295,-0.0392184125716755,0.050761504129008
-0.029728077795213,0.0540116249257445,-0.0284168015318268,0.0443381241636071
0.0127235532110788,-0.000365909103825196,-0.00946673678188218,0.0303702073547642
0.0362107933608489,-0.110885483475014,0.00485294535077474,0.0164914609802176
0.0375546489352457,-0.222422952474844,0.0114528964186743,0.00336351917191561
0.0257909411622936,-0.23483124829076,0.0131018695801173,-0.00887345663571586
0.0149636762110537,-0.158924644729621,0.0146481422787352,-0.0177954613705437
0.0194629762707552,-0.0920069092098104,0.0148380183619771,-0.0220331911209057
0.0346666952762069,-0.0670823991531871,0.0123029565434193,-0.0222954342240812
0.0486439194015391,-0.0522368965447249,0.0111770346437711,-0.0196831229222246
0.0618100035469952,-0.02309673404738,0.0107954336582922,-0.0154016181450377
0.0813941920040684,0.00609990652012212,0.00732702364317608,-0.01120354824824
0.100434393570279,0.0109582505569309,0.00189288839698308,-0.00825834741695919
0.106233389637664,0.00450066160102534,-0.00319241077253749,-0.00667144467811029
0.102597521726504,0.00772256002836723,-0.00765354859260831,-0.00600202193202639
0.100538210917733,0.0104280738412851,-0.011681089658192,-0.00545494522879324
0.101170332155843,-0.00863672709270109,-0.0136142289490462,-0.00494932023811572
0.0998467435330209,-0.037381467822989,-0.0139844984398173,-0.00465585693069128
0.0919656344548394,-0.0391488196732019,-0.013237818588913,-0.00387956765765503
0.0737554826578211,-0.0148699893586623,-0.0101999208624706,-0.00232695361220155
0.0519402014321685,0.007688906463363,-0.00816043205946647,-0.000631760358985947
0.0342041281264706,0.0236775818818865,-0.0082441847540286,0.000732808286098195
0.0189570583822473,0.0390234460363532,-0.0087696422142494,0.0016960926217313
2.19856138223423e-06,0.0483432907819284,-0.00943368485992678,0.00220032951136565
-0.0290009500914863,0.0549703717719905,-0.00879979808947107,0.00248024646051067
-0.0637400291046715,0.0651935444950474,-0.00803056674443597,0.00282316830074546
-0.0887178307682398,0.0667664089040256,-0.00953582319645394,0.00318309344558815
-0.0936812785969658,0.0548486668257869,-0.00984334001055546,0.0035143312583034
-0.0680520588405074,0.0392842828095383,-0.00770191775483404,0.00359013742053507
-0.0130949423470125,0.025005334718515,-0.00670500114979626,0.00306662650035669
0.0227776679014417,0.0160231528151182,-0.0056353460841365,0.00186025962805464
-0.00098111082158496,0.0112132698490451,-0.00235286588665357,0.000260753527927116
-0.062660446028738,-0.00111497173754234,0.000353561361391623,-0.00127715663956694
-0.119689612663195,-0.0167700184277163,-0.000193409514164146,-0.00251857362738842
-0.146977759111508,-0.0238781573744908,-0.00174478077256304,-0.00347054955013643
-0.141717325805076,-0.0305432380325665,-0.00145836917811218,-0.00411707418979711
-0.116623278018696,-0.038523946175405,0.00095418970063299,-0.00441249846862627
-0.0827352873761527,-0.030975248065327,0.00351662395443015,-0.0043243765067074
-0.0496191453994801,0.000850691760151359,0.00436757928788757,-0.0038321965922759
-0.0238639621990072,0.0443961466368917,0.00398233376451691,-0.00316380735489985
0.00372346375145394,0.0804153667191228,0.00124338774371813,-0.00250707880276672
0.0359322534162039,0.0935282466275014,-0.00430737480813294,-0.00189292072670891
0.0512710733899309,0.0678052367325226,-0.00894415790260425,-0.00126368929796853
0.0388039357962265,0.00387559691764072,-0.0077683428666519,-0.000509549585727994
0.0261697284141648,-0.0316405773953274,-0.00200573804943301,0.000283617456161163
0.0217424489083191,0.0105984811933043,0.00266241571571989,0.00103390192782112
-0.00260371084364779,0.0442232831219994,0.00487799936718964,0.00145743800255198
-0.0421306663590961,0.00163529011395318,0.00522874328923807,0.00107252884812618
-0.0655684023300318,-0.0686691411847807,0.00298634241865223,-7.78381939055047e-05
-0.0615925482379396,-0.108435931413948,-0.000692329930155509,-0.00134649418288374
-0.0410364291627027,-0.0869323202771714,-0.00348442971540791,-0.0019496741634145
-0.0253709516421506,-0.0153174502770987,-0.00359832421538556,-0.00167608054591424
-0.0380222412193583,0.0512238195686,-0.000519976541857997,-0.000892474630973668
-0.0793785108677045,0.0752962105993564,0.00251050443197247,8.23340877744326e-05
-0.115936724360336,0.0736430307536583,0.00411043417516074,0.000989724111656365
-0.119097173817231,0.0739420398537611,0.00507825392028144,0.00169644259517396
-0.0996210777785213,0.0747513901396756,0.00504388697293311,0.00233545542070512
-0.0819166348731735,0.0630310716572457,0.00558384338417756,0.00300329150511638
-0.0669346035098748,0.0453914556632326,0.00835791887037355,0.00365647726471397
-0.0439559440921564,0.037382387721058,0.0117230738067002,0.00426142289796118
-0.0124950794804688,0.0382582139904615,0.0129418541028987,0.00473006676246489
0.0197134147516964,0.0332354498149758,0.0127986180643714,0.00498951948561633
0.0476061832086616,0.00581982417301943,0.0116950503463998,0.00499045566492891
0.0737307871666035,-0.0232175498422355,0.00599509257284009,0.0048565855638053
0.0957636285175858,-0.0177871376614547,-0.00393866216881511,0.00509961852345208
0.10335454189955,-0.00307477380584633,-0.0123877968914333,0.00587253820673684
0.0949757912136459,-0.0286141516374374,-0.0159375073244412,0.00666004284691795
0.0731668286545233,-0.0760608454980712,-0.0126272913639486,0.00691799088083459
0.0465487801321719,-0.0891647877754238,-0.00373537097490391,0.00663461668360294
0.0315331588224681,-0.0623981565289489,0.00317452886190213,0.0063151907015912
0.0299499374497255,-0.0234977534815415,0.00370099894178201,0.00606158857463541
0.0327199092958861,0.00629234027667566,-0.000587713953471217,0.00546157240937813
0.0363002588723505,0.0218286099114416,-0.00705332188107215,0.00471862307631813
0.0374872877127544,0.0308076609170895,-0.0105401965062697,0.0044158353628166
0.0334907664530864,0.0310111676171917,-0.00797171436693485,0.00437135298438966
0.0281777874732096,0.0248826951613339,-0.00377737603614981,0.0039525069192047
0.0250352223082994,0.025206149491693,-0.00185132075555771,0.00299290110239183
0.0218772561322442,0.0303140910409091,-0.000291407319547989,0.00192886132441915
0.0127218891385827,0.0247071596084768,0.00352640537758627,0.00130783623905571
-0.00450985273434477,0.00203215161282402,0.00781062286725297,0.00124038705912851
-0.0184797878454838,-0.0288531071419298,0.00984382359308132,0.00154015293738614
-0.0149375519598403,-0.0563140793500325,0.00995122566879858,0.00202946883688318
0.00153905297257347,-0.0759510790307307,0.00937245010172768,0.00236416843791634
0.0143339658689538,-0.0875590111683236,0.0079722317171314,0.00226438715856997
0.0161464546513034,-0.089998182665135,0.00646135046881793,0.00177988802557978
0.0134024573479612,-0.084836258545601,0.00669940078680638,0.00111760390161303
0.0135144528219787,-0.0751500572297335,0.00591192494483811,0.000566638281202005
0.0197386449819835,-0.0718554954913663,0.000825465342145778,0.000257552650245974
0.0329134126233723,-0.0760324580790193,-0.00399562491583726,0.000114467788728586
0.0455919886625639,-0.056796100897425,-0.00401941135684264,0.000174382183010186
0.047435315003166,-0.0202443522298554,-0.00305044889061343,0.000335768926607359
0.0379244351383422,-0.0118874556791917,-0.00276359885153023,0.000251194939755015
0.0248425440596214,-0.0253593552996156,-0.000393432516463504,-0.000263708670509896
0.015020287602413,-0.0298080091039236,0.00225211655811739,-0.00115332182482211
0.0116520800864285,-0.0220123691799559,-0.000575586536964613,-0.00206232241703805
0.0102527847446168,-0.00639654869745389,-0.00960358290501645,-0.002486771473193
0.000260597118746084,0.00392273849720764,-0.0171756904486636,-0.00214468903542386
-0.0220009278011005,-0.0205162964555848,-0.0178731225459005,-0.00124924606325096
-0.0437115141745069,-0.0688808910569722,-0.012806545849068,-0.00028334939412381
-0.0477504274245106,-0.0846516386457952,-0.00464300151866985,0.000264602194769104
-0.0387198307591678,-0.0608289235532646,0.00388424687377483,-0.000203539359482842
-0.030154076627813,-0.0371562236832407,0.0081094839698839,-0.00159574538823122
-0.0200372375238041,-0.0274764620973595,0.00721063425296346,-0.00290067428585764
-0.00303958667289771,-0.0243280799517804,0.00553037056477643,-0.00329737342664006
0.0172153978639505,-0.0249172503668049,0.00363759117231245,-0.00267638583260396
0.0301639126392254,-0.0344132657097796,0.00163807409144948,-0.00152037480005563
0.0291032587215648,-0.053095750119205,0.00251808812649678,-0.000544028274629567
0.0155379179861795,-0.0623933673645241,0.00603980314896813,-7.8888618651388e-05
-0.0142833744517385,-0.034441771719974,0.0075718076583659,-1.65094065562184e-05
-0.0566150006333017,0.0447464746842814,0.00626734028477888,-0.000144921040899221
-0.0897660482144587,0.122284824868956,0.00415726802789699,-0.000269914790335816
-0.103842558285825,0.106798477482112,0.000617402074927821,-0.000332154700309053
-0.101218171257408,0.0129154837149194,-0.00313364979419246,-0.000449623011048285
-0.0864196006457671,-0.0569481265243693,-0.00306842138851206,-0.000703831406038849
-0.0787274022882596,-0.0606277748519375,0.00123781578692366,-0.000970884663394041
-0.0790793785265982,-0.0337060768650192,0.00592596033640741,-0.00131537270728271
-0.0579054443723817,-0.0157596082435294,0.0091049494480444,-0.00190744311486888
-0.023978174335079,-0.00457806273388432,0.00862267212153657,-0.00245192038918868
-0.00457109813696732,0.0416286517051282,0.00304410692599934,-0.00235673207579862
0.0205784263388383,0.150842564312072,-0.00462451596808622,-0.00112310871838179
0.0550609071976362,0.251717502154646,-0.0125206913413393,0.00103107919289493
0.0597941922282274,0.231261054189322,-0.0186882041715783,0.00285991247459306
0.0357605424664381,0.120095751580735,-0.0192015265810077,0.00319289606564223
0.0171707858836933,0.0557295226884558,-0.013178622955842,0.00181744273276811
0.00245723428731619,0.0765812127245152,-0.00455448638672509,-0.000514774613388354
-0.0274478325338806,0.100071829611695,0.000527847524596149,-0.00224280804792078
-0.050494893910935,0.0506951960711659,0.00072344008595707,-0.00231184948485227
-0.0320732810363044,-0.0618983896191787,-0.00104324619719545,-0.000829590049720133
0.0196428462609515,-0.160125551506813,-0.00238722158572459,0.00149617599092326
0.0693431374075972,-0.161309633255375,-0.000775725139399089,0.00309769756388019
0.080139095285177,-0.066530279877909,0.00148894919551304,0.00228697257045063
0.0466847850007528,0.0269436175963752,0.000266468554244016,-0.000776265505334566
0.00767714674959749,0.0482659488178317,-0.00147382114386681,-0.00376024437903448
-0.00623976036052182,0.0128820274963391,-0.000786184621525941,-0.00466673431254386
0.00128501355778957,-0.0229034180029492,0.000897220716864866,-0.00393797379083723
0.0120734602643152,-0.0158018863945366,0.00246564734128412,-0.00294400738674099
0.00881816694036923,0.0261025066437918,0.00300802206443055,-0.00205836213150623
-0.00283327137750505,0.0570361951764748,0.00208303105259455,-0.00100879070622502
0.00247800774118281,0.0592359637916445,0.00170031986884761,0.000222027421050441
0.0217316227624259,0.0711736291765032,0.00167647234717836,0.00114360088148675
0.0252826074398272,0.115699889515537,0.00119956503039676,0.00138852728478416
0.00491915467966533,0.159422377758644,0.0018732612497259,0.00131633324484113
-0.0187639197456295,0.17387218076085,0.0017808896577308,0.00155163439182772
-0.0200674349160714,0.160170570870117,-0.00172984820424583,0.00201144667234114
0.00241432956965442,0.128455883710099,-0.00728683759884864,0.00216235191874787
0.0271139423790949,0.0930559908667885,-0.0104632464696026,0.00199249720647325
0.0449201229057575,0.0624028761325218,-0.00967890843732102,0.00157279595256434
0.0589524546719239,0.039113078885834,-0.00567678617274421,0.00072404262504248
0.0684373311972682,0.0250750105604551,0.000125656754061498,-0.00047274021358985
0.0728040276531605,0.00877337418196419,0.00304794116286119,-0.00183032259689024
0.0740567495378394,-0.0378509865646381,0.00236800136663594,-0.00307306307545381
0.0745080525610505,-0.12691398538558,0.00137662442478405,-0.00350579641555872
0.0735927577896192,-0.205047418864187,-9.85906322700987e-05,-0.00290326106280641
0.0650413978653867,-0.192009237388283,-0.00188704537124435,-0.00189974259890053
0.0481900521883137,-0.101521754738955,-0.00138281900371415,-0.000964776644583405
0.0329257165746734,-0.0225725776215763,-7.86288670499599e-05,-0.000265188208293268
0.0239959732489196,0.00644273848685178,0.00109323423285251,0.000380848924584866
0.0177195756415245,0.0120828828793353,0.00215161615073015,0.00149980898055298
0.012091709937906,0.021590208992019,0.00208113800045171,0.00282328989642035
0.00821116021444991,0.0334449722047957,0.00285649307713107,0.00341111371119589
0.00434354860344638,0.0374051820993118,0.00302890044186782,0.00285094664592962
0.000119724028168627,0.0331853040452556,0.00205871611618897,0.00141722238977899
-0.00087286666969425,0.0258420595273444,0.00224569637332254,-6.8688897412563e-05
0.000317296619426213,0.0191173695874962,0.00318310271863682,-0.000621178060263182
-0.000394296172928341,0.0131061808728643,0.00504627482812555,-1.71589926907087e-05
-0.00210857390983646,0.00731259798178819,0.00682810333204684,0.000971388792848013
-0.00220712139257096,0.00322920635881488,0.00809981151982689,0.00139180632846267
-0.000472953754604365,0.00137070371899929,0.00944872116568332,0.000861041247799603
-0.000161076123790298,-0.00259677881344825,0.00949902239469964,-0.000557811329857566
-0.00430355625193449,-0.0105308113776576,0.00834101142198593,-0.00247318045126803
-0.0100038477480373,-0.0179271134718656,0.00735703139004845,-0.00405371077823671
-0.0146380374239341,-0.0217606995303634,0.00601017569204487,-0.00450617250851787
-0.019266196528941,-0.0194283821360566,0.00395057707083974,-0.00358989201768099
-0.0212287808316768,-0.011527990535293,0.0030540007513422,-0.00178101066673553
-0.0159738190050437,-0.0059615225788358,0.00354656136898552,2.24011644660285e-05
-0.0089417295170604,-0.00662517546021928,0.00384132545258614,0.00119280209089974
-0.00933998032384073,-0.00794278198958937,0.00357523997476542,0.00162868254983937
-0.0175170064526107,-0.00441013127287245,0.00356537898149035,0.00156035265777957
-0.0257446839099934,0.00671372754843503,0.00448781776255703,0.00127735555940381
-0.0206539583251081,0.0241205401510976,0.0052341757615382,0.000888565239146841
-0.00389282616533339,0.0296692593379285,0.00471389920951608,0.000387521212272565
-0.000415496604128452,0.0076449903524707,0.00369619712053871,3.76928548315886e-05
-0.0164396148799378,-0.0256372768982845,0.00186443135924143,0.000156888117441511
-0.029387184228837,-0.0365061386910974,0.000300373224536086,0.000471352036438923
-0.0293365848425591,-0.0157983494521425,0.000965064004365599,0.000407777410551785
-0.0239659610584502,0.00853617512990124,0.00197654771237759,-0.000255093215463774
-0.0136691204651222,0.00935626123920501,0.00354714222345807,-0.000986608921306301
0.00798340986319585,-0.0189271065487292,0.00637745656549984,-0.00122560514774788
