0.00188873857429361,0.0232544046184195,-0.00984130870780734,-0.00299420623615511
0.00910262729170356,0.0323781928658815,-0.0109335601114848,-0.00353384748318017
0.0165644856467773,0.0197689843725959,-0.00521590648416243,-0.00310954259206351
0.0281033915069877,-0.00404251915432757,-0.00326904752663584,-0.00227998912310937
0.0442560100430897,-0.010335285843923,-0.00610605066469221,-0.00164538529344331
0.0527924078811534,0.000235373704598821,-0.00975814928524611,-0.0015298837284108
0.0454328282266982,6.54141283906173e-05,-0.0140670100497393,-0.00193239421427829
0.0325127991508781,-0.00979754454695003,-0.0163009433609388,-0.00238835974009089
0.0301393622273272,-0.011512686869135,-0.0103827912545748,-0.00214625019090946
0.0359075297987063,-0.00965075843219892,-0.00121648069102307,-0.00074080810566398
0.0341298286761618,-0.0131491634235131,0.00563494982898998,0.00158073959817678
0.0188639336734869,-0.0171815460836784,0.011852834801777,0.00349633198324487
-0.00914027353713789,-0.0196243784878112,0.0156767567706521,0.00377393723108939
-0.0509277068387598,-0.0213087084569869,0.0128578742309714,0.00281586329968213
-0.0940871855034635,-0.013589509075173,0.00369298498880924,0.00180563744876337
-0.11688253403662,0.00635122498740871,-0.00772965201973967,0.00148615282319436
-0.107229243378619,0.0200097037343777,-0.0167117454473985,0.0020013632049716
-0.0704089289512499,0.0191408487208731,-0.0192109670403907,0.00269087624601281
-0.0315484686088028,0.0100058387996334,-0.0147396474844423,0.00234673666877276
-0.0152046690941634,-0.00641888146481179,-0.00875815712938886,0.00042360193944986
-0.0272517586590238,-0.0293836563714611,-0.00819693742588364,-0.00227389136055881
-0.0515008155270033,-0.0466128137521679,-0.0124023911202303,-0.00433919958911645
-0.0627038654185979,-0.0330293450586841,-0.0143371755809539,-0.00482450481055692
-0.0526862839661573,0.00330237362506058,-0.0109497902516617,-0.00381344121929178
-0.0292891631072513,0.0290504234000888,-0.00506907913289828,-0.00232784300249927
-0.00542688662756978,0.0372510548649054,-0.00175592992747728,-0.00115354302901639
0.0181024245640186,0.0401872331867637,-0.00166138307691724,-0.000205758553052058
0.0506141187258641,0.0412233408742104,-0.000737684313132866,0.000743717782849332
0.0694359324690526,0.0305675076425486,0.00281725824422387,0.001271351323642
0.0467744114851377,0.00744945331525426,0.00817830080181304,0.000673542232999967
0.00551261426839857,-0.0142787156760664,0.0120771891908345,-0.000543948447522989
-0.0175013060560986,-0.0291725084068315,0.0120468092453535,-0.000832340398346364
-0.021183058112638,-0.0368440876612019,0.00780617242541147,0.000419243847442212
-0.0220816268547938,-0.0294632164125791,-0.000583607599181439,0.00245962942981689
-0.024186288551227,-0.0132179380038654,-0.0140375136654927,0.0040430431308879
-0.0267560426761082,-0.0052381999060655,-0.0401167779831756,0.00451626003307865
-0.0416566672669737,-0.0149808155022641,-0.0755019142533395,0.00410333695236025
-0.0657745900092552,-0.0188906449577584,-0.0946965880009208,0.00292968463099879
-0.0680565280749021,0.0149062342476067,-0.0863140500348983,0.00129679372334325
-0.04461568609573,0.0549031326077784,-0.0700258447165636,-0.000372235967483413
-0.021775267275545,0.0609873700443333,-0.0645164148268014,-0.00209210664186598
-0.0104359908858208,0.047596825266709,-0.0632826778150235,-0.0034202706044735
-0.00359401431790414,0.033937038305746,-0.0532423572024266,-0.00352265707768671
0.00388732041338051,0.0196520110988198,-0.0363257640855174,-0.00236261153658684
0.011264448457004,0.00304023415986966,-0.0211413606994106,-0.000977228335047912
0.0165013852546545,-0.013558080106789,-0.0115244718543758,-0.000200110817041099
0.0171427518015747,-0.0284053269084799,-0.00651684880816965,0.000198195434203072
0.0145159932973729,-0.0380421670904533,-0.00327272187765926,0.000572126821503255
0.0142126075884904,-0.0380355743129676,0.00230567890826473,0.0010621901981594
0.0179394392411405,-0.0326074538117823,0.0105402529293893,0.00184238091267435
0.0188066360306153,-0.0249769830354242,0.0141409413661769,0.00267729077964794
0.0124006246880676,-0.01636398014714,0.00922814489416696,0.00270819673654675
0.00360853776941728,-0.00820279098077198,0.00216174791788539,0.00128759179755952
0.00045829142777747,0.00516456141050049,0.000731053095214491,-0.00061530816631011
0.00529390101665396,0.0274418437291708,0.00499940500907028,-0.00122167631459501
0.0139735862894247,0.0506911934087477,0.00955327531752914,-0.000213352299494374
0.0224909350416665,0.0570742739096644,0.0115237469657294,0.00119247455669836
0.0257998070711596,0.0336968939914453,0.00918488113402889,0.00201615101230816
0.0218834824020827,-0.00738924222999893,0.000620503467690131,0.00235405586516301
0.0167732345486595,-0.0281293833313481,-0.0112541932423815,0.00236659109685805
0.0162135948613571,-0.00834383520378667,-0.0170233005288454,0.00186967899787148
0.0191714258372045,0.0237024274372169,-0.0127233147112617,0.000697061598635234
0.0212258406081247,0.0410390026787791,-0.00731236767023707,-0.000990514456114534
0.0221628707506053,0.0450116075237634,-0.00625818736300301,-0.00256839505895459
0.0270248496549064,0.0377081059550659,-0.00631137028104362,-0.00349067445988208
0.0405053528575103,0.0174538559457504,-0.00111419563882222,-0.00355681711344677
0.0559717156357617,-0.00947598565866091,0.0110585039924281,-0.00318321476613487
0.0530878270981624,-0.0357069616809378,0.0195301441757178,-0.00292226265749833
0.0246974611811595,-0.0630903795597862,0.0212647966041922,-0.00256078991201634
-0.00531416387412442,-0.0755673045408998,0.0247675203024747,-0.00172025422365154
-0.0153988802596964,-0.0496590595823445,0.0310610211618442,-0.000444009774054759
-0.0140445745539778,0.000104167810757151,0.0378075596459072,0.00136508626488817
-0.0128069054798391,0.0405142143736235,0.0425639289703985,0.00385530918243103
-0.0177402176999184,0.0566320113076373,0.0428866466892375,0.00606938494202043
-0.0356935960186392,0.0542799235413529,0.042511324583954,0.00655103105710375
-0.0567887414651504,0.0532201161906213,0.043010728013449,0.00518259749940015
-0.0620320276037279,0.0760434625908541,0.0399707494672391,0.00296886692782447
-0.0388978625237311,0.113730473998545,0.0327787381228643,0.00055952838022939
-0.000143049813734517,0.118408885289402,0.0266734316537916,-0.00186295137660229
0.0279567483571942,0.0607596610472117,0.0270578030643687,-0.00371403558362158
0.0442153035551909,-0.0144653456818895,0.0303998133147575,-0.00429176482580384
0.0475951457440362,-0.0446991115893225,0.0307141279981586,-0.00358713419211117
0.0307546781513441,-0.0383683681046763,0.0309677657785572,-0.00229245134971357
0.00526986770935339,-0.0294177136802457,0.0328720634940433,-0.00129859026997713
-0.0169427170596936,-0.0247867224972924,0.0329058556778916,-0.000898981335556054
-0.0375635781017545,-0.0181050192057062,0.0288607876745944,-0.000707318572741709
-0.0484643568782339,-0.00801908133895327,0.0210760964905911,-0.000311613330834276
-0.0330007833534305,0.000137217895780029,0.0125880544061484,0.000525447059142505
-0.00570617793467765,0.00388711985925658,0.00563090635662627,0.00141438151889593
0.00370375420617875,-0.00200104487203399,0.000102506869892501,0.00155934366958282
-0.00674311141852597,-0.0152802745240621,-0.00265858091154323,0.00113845972733177
-0.0200231698136436,-0.022669720762496,-0.00154451184687468,0.00112146735135963
-0.0236932432302473,-0.0131442718147904,-0.000149335669225734,0.00200949927019038
-0.0158397604959069,0.0125123430288249,-0.00146988258967661,0.00334194005121284
-0.00360177837562557,0.0366473193779361,-0.00361656684071057,0.00405116342220492
0.0049188830404238,0.0461782780023573,-0.00722140983737518,0.00356481375322993
0.00482636928622567,0.0466758161149436,-0.0134835608281288,0.00234585689634463
0.000152704764289231,0.0418692662326708,-0.0181946824554381,0.00105433629253867
-0.00283686566664371,0.0297210985196567,-0.0180714128260747,-8.75426154485085e-05
-0.0132617614618923,0.00960563572371542,-0.0146464829562806,-0.000946754151161303
-0.0330133424458082,-0.0101890983752257,-0.00949530153025496,-0.00136190692798404
-0.0393533177605482,-0.0166030270977835,-0.00540658429097774,-0.00135866357381255
-0.0208290116027134,-0.0175549569951094,-0.00644275679509556,-0.000970938657131428
0.00518089317178615,-0.0220118997526225,-0.0107199799554941,-0.000201466820987671
0.016536005448046,-0.0213263907675551,-0.0144735046009428,0.000621721902062824
0.00616714863179561,-0.0239912186620374,-0.0165377386058369,0.00105850164159792
-0.0120912352786939,-0.0440787323510812,-0.0179686550038364,0.00121054228930954
-0.0189750212415596,-0.0600962849247361,-0.0202223342474028,0.00160407955262709
-0.0138972004056975,-0.0492957032132707,-0.0211417660725642,0.00227193856109848
-0.00988177696972385,-0.0291468081488522,-0.0193291394193772,0.00251195436013717
-0.0109840019570596,-0.0230431293751188,-0.0174823391934424,0.0022204595445451
-0.0149952602046743,-0.0241444818954975,-0.0167172750615376,0.00193022817472341
-0.0168215394141353,-0.0183165495629606,-0.0154930882462089,0.00167586062619136
-0.00810557615953067,-0.00795318749684249,-0.0139431232758295,0.00137960574483111
0.00656578575950482,-0.00411249040531129,-0.0130893356848371,0.00104614523362799
0.0124183328786765,-0.011185865867743,-0.014436821745765,0.000778641761924265
0.00438793435703851,-0.019045497483738,-0.0162112071585504,0.000732030519927261
-0.0115606059858574,-0.0159725228408294,-0.0129674463414764,0.000689488694487614
-0.0265330595887386,-0.00490265117997554,-0.00708119460156523,4.76989857732965e-05
-0.0339120218625141,0.000657176881351366,-0.00457365816948213,-0.00139179196676966
-0.0337413598747747,-0.00400987620153676,-0.00557924386684269,-0.00265773537251307
-0.0281783762883225,-0.0147581469089837,-0.00778262469658188,-0.00258573871126421
-0.019314996010062,-0.0262035269254592,-0.010497852704232,-0.00114163041961055
-0.0131929887940915,-0.0300040087190075,-0.0128380089840168,0.00057461719178608
-0.0074714060176008,-0.0240638792719082,-0.0127963755766259,0.00148081951524616
0.0111589324444846,-0.0126394872618011,-0.0129480897030249,0.00136566064522789
0.0416778771137564,-0.000646965916909166,-0.0131283215124437,0.000742956102902203
0.067417690698306,0.00700071338804241,-0.0101000587135033,9.00869226449419e-05
0.0873156743348841,0.0129751216480918,-0.00771324718083302,-0.000640547383692939
0.10462948265254,0.0224893101733896,-0.00872734289941744,-0.00133434796269263
0.0940714403105361,0.0259080014436833,-0.0105450663116014,-0.00157533874204136
0.0348109043147682,0.00824837765871498,-0.00960189506433732,-0.0014551132949039
-0.0473564875259361,-0.0149829650648544,-0.0054101038313129,-0.00118851538933135
-0.0908417301622995,-0.0112311139981748,-0.00403651611695914,-0.000633708869231567
-0.0680052864233767,0.00859357045756747,-0.00986520943004262,2.44777425760358e-05
-0.0238345466368513,0.00730538657594399,-0.0173212438556478,0.000414790338974204
-0.000665606629519623,-0.0156352532024569,-0.0155654120326746,0.000528128304790156
0.007996460218709,-0.0319925675645463,-0.00634115583444171,0.000396559091919849
0.0153810320590753,-0.0300432686999622,-0.00193070102226822,-0.000167277816408736
0.0221446019881384,-0.0245136502148847,-0.00276402565524709,-0.00132632087809976
0.025654249029816,-0.0310366667964455,-0.00272854999031073,-0.00268934001373565
0.022082020065289,-0.0491204846893239,-0.000691713665378875,-0.00352240947034748
0.010439151168358,-0.0631260477150613,0.00138289402816256,-0.00347269401385015
-0.00981839365871365,-0.057048126375066,0.00197010518593318,-0.00281236481735399
-0.0285642882897642,-0.039716306623518,0.00169824699502016,-0.00221829219820194
-0.0261418974061418,-0.0346019731581249,-0.000561163599093051,-0.00199365547471801
-0.0118905046784602,-0.0416276440926699,-0.00509004491665988,-0.00182041559936646
-0.00875464618176456,-0.0354600044633161,-0.00881125263371833,-0.0013122776507876
-0.0107782963091569,-0.00143192947493046,-0.011250711003417,-0.000571376824114444
-0.00289365240450874,0.0386258685782751,-0.0136630625749218,-2.97633753758156e-05
0.0089276296113227,0.0588435301506919,-0.0152744350886906,0.000191497000290419
0.011776557653623,0.0642840173916751,-0.0154955160624906,0.000299557993166092
0.00869343849480039,0.0685674864999537,-0.0167787301030895,0.000428100563258034
0.00886951672093936,0.0735617807488954,-0.0197705680398941,0.00039087143710774
0.0147619496187954,0.0721158289535922,-0.0195065850083457,0.000203610599455988
0.023117400345213,0.0535101678579848,-0.0115971629010803,9.4367217241803e-05
0.0253386904484145,0.0165119876557413,0.000118249413615532,-0.000186696816553482
0.018724867857541,-0.0294010948066826,0.0062648146523659,-0.000968115519099079
0.01165241342142,-0.0676959637426404,0.0055116193165446,-0.00195833331085465
0.0116570752179487,-0.0746860466167007,0.0026827867691428,-0.00256853808659915
0.0135107690678127,-0.0534403493178725,0.00120203093938045,-0.00290053259223989
0.00487130674773955,-0.034339486696167,0.00340231235235052,-0.00310254427461341
-0.0139847992574084,-0.0160517543323598,0.00567255772354837,-0.00254360823159676
-0.0332854809835035,0.0155446137884894,0.0053355008747491,-0.00134405472762335
-0.0461777619595818,0.039191880472518,0.00545971283875864,-0.000553247952078698
-0.0503843007464573,0.0399387988060353,0.00567858242604742,-0.000358950677119018
-0.0449246824316656,0.0374014580427525,0.00288673268159291,-0.000259334961804222
-0.0318025361649947,0.0426943093519405,-0.00287982768807258,-0.000278897727602068
-0.014593933767085,0.0430460590837137,-0.00825540501797834,-0.000549452749407902
0.00709695021774574,0.0327343612134969,-0.0109892509998281,-0.00061222086045837
0.029146430692501,0.0158598470758579,-0.0132492487036639,-6.52550590186055e-05
0.0392505333938753,0.000803176845946149,-0.017595448473648,0.000837352511024453
0.031439087719921,-0.000943147535819191,-0.0242620461168532,0.00179958757291428
0.0210920516324019,0.00676114379553763,-0.0345676059399848,0.00276041488513021
0.0195819647160977,0.00751293227813606,-0.0458669137857112,0.00352308742054894
0.0143507554555177,0.00494221104782326,-0.0486635832261334,0.00381346205349871
0.00620785758377512,0.0105883085320582,-0.0394878432864409,0.00326717115382386
0.00581057827442061,0.0107899406604616,-0.0265560087244143,0.00143681840555012
-0.00566620111846101,-0.000158000400387355,-0.017092059528248,-0.00145492199717468
-0.0466580994072613,0.000775572063024598,-0.0103318369308903,-0.00421939833164008
-0.0820104515420962,0.0290418046081155,-0.00551526309861779,-0.00556729207908529
-0.0629308480789819,0.0622734752679149,-0.00516734013710342,-0.00501698932952102
-0.00957435614554934,0.0676816690670589,-0.00931913424201519,-0.00321127503291534
0.0251529257306948,0.0544879737566936,-0.0157816830382315,-0.000998242606569211
0.0333158394665473,0.0582270250689324,-0.0231514309523747,0.00158831285851409
0.0368587854187713,0.0824469394410091,-0.0282601301434954,0.00417104147527767
0.0421707926327271,0.0921281422467362,-0.0293035502789993,0.00518174406441218
0.0406426505322933,0.0603527915728716,-0.0286547095431691,0.00395670074641304
0.0311891581886074,-0.000340343289889689,-0.029463242502553,0.0016408995419954
0.0204749903143041,-0.0495271698786689,-0.0309794559585509,-0.000263722319890642
0.0166067798904694,-0.0565483925954488,-0.0284339965441394,-0.000800557720336708
0.0206696696249659,-0.0303737445894025,-0.0215367631482092,-1.06607259729214e-05
0.0236724910590399,-0.00426283943026559,-0.0140259037885347,0.00121526844052168
0.0172720208088618,0.00608862473815197,-0.0128749107233321,0.00145721851221178
-0.00330421547256526,0.00600286322543176,-0.0238473126066419,7.78563795444161e-06
-0.0420744585835041,0.00275180829447727,-0.03713795011046,-0.0018832454852553
-0.0861829506648892,0.00271795608003038,-0.0400014333735982,-0.00251887695192214
-0.101157639711642,0.00115598820112783,-0.0350949413136019,-0.0017879281157056
-0.0724047170700091,-0.00766719899622583,-0.0284087229437731,-0.000862121083392179
-0.0288263151152504,-0.0130318856644661,-0.0213624880942279,-0.000331803815993033
0.000937566779601468,-0.00930398562023529,-0.01555379730933,0.000185940499954472
0.0165617648445964,-0.000926863048269999,-0.00930845988850881,0.00102962383913204
0.0218258911044658,0.00995752875608219,-0.00270228719264987,0.0019250174524676
0.0185126063598984,0.0179241359347329,0.000910198459211864,0.00231601615958018
0.0163548121474891,0.0190565369419773,0.00489582868746518,0.00192038059004787
0.0248990424972527,0.0209389407868739,0.0134520963964588,0.00105402423604174
0.0385013528292829,0.0327938202997009,0.0227914012712468,0.000442250090149396
0.049860860267566,0.0473747459587023,0.0296007997725989,0.000266216473128875
0.0573193056335904,0.0523678065197605,0.0340973820626935,0.000103524682962837
0.0454790578514791,0.048241693056138,0.035018264265511,-0.000327393772668888
0.0142130438131745,0.0349550113692237,0.0322697295110375,-0.00100042039194507
-0.0053376924730931,0.0119566070338457,0.0294465729779565,-0.00174356573588155
-0.0043797393417765,-0.0111650348691685,0.0270544614471462,-0.00213258780579765
-0.00433032613379876,-0.023113175834014,0.02123516447694,-0.00135036939339181
-0.00952705306840971,-0.019070012483106,0.0166120425656203,0.000660432687041812
-0.0082070062015774,0.000153438475557842,0.0220715069452277,0.00231097164447611
-0.00341274960273442,0.0239741955808705,0.0313356073576384,0.00189540919945843
-0.0025689361091077,0.0332605289645936,0.0339301921584138,-0.000164833311536199
-0.00361694971807267,0.0225804905893246,0.0327260758720414,-0.00172865877645399
-0.00942807842965204,0.0017613970171837,0.0284761474883713,-0.00182140625645969
-0.0254747659184468,-0.0159234995662484,0.020955890029026,-0.00117272600935997
-0.0396634651424199,-0.0157769821820199,0.0201612935982299,-0.000666019065487057
-0.03208504707133,-0.00272267498088663,0.028322481164039,-0.000692103778696196
-0.00577278072371348,-0.000974070513463932,0.0366839050791196,-0.00111866352988263
0.0173310518059262,-0.0118852835786125,0.0428559026789566,-0.00164775303993903
0.0273421698967327,-0.0158313505947427,0.0485880678174139,-0.0019458008088833
0.0286988899341892,-0.00788759390958145,0.0538024483944173,-0.001604014336728
0.0263626739480227,0.00205927418021663,0.0576727382576314,-0.000706972007051406
0.0197220276993075,0.000595832990810626,0.0590801734861408,0.000242836324838408
0.00807222400956104,-0.0220238181426005,0.0589033004002244,0.000819766919756677
0.000330227599325482,-0.0511373710687085,0.0573281904447421,0.00107462395034336
0.00313068917597837,-0.0542118548267387,0.0548821521917102,0.00121857581518696
0.0106016132531894,-0.0293186750912439,0.0546597392392593,0.00103286703042414
0.0138837564342148,-0.00403289618649789,0.0562408041955145,0.000635473148840973
0.0146192624130345,0.0080101775657971,0.0529294507395929,0.00052082331219757
0.02103856406797,0.0127600995641694,0.0424568004594993,0.00080307678608348
0.0327465719759555,0.0159714631064964,0.0281246993583305,0.00126254848274476
0.0435942604218063,0.0191392519047081,0.0121041228524682,0.00160292309111758
0.0513808094658556,0.0277738078541639,-0.00324644692328981,0.00138564899999571
0.0539242541237188,0.042900993083243,-0.0151734199686752,0.000428834515527629
0.051320480229251,0.0568204956897146,-0.0197267538624004,-0.000813189663974904
0.0446332065010469,0.0623035586684758,-0.0151889385870724,-0.00183192597776135
0.0327789257731937,0.0552583544331582,-0.00675111595132062,-0.00239406426795685
0.0254784570921368,0.0401543640006059,-0.00224043919522253,-0.00216865472033223
0.0217838225001789,0.0244002105868176,-0.0013622827430805,-0.00117910673349354
-0.00212761810414944,0.00195150289069776,-0.00134610146607541,-0.000126083566876481
-0.0505311795448744,-0.0451637835783219,-0.00405247832632711,0.000622386984857871
-0.0989441551289706,-0.118805051088709,-0.00291729563432054,0.0012072820657285
-0.119360324326368,-0.167077368141158,0.00580818282177152,0.00163065786131658
-0.102109572277419,-0.146158332883045,0.0123989159527338,0.00173848227179756
-0.068035593804518,-0.0985058888817951,0.0128413336360165,0.00142449180639163
-0.0347511363755808,-0.0705504055169977,0.00955695169120793,0.00103803438588552
0.00506391617049178,-0.0518144212654282,0.00454575018186437,0.00127664861982119
0.0313058740189755,-0.0240672423194301,-0.000275645112581063,0.0020723466116914
0.0205718135068777,0.0115581013295276,-0.00519778467677245,0.00272461253319778
0.00997790039712252,0.0405774970520737,-0.00970269808906582,0.00267999602490358
0.0257335593940433,0.0537076269613553,-0.0119897207873647,0.00158942659205123
0.0514036086064105,0.0577387310410867,-0.0115301773500428,-0.000186853572435611
0.0806162104297633,0.0576523711997709,-0.010843675712187,-0.00146792228166261
0.0989808250131715,0.0483813855776997,-0.0109772828178398,-0.00146753147022781
0.078185076948711,0.022815630170385,-0.00992824072376641,-0.000506508262937928
0.0165153478060445,-0.00799177659066323,-0.010314455856626,0.000850406408653018
-0.0572739603512675,-0.00823891210145652,-0.0136743223948795,0.00205444680847314
-0.0950582466362057,0.0254751348335279,-0.016548688245553,0.00221076050179886
-0.0737596173406613,0.0501967309321445,-0.0174091615243554,0.00116494413488199
-0.0295729081495872,0.0411231688840583,-0.0160612826631826,-0.000149796820572416
-0.00649724879595129,0.0108094211610997,-0.0122914516035144,-0.00105692335841108
-0.0103532501953238,-0.0234684920942862,-0.00754926187492753,-0.00134150560836368
-0.0227896267866598,-0.0475140563900616,-0.00518393716966541,-0.00105643996963223
-0.0262074681533512,-0.045387041971581,-0.00466881519913771,-0.000680063564117419
-0.0160684074591628,-0.0273480711949096,-0.00199151215681558,-0.000325710024626647
-0.00138590320225336,-0.0204600526451449,0.00243272138040823,0.000234123403482799
0.00640382292793861,-0.0249938744278427,0.00682950769964137,0.000896618622823613
0.00441394934022314,-0.023479141157967,0.00930885825069072,0.00152366034022559
-0.0015968310939208,-0.0102542720800755,0.00756916325700977,0.00213565090092892
-0.00819909907769822,0.00816441422592556,0.00436279064174069,0.0028441440231051
-0.0150933254595063,0.0311713567754198,0.00293175396878419,0.00372238676550414
-0.0166557576178774,0.0545899559930707,0.00312119754531844,0.00391687811347378
-0.0109012284032106,0.0605823473833192,0.00331782321942993,0.00223040723951583
-0.00392148066266797,0.0453223660645847,0.00282413442706787,-0.000701509097164671
0.00425682675421884,0.0238894180122052,0.00475324376878735,-0.00303864826197615
0.0130740704255209,0.00549648991495819,0.00904812564608702,-0.00386257650827316
0.0168797980169154,-0.00994495065859138,0.0119964246277743,-0.00362610521997598
0.0155126018901093,-0.0221634123293874,0.0147374313579301,-0.00318292121169941
0.0123768129931128,-0.030237330171016,0.0168138821606809,-0.00279356695005481
0.0105243317549697,-0.032033030755936,0.015653594246006,-0.00226596547844823
0.00926545681950961,-0.0264137185567705,0.0140342882777705,-0.00167992442741215
0.00330487046199201,-0.022099528623044,0.011863931204494,-0.00125201789766157
-0.0104937593964108,-0.0286097856175026,0.00575631599932027,-0.000627034555848189
-0.0265789349818496,-0.0303818292847014,-0.00318501349681336,0.000684048646323173
-0.0350042167997896,-0.00516375886580432,-0.0102932674316383,0.00218084637836013
-0.0324538119059443,0.0375845557019783,-0.00860772630453623,0.00276180911977609
-0.0265486259673599,0.0682107645959048,0.0020865897998633,0.00224367295074058
-0.021742613935002,0.0741470877461539,0.0102809342397891,0.00141553769114303
-0.0165946521846527,0.0675783839746151,0.00849859386700204,0.000892927117406957
-0.01930063280976,0.0580846995101169,0.00270533729994863,0.000698280380441275
-0.0255817005317913,0.0448044083142188,0.001959699684617,0.000363218187890793
-0.0176084183091343,0.0284153534692315,0.00418179582860029,-0.000502997934810162
0.00111698509415668,0.0171010492244296,0.00160306049591896,-0.00132517293340426
0.0193480439342185,0.0150801423256735,-0.00166479925358932,-0.00154461902667942
0.0330485959532935,0.0117792715386504,0.00253532059370434,-0.00167355114868542
0.0396248900245616,-0.00566643760574155,0.0109912556826832,-0.00223792934339155
0.0359929905750985,-0.0359548482454611,0.0167771832898726,-0.00293692846149286
0.023274504071075,-0.0554160201703102,0.0193021405162647,-0.00317694214650376
0.0131563668391335,-0.0519810358568055,0.0193236634244946,-0.00308415767170225
0.0136655414694857,-0.043027030157386,0.0157866330148911,-0.00282462932043578
0.0164105593200745,-0.03910304252783,0.0129354242372823,-0.00161100810417913
0.0108800623453661,-0.038008262503615,0.0153350384716816,0.00073312286613763
-2.7704522649323e-05,-0.038582289594047,0.0177057861685836,0.00272403024036509
-0.0119278941874185,-0.0414123089125217,0.0167732166033484,0.00313154166550998
-0.0264939012050787,-0.0444097650956237,0.0163657153602439,0.00244759629561888
-0.0391312703973864,-0.0423666313808781,0.0148885228224656,0.00166116982267531
-0.0396757730436547,-0.0281787806635064,0.00881080916091874,0.00133830486887977
-0.0289482515746376,0.0017026919699122,0.00165145079764432,0.00135849617082481
-0.0177036289870177,0.0350658096560859,-0.00289071272190715,0.00117158435157996
-0.0111103820400577,0.0565836285523048,-0.00426643506333186,0.000664703537037485
-0.00607145625887169,0.0665500753756388,-0.00160730845735315,6.53995402824631e-05
-0.00160887433257212,0.0691035443753581,0.000894824970175153,-0.000416054739348881
-0.00290562415245341,0.0629327004458708,-0.00131991912387785,-0.000744366525118136
-0.00906806822459476,0.0519914860913769,-0.00334116616390524,-0.000978737397225868
-0.00986450726011357,0.0390178686975482,-0.000235931564874251,-0.00131128851123134
0.000540861948022733,0.0212269125797537,0.00356059227095525,-0.00172545838981984
0.0139125695346125,0.00511465761846902,0.00560155997369659,-0.00169316684663346
0.0170650316420063,-0.00703520554648462,0.010900766975414,-0.00113413230085312
0.0113795404255834,-0.0227013475010219,0.0194258702118936,-0.000480647372742578
0.00864543570930759,-0.03085989553084,0.0254531182110133,0.000297015964536953
0.0135577779829832,-0.0122576972689196,0.0277505178510148,0.0012294749805557
0.0162430246117697,0.029334614023849,0.0280236792029867,0.00178648241335231
0.00804615790050027,0.0602663412254765,0.026785203661002,0.00136443627047038
0.00126270857596669,0.0519274233189594,0.0228600550104949,5.0302090535423e-05
0.00523690406541915,0.0240731317581721,0.0169853003370558,-0.000988964654552918
0.0109550612376422,0.00913652195311238,0.0138965698775264,-0.000719325369232304
0.0140833691099336,0.00679422366422476,0.0127240914497083,0.000464883315040475
0.024150393093143,0.00321023947653742,0.0093114286601313,0.00140309674469738
0.0497231924824161,-0.00795411099572492,0.00543123158187924,0.00159083525989945
0.0772761908397865,-0.0296242950108632,0.00207154255108452,0.00157353178739221
0.0780999309770598,-0.0442799421494532,-0.00389232606422113,0.00172957463438368
0.0504805681544427,-0.0304025438412869,-0.010327650598727,0.00204626458313242
0.012987513352454,-0.0137853437119747,-0.012994837980295,0.00277286770457284
-0.0299704498593123,-0.0148470335138456,-0.00960371148439315,0.00360076947171246
-0.0608203345116837,-0.00413104229212855,0.000825737591151725,0.0035737773050094
-0.0504730431170817,0.0293514042497006,0.0104732181572125,0.00214898528634998
-0.00902344528259196,0.0581535514203472,0.0117709896320974,-0.000268132887133584
0.0258264395814929,0.0691925811555576,0.00960156116313824,-0.00256649045514276
0.0392243950343532,0.0669896320592501,0.0101335659760441,-0.00405609691519946
0.0421989093566624,0.0518566023595641,0.0110308900840243,-0.00487764955296416
0.0421002504726324,0.025232386669669,0.00244999446105369,-0.00503478265594024
0.0419939082092299,-0.00715729176435246,-0.0196626431519237,-0.00392187540816221
0.0441154219448392,-0.0310422691224729,-0.0442294822739585,-0.001465818095326
0.0487260117418957,-0.0424432658833324,-0.0612136632204164,0.00122600908586751
0.0483121375969787,-0.0593652377382585,-0.0670132901784478,0.0031470385286664
0.0309030898584335,-0.0784106683485665,-0.0603906564820265,0.00383265172450421
0.010383158054035,-0.0730590388652066,-0.0483069319987965,0.00341202196113551
0.00329742332379063,-0.0481717170738675,-0.0360958372491983,0.00251002110535575
0.00789315776794802,-0.0346664418814212,-0.0172779924443766,0.00164441300236186
0.0180319591974334,-0.0360171046876584,0.00288487413801237,0.00115784836319252
0.0174750586613701,-0.0291895733565692,0.00829817454072072,0.00133437510567068
-0.00182919707095819,-0.0109439370670326,0.00230418148483962,0.00225990008817447
-0.0246661534252926,-0.00354544312671513,-0.000630354562095332,0.003103685261942
-0.0306956921699342,-0.010127276994363,0.00380246415385784,0.00295391947630943
-0.0139771182642027,-0.0060749212237608,0.00990694330721918,0.00161696468971265
0.0127867608869299,0.00923713264018104,0.0127179957339837,-0.000784645949316394
0.0376427370907009,0.00758222531455584,0.0133138341533313,-0.00342947475124094
0.0625979546572751,-0.00834097967886265,0.012317191739393,-0.00511478516700861
0.0853410071686147,-0.0146820258286435,0.00787745243921184,-0.00513498929321577
0.0976754138634856,-0.00877707886315274,0.00200976243898106,-0.00340970697182986
0.100949033047554,0.00629030801473671,-0.00158848836205948,-0.000809495646678976
0.0882745889627153,0.023831831171187,-0.00696407207015193,0.000798541229071126
0.0399258742242264,0.0327913355915241,-0.0185450252327708,0.000106828102772657
-0.0448478493140732,0.0302527986308186,-0.0344303210937863,-0.00213195047976314
-0.124307976035493,0.0171165935734668,-0.051693762753785,-0.00368951212399744
-0.145840540016936,-0.0020515286489959,-0.0632032834813889,-0.0028618223522561
-0.111254989766848,-0.0221154179268463,-0.0632538381484697,-6.42431224555651e-05
-0.050668256109188,-0.0438974322891555,-0.0539623131048631,0.00274310442354276
0.00901585212990268,-0.0640959992994601,-0.04095870782186,0.00416475975527688
0.0181071880693944,-0.0646257821249162,-0.0259650643335466,0.00406216346355827
-0.015949905132285,-0.0443306655488262,-0.00775958011260171,0.00302621057938913
-0.0190612226189352,-0.0237365757242488,0.00962820678801777,0.00195276737024085
0.0135303512785111,-0.0130799399657732,0.0231067665386595,0.0012219136764398
0.0335532404344284,-0.0156966091642497,0.0338302706671264,0.00050446171920339
0.0269787653746996,-0.0339467091665698,0.040905712536112,-0.000497272789495809
0.00493174695603837,-0.0547683682660763,0.0458819574846532,-0.00176096623927358
-0.015793621477615,-0.044980875601539,0.0530441639543833,-0.00302285172872801
-0.022995647531525,-0.00322154488154337,0.0597088725391924,-0.00395103056077009
-0.0183424358645107,0.033310487026664,0.0608600164493075,-0.00456276225499322
-0.0119078251449887,0.0519733361378116,0.0553813923533558,-0.00497921777867021
-0.0105762108112744,0.0542100975276529,0.043240323105276,-0.00468144871645065
-0.0167924446173572,0.0328089498341865,0.0282143553779951,-0.00313896082618962
-0.0283422157290829,0.00586000393301442,0.0154712587934998,-0.000917686911456678
-0.0335463974543873,0.000900853006017452,0.00655386325070008,0.000759231647372158
-0.0262151535409725,0.0154117768577159,-0.000375357701688776,0.00121567590419112
-0.0161903756487221,0.0351221731046776,-0.00906416748620037,0.00084451803805528
-0.0128066042759957,0.0494932523499386,-0.0193714220077572,0.000740168076074359
-0.0153603370901441,0.0500884599613493,-0.0248651361934065,0.00132599647151529
-0.0184666713194182,0.0413547762711198,-0.0221823526904588,0.00192261131242811
-0.0167144510112363,0.0335470036186844,-0.0161145019395361,0.00196656360418552
-0.0110993919178824,0.0275128520988634,-0.00926051221403201,0.00133093174704757
-0.00803124245419019,0.0214155236602746,-9.14596715487007e-05,0.000156303487057638
-0.00887737556388681,0.0141055534481771,0.0111511371167185,-0.00117212712381882
-0.0107824037736492,0.00378780302935101,0.0232701191114036,-0.00213304809719923
-0.0108189215813723,-0.0079532946043533,0.0329646200895842,-0.00242490351959261
-0.00797731516326854,-0.0197939973411693,0.0364088322022037,-0.00224577092976237
-0.00569906269583798,-0.0277852175246954,0.0341525452426734,-0.00198780912555073
-0.00308690112377691,-0.020016314735822,0.028038462128527,-0.00198472111052771
0.00208349945010632,-0.00103935910296591,0.0192370110436832,-0.00206634220643592
0.00282904183406319,0.000969042298545462,0.0105432834548114,-0.00167965636378574
-0.00200020419908851,-0.0207308978893135,0.00458679205145257,-0.000850226788243051
-0.00380613828200312,-0.0349358724485327,0.00150668228791434,2.88211199704971e-06
0.00098792459210684,-0.0206580680567425,0.000199825203465053,0.000697834085381985
0.010271829244982,0.00388598072406305,-0.00278426395192914,0.00115448057214673
0.0157721574458898,0.020828823867317,-0.00938363868863729,0.00128058178975134
0.0118084557299241,0.0313678088932111,-0.0160323743229166,0.00057979991893749
0.00412816426850496,0.0324465278203252,-0.0223903977245295,-0.000946177910883104
-0.0025965364863401,0.0242294007166651,-0.029658405414394,-0.00183113369917511
-0.00939984355451333,0.0159501704789244,-0.0322610909711291,-0.00117276440156029
-0.0158396122707377,0.00788173874934739,-0.0246606500324019,0.000296480604968568
-0.0188449541916174,-0.0137065023320813,-0.00829939472745789,0.00152764001511367
-0.0154497193885503,-0.0528743344826256,0.0094940598414121,0.00214923396282871
-0.00521877485034506,-0.0837788012164911,0.0186081303687984,0.00242297072061866
0.0060765700527899,-0.0826216362831363,0.0175441425045512,0.00232067980346741
0.0122768530308344,-0.0581211113924971,0.0113694582574576,0.00155895367123915
0.0163086137012589,-0.0320001604774908,0.00273698305171398,0.00027180652108361
0.024986277796382,-0.019068099087753,-0.00231267869759756,-0.00122248417215672
0.0334635798684746,-0.0240867575596834,-0.00227032660092403,-0.00231654702357919
0.0300951285742982,-0.0397596480966873,-0.00132305170642542,-0.00229924057588485
0.0178283651272813,-0.0513942712272834,-0.000251928043791431,-0.00113371235171364
0.00798141277988525,-0.0384822559546492,-0.00461014601452102,0.000516591740292575
0.00886716460781644,0.00714976020041484,-0.0180330398271285,0.00178463362980488
0.0166795770912008,0.0569256080745257,-0.0340445993826605,0.00231645774323767
0.0178356494464058,0.0807180821771849,-0.047950520436085,0.00203989583780977
0.0112890076304349,0.0803190118398068,-0.0559739977455342,0.00108125514339542
-0.000159210567639456,0.0633059024092867,-0.0541731169422887,0.000246641944098503
-0.0132480741573972,0.0313773676343084,-0.044124846634732,9.28803739739306e-05
-0.0178929064995943,-0.00191190092576857,-0.0313175819765527,0.000551269357517133
-0.0126963728899073,-0.0184955634502948,-0.0223456026957226,0.00141816563768089
-0.00566963963824306,-0.0175045007252536,-0.0170279123893243,0.00220519079473066
-0.00246939671280345,-0.014355781669062,-0.0107125320156191,0.00261396753660336
-8.00700289798071e-05,-0.020557030798973,-0.00593533890903333,0.00269908624039832
0.00451185390483249,-0.0279189050144182,-0.00766924701986791,0.00224388622217913
0.0134114679699836,-0.0261349950392875,-0.0137551170639276,0.00118065269469057
0.0306047923716119,-0.0189973749469115,-0.0194142864385435,-1.09195995414185e-05
0.0488620102313315,-0.0143458187502379,-0.0220616284383831,-0.000870953630918112
0.0563296906823872,-0.0193398195340691,-0.0230865358225616,-0.0013581366470745
0.0527041461916746,-0.0288490705193354,-0.0268519696440033,-0.00153460254500687
0.0447686518601255,-0.0263111499753212,-0.0304832843024788,-0.00123270744680901
0.035077953192602,-0.00921225303825318,-0.0272592080505523,-0.000625565413031195
0.0232258316895725,0.00862830486890529,-0.0199047420643341,-0.000222932357425336
0.0102673133893663,0.0109904316896616,-0.0159348337624015,9.74833355798371e-05
-0.00286440525679241,0.00433286033108526,-0.0144269143483929,0.000667051377440653
-0.0208576497505981,0.0142318648459018,-0.00991493293415945,0.00109714104740471
-0.0455687814295822,0.0449142279369285,-0.00307172425352447,0.000863243523472519
-0.0618623709838353,0.0716262163377242,-0.000413895296644015,0.000300740549916193
-0.0535360542543746,0.073534534259352,-0.00252795601661516,0.00038136364348526
-0.0274750867785832,0.0652748695323152,-0.00255873563733547,0.00112751369186112
-0.00669755784413219,0.0608060816725589,-0.00152794743504519,0.00145573785798356
0.000285114661173438,0.0538429760009908,-0.00205618652203747,0.0010911913396749
0.00771505855984189,0.0433480522317355,-0.002240353457352,0.000733797691770935
0.0220369758916174,0.0317642767885361,-0.00201545510765555,0.000778373958759373
0.0324105685154298,0.0214475716199574,-0.00156334790233352,0.00114842729429788
0.0349790703754106,0.0120394982597293,-0.00342542144839544,0.00148423625435905
0.0329867633291398,0.00560915210178371,-0.0081525292168014,0.00139173762345785
0.0317462745658907,0.00326458489634883,-0.00762935498249562,0.000757641652529158
0.0370689221318124,0.000417012861149006,0.00165406395390196,-0.000332561668806003
0.0346784314943379,0.0044832613146516,0.0107907576818213,-0.00160046679024819
0.0145734797990826,0.017351773796017,0.0130609430395006,-0.00301256390497713
-0.00256418013133727,0.0201596453648032,0.0107141677457389,-0.00449986445165062
-0.00509388990953529,0.00819908843427956,0.00829251993236321,-0.00523914159641561
-0.00138686971484102,-0.0106269810702499,0.00592772863615409,-0.00447508403118843
0.00215608661895306,-0.033085086980236,0.00374134888726453,-0.00236957030999043
0.00327451491011753,-0.0515699303563103,0.00547184520425332,2.82936746552062e-05
0.000221247242435413,-0.0494605338569925,0.0117566434543045,0.00165618281469069
-0.00629110869094213,-0.0199374263378328,0.0178220426620876,0.00195733248231929
-0.0102166606019637,0.0110728885185726,0.0185629491902886,0.000918115663331403
-0.00625887545236612,0.0187100549748828,0.0158166497066944,-0.00045799761517884
-0.00334636551802632,0.0145077903720851,0.014032459726243,-0.000836546299540874
-0.0129248291269834,0.0170269221905362,0.0126878095668889,6.30479529181451e-05
-0.0214381129160985,0.0247077080068196,0.011261019118116,0.00156713621868257
-0.0124047395650476,0.0258896056242953,0.0130015531499652,0.00301123626171885
0.00679309966900924,0.0193722058708646,0.0186779161426068,0.00375471271003248
0.0224628557499358,0.0204607130189026,0.0209396978842526,0.00320402456763227
0.02971506979984,0.0294702973835168,0.013691389363226,0.00145677728168348
0.0304131180519576,0.0233580618848765,0.00161386143479732,-0.000739245687946197
0.0288101360890101,-0.00152208429144264,-0.00711656375861682,-0.00262046055238919
0.0278691249965343,-0.0250526740828297,-0.0102322029200729,-0.00391831938842623
0.0287835492154565,-0.0372170444629511,-0.0105244239352031,-0.00444210587263878
0.0258409503862183,-0.0410411304611569,-0.0102830609865409,-0.00381367897055131
0.0127685769953716,-0.0363536353856962,-0.0121622148114825,-0.00229108659071462
-0.00386947955418799,-0.0275269217913794,-0.0161501524492816,-0.000620393347112227
-0.0127972079406894,-0.0258406554310053,-0.0177455738430051,0.00075934837050392
-0.0157043307076096,-0.0324777794615064,-0.0151195629201372,0.00190659961875841
-0.0199662201006695,-0.0353139445906059,-0.00979985242886954,0.00292711011336437
-0.0178122243452209,-0.0217297099218453,-0.00598868233943538,0.00343230054443974
-0.000849657276523683,-0.000437214950080877,-0.00557152219583996,0.00317531194651276
0.0222577872303771,0.0107122105622546,-0.00663559252173758,0.00244548346337107
0.0360464797761499,0.0126414690679006,-0.0122668332430862,0.00147199155887173
0.0330902681736994,0.0155394192755362,-0.0250536138500171,0.000523446377503256
0.0222983077668084,0.0210515163740668,-0.0396365012950074,-9.54397408029222e-05
0.0171772629335603,0.0274835612531013,-0.0497695807115297,-0.000393999865601499
0.0238635739017473,0.0375737872847726,-0.0566653877847163,-0.000479825491500567
0.0461755860480189,0.0485871409747508,-0.062676014015533,-0.000482347517208209
0.0786780352345942,0.0505981766227902,-0.0630479054040788,-0.000412201453021477
0.0980933092783252,0.0345078819546207,-0.0550936565253649,-0.000354306353659351
0.0864938000378183,0.00348897874618147,-0.0406916248984228,-0.000478460623865494
0.057477828098313,-0.0191180331442435,-0.0228193838050997,-0.000585294760036843
0.0347750972439397,-0.019376445715148,-0.00780631015957033,-0.000573482098057637
0.0202575417775697,-0.00906683412248281,0.000680625382356873,-0.000417062974750187
0.00267182025320642,-0.00147129897868655,0.00522440746085336,-9.72504189635263e-07
-0.0214553814182982,-0.00513246893002919,0.00668597951284615,0.000371829485167475
-0.0535034965976321,-0.0211496714848713,0.00369446804564439,0.000516277417885113
-0.104034676694871,-0.0279906223057003,-0.000484713682857584,0.000594620082201232
-0.160945117003331,-0.016779079540982,-0.00319295901025024,0.00073262663378162
-0.170890449107882,-0.0158764831231384,-0.00308054215711404,0.0013104081248113
-0.110618204616423,-0.0140084364763022,0.00341400094241874,0.00240231138185049
-0.0354075238163243,0.0225966184974483,0.0115096153294506,0.00295967070796514
-0.000351006745217347,0.0594240641882739,0.0127649426926772,0.0020708350179119
0.00658203826191288,0.059244851958818,0.0111353130939465,0.000480738332992396
0.0123201461639353,0.0404245575667312,0.0119021246903846,-0.000690924030722712
0.0179239040805324,0.0209695952314704,0.0114100088483235,-0.00134597443289801
0.0221586217002336,-0.00249610259617757,0.00820632779643862,-0.00157517065202411
0.0317785212036413,-0.0207618673249471,0.00521792941866982,-0.00139714661758662
0.0472884340095169,-0.0136430883120064,0.00555996288762364,-0.000964488301319527
0.0554759944062604,0.0181391044670252,0.00591879475290449,-0.000415155201979197
0.0607967898978255,0.0572935900124396,0.00223598647048071,-4.00856900645535e-06
0.0684821950046774,0.0855707908845932,0.00195482435933756,-2.21692203506188e-05
0.0523377482762103,0.0800630517482634,0.00894335188132021,-0.000604729422325439
0.00938074468959524,0.00767222375618165,0.0172578751659857,-0.001276132909363
-0.0359370052097471,-0.11572808167395,0.0226735717629833,-0.00141290363143812
-0.0663309720757776,-0.184632644033055,0.0217051361380242,-0.00108959497910547
-0.0707176778870628,-0.138017032405379,0.0141348643306149,-0.000654669702276039
-0.0580330200247001,-0.0468326486195206,0.0112702389544851,-0.000296687307041878
-0.0469309645793483,0.000640030580737,0.0199531686224037,-0.00012248623277424
-0.0415456517869559,-0.000537154627169911,0.030475728666816,-0.000236940475802894
-0.0379219800411247,-0.0130101066588873,0.0363560301694627,-0.000406797783167757
-0.0337420142369371,-0.0224163600169363,0.0400453646425684,-0.000270111114343111
-0.0284345334056318,-0.0301538326064007,0.0417244604086018,1.02000679757635e-05
-0.0248914937943471,-0.0348318452741382,0.0399129379317041,0.000351719225604474
-0.024316335805938,-0.0320165988791996,0.0356982880932594,0.00076629148174002
-0.0223045845776928,-0.0163133343060595,0.0300437307844715,0.00100993034168389
-0.0159719813677891,0.0130449652313317,0.022952938883391,0.00111266144582974
-0.0060608497730314,0.0444192289350229,0.0150726152895017,0.00106233894715391
0.0041629721819147,0.0575359329223566,0.00575617204110596,0.000809324490077185
0.00884809971406906,0.0457572755857209,-0.00410758367039832,0.000318403829163563
0.00786312658273171,0.0217789902151757,-0.00868007028734993,-0.000598067325300635
0.00699302821151101,-0.00480236163784926,-0.00483994073518926,-0.00177192000129003
0.00559079773936727,-0.0288303938813519,0.000841494969166596,-0.0029571935113643
0.000961982623528646,-0.0382248141750872,0.00203543988065627,-0.00376321677901814
-0.00336477326821142,-0.0304845125989764,0.00218784937154815,-0.00347755816920577
-0.00473663652145071,-0.023148518704041,0.00630660942596804,-0.00211597228654783
-0.00841552653083523,-0.0306567669772489,0.0119220357980783,-0.000415357305798697
-0.0110381192966587,-0.0448115476747996,0.015148358183382,0.00119868661519291
-0.00187547701927909,-0.0408777772024298,0.0160373404134246,0.00241902832406878
0.0112848309510214,-0.0148611374688012,0.0149646859429135,0.00222619741545044
0.0215964902526923,-0.000556264029414664,0.0120170990318344,0.000423686091479446
0.0361099044235199,-0.0105728638211094,0.00770134412046725,-0.0010508954826293
0.0482856250570015,-0.0218816153328893,0.00222186787321822,-0.000777354712403528
0.0448055935376828,-0.0215489020914096,-0.00278846568206642,0.000588099675687395
0.0285574501454954,-0.0135140878743852,-0.00513820770020791,0.00187336743819223
0.0117709906873082,-0.00575743107662332,-0.00688811864482744,0.00250031345214486
0.000420214262401332,-0.00848147664817898,-0.0149278033339964,0.00226201006167067
-0.00831958694407701,-0.0297084633559687,-0.0277207566347182,0.00124887600759244
-0.0101572360418316,-0.0526507825971029,-0.0320617510703399,0.000309997248264497
0.0059224741215246,-0.0467058119542492,-0.024622705427289,2.45298546373714e-05
0.0284253380342274,-0.018971529436863,-0.0134815647496984,-0.00016277275327025
0.0346105390266026,0.00076498483306163,-0.00512809075372732,-0.000778384646045982
0.0258298896375575,0.0137137950611303,-0.00210331630612165,-0.00167593672253405
0.0157571452984142,0.0215434730505798,-0.000383304668208758,-0.00256118549035626
0.0108336396941233,0.0126507887812592,0.00169801388740353,-0.00304670597754466
0.0163743967696577,0.00230905061453346,0.00318643576301609,-0.00251476561044556
0.033770769158533,0.0160051898589759,0.0112174651684524,-0.0012971145690394
0.040154554587229,0.0463639096248449,0.0221616107871572,-0.000951021816589992
0.0119032782352969,0.0486655184633938,0.0211629004796393,-0.00180770159369236
-0.0289218650681501,0.0160824126673247,0.0114460136568149,-0.00195304554351203
-0.0475278798130686,-0.00638624989635643,0.00644404656414735,-0.000201340001911352
-0.0373443862284036,-0.00228551320430571,0.0067239529422326,0.00217558256517971
-0.00893754253778853,0.0166878571434228,0.00425405231775913,0.00361733434046463
0.0167032431019712,0.0255715712345836,-0.00241186252093194,0.00403787136711278
0.0244594419012979,0.00463472179314751,-0.00811425692816274,0.00395127658416279
0.0174297377658447,-0.0164986150984136,-0.0106999889745846,0.0033374107028765
0.00770659215262115,-0.00299634457657022,-0.0103101374286882,0.00199914366210827
0.0075515986284275,0.027940663366436,-0.00597616316521324,-6.98226195198735e-05
0.0131818429889356,0.0486393138244487,0.000317208884242409,-0.00227394238838175
0.000900827193016193,0.0580164644962689,0.00304287819153528,-0.0037407258653873
-0.0225381751985894,0.0498229500099441,0.000708175861609404,-0.00418233509168895
-0.0168240932741253,0.0135631116995512,-0.00282553270985203,-0.00367744289808503
0.0136411220461529,-0.0363088242540614,-0.0050324012982875,-0.00254951297972969
0.0311089481867216,-0.0691300116983904,-0.00608281663854218,-0.00126108319177865
0.0322417562593916,-0.0710114443878115,-0.00846952309418752,-0.000315575620045978
0.0328239147031259,-0.0577491308009259,-0.0124140056179317,0.000150435261139218
0.0287990481803035,-0.0480726611796397,-0.0154921155798676,0.00045786959284152
0.0129751437035107,-0.0400473213620357,-0.0177324186916096,0.00066565761210876
-0.00325634233012652,-0.024427013252023,-0.0168300256516252,0.000750955428820336
-0.0072245752889384,-0.00539051438764779,-0.0122389063241607,0.00081430856724697
-0.00311719908226708,0.0139816782721194,-0.00791868966581335,0.000953100732494954
-0.00484975658075425,0.0369469261698129,-0.00634835507525212,0.00131074716412633
-0.0184804447424805,0.0467533637685134,-0.00709468841748541,0.00175925880343899
-0.0363805095000965,0.0343646089779295,-0.00704837397049957,0.0020181358285641
-0.0445622258593993,0.0262586368465341,-0.00501537413054461,0.00214300827280334
-0.0358852079955448,0.032404466240578,0.00183353144212547,0.00204709268640023
-0.0176395486135537,0.0344613463088161,0.0141437262103288,0.00111666767216804
-0.00194492240305474,0.025612834244835,0.0230627355972994,-0.000810306139544628
0.00528358251144645,0.0137800244783368,0.0218661364388343,-0.00279538641049519
0.00586308711329591,0.00771582170597123,0.0115148092212794,-0.00387599096486746
0.00285226145193219,0.00456698378975743,-0.000972670040634786,-0.00401533579027066
-0.00331538628822212,-0.0134564808400324,-0.00859041139545128,-0.00354862868265028
-0.00573839003830881,-0.0467020931111444,-0.00922747750389411,-0.00279194604325823
0.00734408071782719,-0.0628714974447176,-0.00423679240020217,-0.00194667984846143
0.0305035630820221,-0.044987883647972,0.00192706858596153,-0.00100847986121129
0.0411409850283482,-0.0157323590541745,0.00279344233253498,1.93497662527402e-05
0.0268383201063714,-0.00029358441550667,-0.0037550295291547,0.00102719811018761
0.00112416724927039,-0.0045380274399508,-0.0104851044707311,0.00168420415482896
-0.011564472864716,-0.0163928906747424,-0.0133361900509427,0.00206612624887641
-0.00829261149812264,-0.020568122327351,-0.0141029512871467,0.00277404615472668
-0.00567613009480018,-0.0214187490436779,-0.0114312902448592,0.00400697218848439
-0.0126644046068365,-0.0230113837613421,-0.00537031780955658,0.00510440885084516
-0.0312598406477406,-0.0144272158933418,0.000921361097223326,0.00483375637118834
-0.0555583639259169,0.00350620692065164,0.00567684898655753,0.00288671111865919
-0.066050771189853,0.0220803976588749,0.00887869871867423,0.000354109496925642
-0.0524320554572831,0.0374201925467991,0.0134181320692513,-0.00157174132271091
-0.0254779653870398,0.039454790885573,0.018360859011929,-0.00230020849488693
-0.00282693876220437,0.028529353287954,0.017364353348038,-0.00213476208337739
0.00780995956635362,0.019257612482071,0.0126983132240018,-0.0019227051753724
0.00970605866888743,0.015597210057057,0.0110730365979251,-0.00223823282462265
0.00628840852741057,0.00564574514283573,0.0129306097341163,-0.00305005135425295
0.00159996312389384,-0.0174333792744601,0.0156723808878084,-0.00345438841123707
-0.00189388079537456,-0.0349769259715962,0.0168650249103802,-0.00221328105973422
-0.00708144767147605,-0.0306269364746798,0.0167960144477545,0.00056972674136664
-0.0153910099810712,-0.0135281710539754,0.0152645560138991,0.00275934758421687
-0.0206884103531973,0.00556195204481074,0.0087559761272092,0.00261227898576098
-0.0139331654936674,0.0160236519200935,-0.00263975696037918,0.000838541926123925
-0.00221019206884828,0.0118862436832379,-0.0128798710873613,-0.000904845932469299
0.00159815486536639,0.00990519233043085,-0.0185410342234919,-0.00152583235204647
-0.00275503209156127,0.0220325366000365,-0.0243903276019431,-0.000792630615955762
-0.0114555735573334,0.038693937348169,-0.0326849661294324,0.000468235204272898
-0.0169630329538632,0.0471087350841376,-0.0368924653996175,0.00143763255139339
-0.014264614974088,0.0397719889439687,-0.0318800022631226,0.00226644865738101
-0.00659056998084382,0.0195718707367496,-0.0213804288735456,0.00294360535105209
0.0100477101199383,-0.00407248022140651,-0.0128678920037574,0.00299331008304203
0.030503076297069,-0.0268012153716744,-0.00837424783339593,0.00253768157363914
0.0250206044426866,-0.0491294260736496,-0.00436522736755419,0.0020884760018072
-0.00774937933430205,-0.0686852996943982,0.00160156155598813,0.00181924629671707
-0.0352055156126306,-0.0649176570283181,0.00776003465857081,0.0015566851295725
-0.0452373997308835,-0.0235361161760729,0.0130133950392651,0.0010334984316818
-0.0467682105957186,0.0288392703220668,0.0168973098746102,-0.00016700056979985
-0.0447581944387736,0.0570492613166367,0.0175245278382791,-0.00188247904963951
-0.0378492928279448,0.0574887639669024,0.0165549791236911,-0.00321107927749672
-0.0292174483748227,0.0497152271167651,0.0159784791644065,-0.00365843145125323
-0.0281147735799512,0.0358133118959189,0.0156761702805162,-0.00319638095362008
-0.033226143957582,0.00613587349457898,0.0120804166359541,-0.0021717680274097
-0.0293568636409552,-0.0158456928254607,0.00210011139444539,-0.00113713464056634
-0.0112851857992007,-0.0199015583052094,-0.00921963906759633,-0.000241800046331963
0.00899531446301344,-0.0473496271810735,-0.0174455800192088,0.000602941478160019
0.0214880468275671,-0.0925122395915369,-0.0219672204075291,0.00142238448665638
0.0301587685389898,-0.0981555015953986,-0.0267194764043439,0.00212385288780908
0.0319114770033553,-0.0657633560034619,-0.0336063350218115,0.00272503352513351
0.00874615303539998,-0.030015313380172,-0.0353014379252535,0.00326453588435395
-0.0270747702733389,-0.00349401406578126,-0.0299080345494402,0.00318822371978216
-0.0398339346741482,0.00563493088830753,-0.019210977781953,0.00195084606543971
-0.0252471939985786,-0.00546848313321331,-0.00308493548471875,0.000265280376229062
-0.00993995600951457,-0.0179936562227318,0.0129383916579777,-0.000523575864476368
-0.00446517466228007,-0.00853234060780437,0.0249105730764858,-0.000236792787502797
0.00686063149586918,0.0113371232435799,0.0320367261862238,0.000239533630305773
0.0236102707140899,0.0209647916239889,0.029166438513298,0.00016177929106171
0.0405375315220786,0.0261341089176553,0.0178430922859564,-0.000420875036558024
0.0543348010051192,0.0300028115888432,0.0106277113722817,-0.00081069642169805
0.0459350889541653,0.0175189195941256,0.0135311169650435,-0.00070561283794138
0.017670773800827,-0.0129192068462899,0.0236137262524531,-0.000459965104475673
-0.00627360977649254,-0.0360337393174259,0.0333515796133697,-0.000568239921027364
-0.0153897892787367,-0.0378724986111974,0.0363672936592788,-0.000928993788205439
-0.015320858018077,-0.0308267796372404,0.0362709382391376,-0.00101352401608514
-0.015595314291557,-0.0294225629143707,0.0348820654798482,-0.000879413374143127
-0.0180498542380105,-0.0371005232301562,0.0284200168882558,-0.00065144148623309
-0.0180859915918036,-0.0464393779111269,0.0191740835607554,6.19369081748214e-05
-0.0134262452533515,-0.0490781061626508,0.0135480079315214,0.00127361544562561
-0.00479243910588817,-0.0380476729940773,0.0136189015336896,0.00233772163210843
0.00280953707775541,-0.0053998636109568,0.015640000741852,0.00244529091125962
0.0101809207434391,0.0350886547122031,0.0142369417721379,0.00120258114062663
0.0205782311653958,0.0510510624643383,0.00684328474637744,-0.000276212336421589
0.0216321343528272,0.03362002192295,-0.00239806299197966,-0.000455182318780344
0.00810765728897399,-0.00566771315366775,-0.00307862538299646,0.000383589935659646
-0.0048635117276473,-0.0425773123174116,0.006561983114419,0.00115954757764032
-0.0026748556168366,-0.0422726733032695,0.0142444488721983,0.00140331645958907
0.0140479659897152,-0.0107953122232021,0.0125706719286487,0.00103419548719202
0.0288477758380124,0.0143847891336161,0.00989789513841704,0.000240209904040114
0.0305470613901098,0.0220770582725055,0.0137223977524212,-0.000793366059601259
0.0267895374318179,0.0197471963011612,0.0188855708683102,-0.0020400716685827
0.0256011097567786,0.00918843593018959,0.0218346283864873,-0.00299472819733747
0.0215931930605287,-0.0116913618981454,0.0245461953457455,-0.00280885612344469
0.00883423575389917,-0.0446241571275783,0.0267694645974704,-0.00159984013102542
-0.00728584825669725,-0.0800794846618583,0.0297724976192524,-0.000606544872739537
-0.0190261315359721,-0.0997908802989859,0.0317681972609562,-0.000473068853460443
-0.0266764527261325,-0.0981442168732433,0.029477895538448,-0.00038930528787404
-0.0286329415342374,-0.0763379299449844,0.0259200003860657,0.000338991837807475
-0.0175245985944579,-0.0445690246237705,0.0222050267863373,0.00148809499871617
0.00844377430630342,-0.0197057335558905,0.016954735721541,0.00262500073474479
0.0347518092151512,-0.000508179042165949,0.0106402939513959,0.00344846279236646
0.0441193148276487,0.0189215191814108,0.00394647837215736,0.003836402850579
0.0406380613312864,0.0353596759330695,-0.00122294057929607,0.00368119149251989
0.0319698627774302,0.0472123836766517,-0.00401913580852148,0.00287380719093727
0.0179222651589274,0.0541663001751928,-0.00924239503404285,0.0014889147630063
0.00432017449933904,0.067910718856128,-0.0198968906619162,-0.000164046549414481
-0.0062467463732918,0.0978392084190193,-0.030357533901359,-0.001614269759144
-0.0187657574578661,0.11126047740962,-0.0332714959264454,-0.00276421715708231
-0.0253394328219383,0.08406413080555,-0.0283696780845454,-0.00365846898275974
-0.014187785895865,0.045929927481958,-0.0227175655292223,-0.00379848800297861
0.00691465110641952,0.0177446053206129,-0.0215331116497371,-0.00291615806174905
0.0219856931381642,-0.0111928569082408,-0.0246206561426921,-0.00137464369415619
0.0235499123552621,-0.0378589313282982,-0.0296983390922175,0.000467048839474682
0.0186247389595841,-0.0449364267345011,-0.033581441731515,0.00200445161803594
0.0190693333005031,-0.036122376269239,-0.0341376413390746,0.00233974121400123
0.0236578812004669,-0.0339103705181272,-0.0307899337114275,0.00111138494042177
0.0227104191341543,-0.0447731487417211,-0.0256620745743494,-0.00100809197123541
0.00998019444900348,-0.0603392498620782,-0.0225085658463014,-0.00254031194373538
-0.0115386988072467,-0.0618595916820133,-0.0213545108734673,-0.00242361191726655
-0.0290348875691861,-0.029900774426616,-0.0211850734463581,-0.000919226557619224
-0.0369820280430649,0.0145131007104793,-0.0193565775988276,0.000961931661915447
-0.0399128037004493,0.0440476872502725,-0.0111071904018015,0.00241191061938361
-0.0336502490871086,0.0620090900264709,0.000123071511362739,0.00314509339503648
-0.00980979742838464,0.0701196336086555,0.00819417599406101,0.00300637676204972
0.0206027662110123,0.0657927444488312,0.01102659589974,0.00188727301520249
0.0373771514758186,0.0569766704911056,0.00896936714646306,0.000177252269877454
0.040700119995495,0.0478419114273402,0.00403499627813927,-0.00155797099454252
0.0419857484962572,0.0367838012371976,-0.00212134938189873,-0.00285186357183348
0.0399431870994816,0.0294384220319891,-0.00933281784444387,-0.00328142523429003
0.035773771132553,0.0210371650422094,-0.0192932540424739,-0.00307330698975186
0.0398011345532868,-0.000739412474301013,-0.0291543209880119,-0.00283675662082491
0.0431855662898641,-0.0228305932341377,-0.0359545870388371,-0.00265431811101004
0.0294037350966257,-0.0200696374682711,-0.0419542345415166,-0.00211263138170026
-0.00241945503397346,0.0110437748577318,-0.0455125473292864,-0.00118478942200129
-0.0363145406020694,0.0421185348698725,-0.0426192837175881,-0.000502960376334312
-0.0547919185110952,0.038530784347726,-0.0378761376160359,-0.00037276327800871
-0.0677375189911955,0.00862370730321982,-0.0360130407111502,-0.000277364480049631
-0.0869407449490776,-0.00539372580285237,-0.0304407649717042,0.000260987892659712
-0.0959096464083374,0.0102982109933183,-0.0158404046663221,0.00077231592555563
-0.0900235838827446,0.0311392956416893,0.00148799751232398,0.000366545306149224
-0.0722061013201181,0.0314686096383087,0.0112657666102964,-0.00105591868412112
-0.0311913388731863,0.00728145510155913,0.0117296435362227,-0.00242661773669
0.013808273572839,-0.0194000439469222,0.00969694642488674,-0.00280335815616211
0.0363560196483173,-0.0327206894413734,0.0101211304878009,-0.00234028809150427
0.0463083251756221,-0.0351146930669359,0.013830095517327,-0.00126042432443836
0.0542628958126897,-0.0228505948528873,0.0168006370092954,0.000328724803682469
0.0567428642808694,-0.0065708896310697,0.0119827171292166,0.00161809089022458
0.0477365942076268,-0.0116373234211999,0.00012928074689884,0.00184188653902116
0.0208662602801422,-0.0290240078794122,-0.0107831978729529,0.00114571345514688
-0.014058876188161,-0.0259800874932933,-0.0158433949446539,7.95581115263758e-05
-0.0348247036462675,-0.000890377429166832,-0.0134056131786931,-0.000950904251112779
-0.0333129531030637,0.0150363113541846,-0.00593112880673447,-0.00184819563847643
-0.0208502132743561,0.00208649080890431,0.0022313413282517,-0.00260874478488177
-0.0122981206969335,-0.0226790075191145,0.0105865383165206,-0.00302933443138718
-0.0105660442611981,-0.0329960742565659,0.0141467737431455,-0.00293165751711942
-0.0110733440622881,-0.0241626673851803,0.00751423422661919,-0.00253269122007729
-0.0120322919970322,-0.00365837077703835,-0.00225866453029175,-0.00218058844020872
-0.01447691928164,0.0113455220257408,-0.00554378196493037,-0.00185697737218818
-0.0169751708668359,0.0067013376509604,-0.00212754160765083,-0.00151667585105471
-0.0159599248685478,0.00138380301101304,0.00193595205931225,-0.000927450402512481
-0.0140447817407376,0.0114547219669705,0.00351393204009518,0.000347157158919924
-0.0158925238015284,0.0207534845990475,0.00427619863540062,0.00182071236736095
-0.0156809085005787,0.0238722407084392,0.00464955736824163,0.00255811691842338
-0.00691611101282831,0.0281920997555631,0.00377795294257312,0.00258666855389554
0.00126547406610876,0.0278409569597248,0.00227134150726678,0.00235280804675239
-0.00264553830141618,0.0131803563526207,0.000114607150560821,0.00176509982032517
-0.0110656936840442,-0.00193344823474591,-0.00112747767495631,0.000838818776931718
-0.00855753178595286,0.00295140962026414,0.00280695180474218,-0.000171341441818238
0.00708259900032201,0.00935563233942345,0.0114286874501203,-0.00115389858214089
0.0293141533407096,-0.00207465570306446,0.0190734561685822,-0.0016518942182032
0.0451929491180921,-0.0167151727022298,0.0241896516448023,-0.00127152586547615
0.0457489074167604,-0.0270353567004513,0.0291991144893375,-0.000488375806905508
0.042479439324337,-0.0342054839490838,0.0315014094384787,-0.000194733650940898
0.0418343622627219,-0.0240975868603831,0.0271570868077316,-0.000750225009268692
0.0366809486197357,0.00173332668323267,0.0172842671499147,-0.00163076993715709
0.0279946571221985,0.0199019558024815,0.00867862284970052,-0.00164579367211303
0.0150290285673838,0.0188365896545548,0.00711645941742474,-0.000273511148896136
-0.00299473137241377,0.00498506775415932,0.00881802968503766,0.0012331160520529
-0.0138009591073827,-0.00707726970136282,0.00868403444139704,0.00166578178046936
-0.0102194846845062,-0.00793984365708245,0.00735242541978063,0.00154059061095194
-0.00551524810543391,-0.00134488005440571,0.00558774442610488,0.0016481305350478
-0.0236150673526535,0.00726716610551408,0.00456204301020632,0.00156853158798403
-0.0532207271786277,0.0121748503104092,0.00609424597027067,0.000890415034320023
-0.0488633619974289,0.0011778756240277,0.0105258995937274,0.000193586628026009
-0.0101692914854398,-0.0202433847388979,0.0135602864010723,0.00013478528862101
0.0209764837958999,-0.037214122160671,0.0105040890263706,0.00069121722868858
0.0309112627839284,-0.0506220367563339,0.00643271703547722,0.00132060779199376
0.0332408370182071,-0.0577023801195268,0.00527850258320272,0.00166865421472819
0.0384053469627946,-0.0495730796807468,0.0057376994149825,0.00153110521130251
0.0492590925397947,-0.0427395371348669,0.00906436247763035,0.000804248325145394
0.052077759130577,-0.0702934811988857,0.015045486258112,0.000205983249692001
0.0382699974542378,-0.123576643424963,0.016230870635669,0.000568144322533692
0.0166674640858179,-0.132477130445152,0.0118952701515628,0.00105054590505751
-0.00913852041541907,-0.0724606401199955,0.00820110797091779,-0.000564481223322239
-0.0292800942211316,-0.0207455050198173,0.00190138235098998,-0.00406015548722613
-0.0329990938972216,-0.016413814596348,-0.00627850591453376,-0.00580098243361051
-0.0362044568786823,-0.0237978879319753,-0.0110165923043441,-0.00393679800002214
-0.0602906242130759,-0.0254597731073058,-0.0153566497530758,-0.000148789051801347
-0.0956751284500023,-0.0170324464907573,-0.0210136035335945,0.00329710476749157
-0.112782552028242,0.0205403916444442,-0.0224775852505169,0.00540089169009083
-0.0923213535561903,0.0723843385306109,-0.0192263767870684,0.00631024695999978
-0.0451879682095795,0.0897538790603141,-0.017580198265933,0.00609043835999993
0.00586235361673165,0.0660981455870654,-0.0182357485580932,0.0050458336768944
0.0431559105768188,0.0243470260646423,-0.0177969445129598,0.00360757353819517
0.0436681904819665,-0.0125682368849961,-0.015663585063085,0.00151715975893762
0.0124272179908919,-0.0231519295159571,-0.0112542233321005,-0.00106657443435596
-0.0136049744777046,-0.023275986151822,-0.00260778395090108,-0.00317514355947477
-0.0215326660625744,-0.033563540602038,0.00881470799772792,-0.00407513453689987
-0.0221198626416888,-0.0377471702810079,0.0160073623649374,-0.00380054639805388
-0.0217476400387275,-0.0234677737300979,0.0170664778148418,-0.00262067378979702
-0.0281498251716431,-0.0149409610990336,0.0170138498952065,-0.000898532057241698
-0.0370107424575599,-0.0274563528573641,0.0147116641910343,0.000531943893510436
-0.036139623214553,-0.0259804506192571,0.0024210265199182,0.0010857757329683
-0.0297079757341068,0.00896938836687589,-0.0200070116701476,0.00111021620312392
-0.0204817371557912,0.0408065715408555,-0.0405937935377905,0.00120893555604362
-0.0121636697408978,0.0489881051263055,-0.0529732311484237,0.00125321674457787
-0.013853873334128,0.0559399348435165,-0.0625431000676245,0.00100140691412416
-0.00804579942884447,0.0735615435819756,-0.0710685387776948,0.000853317983934615
0.016148034553086,0.0880621357746096,-0.073017375039317,0.00141182511720285
0.0333397019371914,0.0749682669779707,-0.0654552661923131,0.00291282313269266
0.026630557004949,0.0302777880417475,-0.0552927580200262,0.0046884316691704
0.00198762991405258,0.00936070551356756,-0.0514568309221709,0.00549334344696288
-0.0195354029070928,0.048621191594294,-0.0488647867618669,0.0042788398744808
-0.022897678383414,0.086770523649797,-0.0377875065291871,0.00135837740745246
-0.0156253723657122,0.0765881242114755,-0.0205123246027201,-0.00136591263542701
-0.00905363702490103,0.0555131717824541,-0.00304597943942553,-0.00260044378437658
-0.00398071401662845,0.0558210203236093,0.0132546098754324,-0.00262432277309828
0.00733318863745129,0.0632132855323615,0.0272224610581503,-0.00220339873089019
0.0263412551800607,0.0572109104995255,0.0344723078064361,-0.0019126025536163
0.0420134459857908,0.0392153484158517,0.0344619437845497,-0.00189550903928391
0.0447390206147414,0.0196656852511493,0.0335295165406581,-0.00187248248958412
0.0359499653670522,-0.00034489434695563,0.0316185997748492,-0.00150317839603496
0.0244016653551575,-0.0121922076662726,0.0237497738257277,-0.000817322463290113
0.0206861494789682,-0.000539583883907978,0.0125765707490553,-0.000184393749283733
0.0254180055211407,0.0232599972759913,0.00161958662176945,0.000226059575659339
0.0254741463328665,0.033439684758939,-0.00789602776166654,0.000663337982471324
0.0101548974127605,0.029536039554986,-0.0129406203434753,0.00131527131289424
-0.0177869791826042,0.0340560123803907,-0.0122337821585845,0.00178311059122337
-0.0357171731860212,0.0514912444229529,-0.00830491548649615,0.00182328446732728
-0.0233857953127115,0.0572807892886624,-0.00448127510557303,0.00182323718458744
0.00523749023734561,0.040912939627901,-0.00130052527734316,0.00209330843887483
0.0256278101592596,0.0180477317936473,8.81622356746284e-05,0.00246452526784891
0.0315451034405668,-0.00536500131158791,-0.000842118876480332,0.00247142331417343
0.0305889589257431,-0.0311426905908822,1.10127622358867e-05,0.00212829237200631
0.0287109153505772,-0.0471172386367323,0.00401940629663187,0.00166725557079062
0.0256953014378102,-0.0460024850694558,0.00998294639613995,0.00104806263770883
0.0218655320884338,-0.035790892058749,0.0183200098845147,0.000361149336231547
0.0178215313159524,-0.0235984001381231,0.0262708152927939,-0.000445026815279617
0.0161167470975977,-0.0159699232207592,0.029265217729747,-0.00152064321411022
0.0191566431282331,-0.0172655468875177,0.0268424025110989,-0.00280973927141479
0.02269875558567,-0.019580716128198,0.0219827703684948,-0.00408851988535614
0.0206294253275657,-0.014846687405188,0.0156222396631565,-0.00471547147919072
0.0117279264303643,-0.00306162597168923,0.00926913171768338,-0.00410985997673672
0.00206839852910046,0.0134830186979318,0.0102519524520029,-0.00252557357626668
-0.00108954529304224,0.0252871949921054,0.0180647023705139,-0.000756918174259648
-0.00105039740134564,0.0251940051294705,0.0220562645648943,0.000827716083178007
-0.00498965182289742,0.0195666663267572,0.0218720251640831,0.00227356208591452
-0.0139407341028152,0.0103213098476861,0.0222768471019718,0.00316569671609873
-0.0314656055640577,-0.00520805583802675,0.0213744998556378,0.00326893241999791
-0.0551842821302338,-0.013459923047498,0.0182031715449364,0.0032086514682914
-0.0584354688671093,-0.00598156125868848,0.0154353562898567,0.00299926151637102
-0.0244784748604211,-0.0021901924205696,0.0138838149709433,0.00193932465407962
0.0181689996104607,-0.0116827809064581,0.0124800502273215,0.00026832193870368
0.0401458288962763,-0.0208896180758725,0.012787291840559,-0.00112019680402464
0.0431458988760576,-0.0207219020423275,0.0157534910079367,-0.00179143372452813
0.044421151404538,-0.0133326577333871,0.0180629496121205,-0.00175384799678294
0.0564028898071543,-0.00164726257762067,0.0162011701810404,-0.00113014484444903
0.0649662346693842,0.0180649583816369,0.0123805137569339,-0.000371377510685557
0.0513068214920017,0.0430646479670924,0.00981031357830128,-7.97222972673779e-05
0.0207624227042965,0.0625984583907192,0.00839480688332831,-0.000531791702150433
-0.0133321428718303,0.0685307434495256,0.0083027075269431,-0.00167177213976966
-0.0452788874736985,0.063559116552869,0.00883098425488066,-0.00283591112973679
-0.0651074180829753,0.0328715851473432,0.00762449087709262,-0.00311206344309363
-0.0718433472372527,-0.0520253271141286,0.00368163504413429,-0.00217671695587344
-0.0873468062550635,-0.131140813166423,-0.00271311867887957,-0.000151725648979749
-0.111305008916605,-0.123834194483978,-0.0124821277884476,0.0024457789895197
-0.111843288210414,-0.0774195726713993,-0.0217708776435086,0.00451959191333668
-0.0863627415942571,-0.0696464325619913,-0.0254742507648465,0.00515377203116727
-0.0545451450791564,-0.0765627343174443,-0.0258186304012338,0.00428187853364086
-0.0192899086739701,-0.0555280830343748,-0.0242733184534381,0.00251107622505386
0.0128320476322988,-0.0347466760710247,-0.0201401612919916,0.00104894291797851
0.0316523406697967,-0.0263750780946465,-0.015110732946102,0.000539071989942816
0.0422115122239741,-0.00333167138723182,-0.00951378165825576,7.98979319791867e-05
0.050336601832518,0.028180595023921,-0.00345066767794585,-0.00135184312883877
0.0578703931222421,0.0428834027469408,-0.00142031864965932,-0.00338366457815613
0.0602593705401827,0.0303667928821009,-0.00356191860063847,-0.00459803307320671
0.0399435773859887,-0.0038862888198879,-0.0011696779678005,-0.00444009865099419
0.000409231319783966,-0.0426396885774009,0.00692436242156761,-0.00354570648059424
-0.0312890294784424,-0.0631546922147026,0.0105231624299033,-0.00234110591816425
-0.0430892536562138,-0.0531584287774319,0.005224974508055,-0.000746676740430828
-0.0424073694397508,-0.0270600822729064,-0.00242026840264196,0.00120806380878408
-0.0394763503600834,-0.00846647922181878,-0.00404107285226309,0.00285618026250425
-0.0391579875563132,-0.00681031652027043,-0.00098222862492446,0.00292786910539127
-0.040087146427023,-0.0171618575915191,-0.00193292765500892,0.001137867835764
-0.0399701436352437,-0.0272940218120653,-0.00468686303584097,-0.00106696685695073
-0.0393193578121454,-0.0272525060190835,-0.00561942246293925,-0.00228552768205921
-0.0392730327030358,-0.0190324533485252,-0.0113767213546342,-0.00197153010516518
-0.0381697840363542,-0.0104575599042424,-0.0208586322575873,-0.000446114922833467
-0.0316493425788217,-0.00591013149894403,-0.0259392544740743,0.00114377914713953
-0.0203060175041157,-0.0105502788267282,-0.0248712315711547,0.00197740328197513
-0.0105563776773123,-0.0210426251517952,-0.0205050110041419,0.00201849317836866
-0.00610698651719281,-0.0283298365988583,-0.0138857240353421,0.00146475500058815
-0.00597352767149532,-0.030261712502839,-0.00588745543652982,0.000454705823585607
-0.00607205211949351,-0.0274387953102982,-0.0013915409113779,-0.000771366121935748
-0.00262367623595486,-0.0264799980718976,-0.00313692933581352,-0.00160128311001095
-7.68152449871686e-06,-0.034604206118339,-0.00693786711847894,-0.00179608823722838
-0.00530437995210112,-0.0483877838882635,-0.00854166440675958,-0.00164147874948842
-0.0156679826012451,-0.0550663806512629,-0.00781435818900199,-0.00141417127892608
-0.0173275635032804,-0.0295335450308753,-0.00462164492908106,-0.00150894027585884
-0.000982379410533694,0.0256729663892726,0.000335953823223391,-0.00200270660299237
0.0191448121101174,0.0610454724423339,0.00409770162790005,-0.00243978225223486
0.0216614812558174,0.0582871578474761,0.00492089101253979,-0.00240239158405886
0.0151719234756325,0.043211984348777,0.00538325429208801,-0.00187867036210686
0.0213193135892021,0.034395886177978,0.00719439306406805,-0.00119379686276254
0.0435444670668547,0.033979137382025,0.00371710842058253,-0.000724271822386709
0.0724049869123034,0.0281599953354841,-0.00722624303494488,-0.000642346804773378
0.0910981412740283,0.00474590061081863,-0.0158255951090206,-0.000989021570062513
0.0870611831738839,-0.0226250312386076,-0.017038169418604,-0.00124713957800352
0.0650305953080945,-0.0318454866813358,-0.0135213302024065,-0.000838433359341037
0.0351249420801966,-0.0246977314532826,-0.00861264066085729,-0.000195072945678745
0.00394003414269234,-0.0176779538144545,-0.00645936715269462,0.000133948924851238
-0.020587823585943,-0.0168929871711194,-0.00859187746650114,0.000259450593907637
-0.0410937238573559,-0.0139152644225702,-0.010870312609634,0.000718221227317256
-0.0738631011271338,0.00473051131595174,-0.0104085298132566,0.00161602881474988
-0.118313463661875,0.0470388623301053,-0.00785735845531263,0.00214656749624436
-0.13986393489301,0.10349662776899,-0.000952685380261144,0.00169810181262056
-0.106588047087335,0.134251577145378,0.00543537839140899,0.000489655033686172
-0.0351117012812849,0.115360026920478,-0.000838135848277476,-0.00106085201546469
0.0204364084521148,0.0717025481672969,-0.0192896172074831,-0.00265146318859936
0.0309657892391156,0.0304599301763884,-0.0364811628899599,-0.00383078981510661
0.0185735281451785,0.00473238499143756,-0.0420731315316638,-0.00422155294384085
0.0120165909315648,-0.00580733391553242,-0.0346505464642148,-0.00395993018367037
0.016200284068758,-0.0159297603342671,-0.0153018800995942,-0.00341017365294068
0.0298853020968121,-0.025320709624204,0.00949818228608706,-0.00271844650292962
0.0497051219226841,-0.0236910254170025,0.0262606715336518,-0.0017988910763467
0.0567895153769165,-0.0170737343485959,0.0268219500269939,-0.000522472543494055
0.0476981886956713,-0.0158750238449187,0.0150261691369763,0.000858684754563319
0.0399426627888598,-0.0176786693315715,0.000810640199470289,0.00171963194386603
0.0285902708767038,-0.0126715478813786,-0.00945193113611216,0.00193467933266384
0.00404963263211421,-0.00122638166645552,-0.014022318244584,0.00196744486820078
-0.0188571892909273,0.00909932808956311,-0.0136349528280898,0.00197639652753745
-0.0297744347046259,0.012828868876519,-0.0107930262111232,0.00199790763061005
-0.0359726485731426,2.46966298556445e-05,-0.00633509725581164,0.00210214841750768
-0.0403190169024347,-0.0209204716262066,0.000336120174720473,0.00195430706697028
-0.0396825313201362,-0.0240640388106115,0.00671669083179844,0.0013500372883402
-0.0386181913073213,-0.0133866478176018,0.00755175222460968,0.000349489314499533
-0.0399504283862645,-0.0115688973252895,0.00324634205587187,-0.000930309163488796
-0.036886778732597,-0.0172282526470392,0.00148752753868475,-0.00227135940645519
-0.0271556155762027,-0.0166036996615444,0.00490036204197247,-0.00342680406156775
-0.0168483976878266,-0.00996645184396165,0.00988358530873678,-0.00380777997840883
-0.0138284965454233,-0.00452918263719417,0.0153000934384404,-0.0029401959340472
-0.0122066328166275,-0.0028685816138354,0.0208663428641621,-0.00115409500987371
-2.58153441024308e-05,0.0033695673560037,0.0252939350031374,0.00078612826756099
0.0157156029581366,0.0208510369982284,0.0275674046454329,0.00196159338266368
0.0219185991554055,0.0369839835137348,0.027274417777195,0.00177851494186452
0.0166689768878076,0.0460554805779598,0.0240636379475455,0.000534143237006856
0.00882676916409012,0.049938311460619,0.0167417055237414,-0.000648172092243917
0.00931991548598927,0.0387022950787853,0.00798665761013861,-0.000558425407033583
0.0188886025821644,0.0219849427009853,0.00253515817520175,0.000839510544778616
0.025226543926041,0.0225852561000485,0.00350612701584977,0.00262536641927291
0.0147540246381522,0.0364848838366222,0.0127095469247609,0.00379071708694576
-0.0106396927769132,0.0498105443957215,0.0235842931886858,0.0034168652830828
-0.0247196561197519,0.0550245349641099,0.0277716096345261,0.00152208251712938
-0.0079247524629886,0.0465183809783244,0.0249636696624097,-0.000715306908934801
0.0197151984436492,0.0292608536721955,0.018874585578017,-0.00228635706490594
0.0352465766706907,0.00676025247452101,0.0116376534936887,-0.00304820878671178
0.0336140938823159,-0.0209346505463631,0.00377337458915039,-0.00305802864346259
0.00511620458369902,-0.0352571492811301,0.00185097022789724,-0.00208545473534783
-0.0343160764803157,-0.0204381344295193,0.00794162045158955,-0.000238541642634066
-0.0391652085981769,0.015758006959696,0.0132853523062453,0.00152633737015718
-0.00707238391693676,0.0515155743618288,0.0176514425298072,0.00254990903224371
0.0207065977650104,0.0685037556019056,0.0244830800386587,0.00276580847011645
0.0256600012091286,0.0668720902878719,0.0301464974496143,0.00201921475182246
0.021427737583773,0.0546457742845336,0.0316825663801751,0.000839436069639271
0.020191812553773,0.0423799481766756,0.0291728796388482,0.000177112642537548
0.022986988944458,0.0222534726698446,0.0278679061545032,0.000135660899084908
0.0231793351838352,-0.0254374757689231,0.0305774424657644,0.000218700276217629
0.0138655342652669,-0.0694357616020575,0.0313019617224806,0.000292297190696191
0.00370174674250835,-0.0625198038458045,0.0267067753120576,0.00058984530973212
0.00128412353082625,-0.0260235076793301,0.0197925416916938,0.00092994187880299
-0.00289882457190713,-0.013008691436357,0.0123590359156164,0.000938493260106845
-0.0147477400620622,-0.0330799518306486,0.00276136257870246,0.000778630702994136
-0.0253592938576544,-0.0562084800340406,-0.0093017842797915,0.000707033665687137
-0.0281811381810565,-0.0565217356872647,-0.0202232225606161,0.000937901983592642
-0.0263929548631579,-0.0304443304343897,-0.0262447803031087,0.00138267178381896
-0.0262184611152915,0.0115206815227089,-0.0292911343032187,0.00139343625857996
-0.0289198389462094,0.0527312120991942,-0.0300735535579976,0.000804004069910535
-0.0222336981790162,0.0696649045319904,-0.0239991257760537,-1.56351377033144e-05
0.00634509373873891,0.0506632172603826,-0.0133848027621245,-0.00065839062720509
0.0456308018997403,0.0265291084151978,-0.00948626607975782,-0.000792710596755416
0.0663728784281278,0.0373304251703876,-0.0147850631283808,-0.000407914403851997
0.0561102432479992,0.0710060485788948,-0.0155347175257212,9.4378636470665e-05
0.0330582080725615,0.0833964201973208,-0.00807665465747421,0.000178672141406537
0.0112147900495717,0.0639890257683237,-0.00231095683043156,-0.00012014617083032
-0.0075410429828163,0.0335521539145535,-0.000296208751660153,-0.000327385953700783
-0.0237461141413343,-0.00576724930334241,0.000228756302163399,-0.000375260045064576
-0.0380764829868869,-0.0512758199651203,0.000690683945891613,-0.000365811466729276
-0.0406692982002478,-0.071805130955485,0.00219314819420361,-0.000163805017698213
-0.0290817767377076,-0.0622047472842781,0.00542377605071096,0.000289371186185217
-0.0126302897334353,-0.0483223307927578,0.0115592485496921,0.000842056658578703
0.00239113031738085,-0.0422532947330567,0.0187685738855161,0.0014610913716363
0.011486172368662,-0.0417277481962552,0.0216716849286044,0.00223800368502675
0.0152957535409695,-0.0421396715289222,0.0181736045048002,0.00307240106842928
0.0176375046360033,-0.0444890537933335,0.0113034990967887,0.00386365556530463
0.0216340607028468,-0.0499376177468557,0.00415769412169324,0.0043159704156868
0.0271365926659729,-0.0478334744587958,-0.00070623764081873,0.004188970328124
0.0247059024118876,-0.0295135302273834,-0.000143449499249725,0.00340290276535815
0.0129454851263144,-0.000584040406491439,0.00613829035132727,0.0013166821755483
0.00385716259532106,0.0222097187312749,0.0123592686433794,-0.00238180860839671
-0.00121689776087462,0.0220943300343856,0.0124465755469842,-0.00622149484003106
-0.00885776544299753,0.0135563187242108,0.00843281109008381,-0.00763173612492602
-0.0231767259712007,0.019631261994743,0.00517166787676081,-0.00568190850779258
-0.0425365332508283,0.0261316058178415,0.00407741480432854,-0.00213303124996018
-0.0493665939204218,0.029924125951699,0.00641272866232448,0.000686645091059724
-0.0313214063991979,0.0462808861478501,0.0109495253895086,0.00177009054410985
-0.00370544411971145,0.0504038878510095,0.0126141556156205,0.00125636518792507
0.00998979162478658,0.0376771234102955,0.00944467968336756,9.43388806125356e-05
0.00522513648468062,0.0394183904592756,0.00746370956196126,-0.000514355734951244
0.000318033359565029,0.0434948577529374,0.0111308028822756,-0.000366399825175901
0.0149903985493845,0.0184858658486068,0.0163614066724404,0.000307827004842843
0.044956382872195,-0.0123082670857194,0.0173000601423537,0.00161695596981517
0.068130938512817,-0.0024803335357817,0.0120503789468984,0.00339437681030565
0.0617840017191175,0.0179230555880746,0.00716653353186726,0.00504401016723328
0.0252307964755095,0.00751600467701498,0.0111270817083467,0.00570924854585011
-0.0119723336876532,-0.00705937853331014,0.0207471744818383,0.00467879782483736
-0.0270559873808096,-0.020443047670506,0.0256449571203507,0.00208139760998577
-0.0159187486624038,-0.0388548279651437,0.0260810708908984,-0.000992870925658892
0.00842298784783726,-0.0278284468307182,0.0290459270857702,-0.00294564265823898
0.0124488707641883,0.00865934694077804,0.0347702144150653,-0.00311543671350044
-0.0166683020269295,0.0206402400175676,0.0408338301157774,-0.00263767959830916
-0.0526831145798118,-0.00557694336204041,0.0421100302530691,-0.00267941585108755
-0.0643822213284384,-0.0413445650080278,0.0351311672233161,-0.00302560088963478
-0.041038875628962,-0.0535359965753771,0.0260880049762206,-0.00272220796070445
-0.00631296308344279,-0.0344901719667158,0.0199263397660895,-0.00175207893576311
0.00996487504162015,-0.0134798731647764,0.0134561278392041,-0.000889611940655222
-0.000273072225719439,0.000159991625753808,0.00665175255533845,9.28284164949198e-05
-0.0340697544505007,0.0259949819984809,0.0043289226120627,0.00136034041086212
-0.0633719830329499,0.0449038203830119,0.00404325137168288,0.0019216294260195
-0.0537079373400503,0.0322543797757024,0.000366141803035587,0.000959324260830735
-0.0160563335504585,0.0115608968989081,-0.00685147939847912,-0.00102653769649661
0.0284061698606292,0.0156962707550874,-0.0146192710610761,-0.00214402722843509
0.0637430350197061,0.0397431468938668,-0.0183413697388138,-0.000775128981263483
0.0439534709582659,0.060254891564669,-0.0154783000254815,0.00236921121498388
-0.014792647926793,0.0635828622345,-0.00953515679938457,0.00480422975960149
-0.029962517298405,0.0356541131617485,-0.00583533762956768,0.004818177473265
-0.00338783496897422,-0.0211739564964486,-0.00627649922548849,0.0027933871436174
0.0140662286892725,-0.08207268008559,-0.00864171105562684,0.000550354936862343
0.0164352772787656,-0.111625409665824,-0.00731632856651747,-0.000458561801371178
0.00906954191662519,-0.0930614595610713,-0.00137188121132216,-0.000516002820300569
-0.00174577868340263,-0.0587376419235924,0.00252854212285536,-0.000755219168542903
-0.00482491837510351,-0.0382129284661079,0.00236298939799003,-0.00129573245431982
-0.00305955967572664,-0.0230688001021568,0.00299463726856801,-0.00143002661809221
-0.00679541030765691,-0.00370920425112755,0.00502379598333842,-0.0013678556245457
-0.0156939445151259,0.00751830164201259,0.00201910470587106,-0.00208059074699604
-0.0223870303521732,-0.0025938747266771,-0.00668298621443939,-0.00342282442957202
-0.0207364866738343,-0.0286386733093772,-0.0156918720429564,-0.0039088915118041
-0.00662364718686964,-0.0481304145100337,-0.0243692768908619,-0.00263092214092139
0.0139451466801713,-0.0413214893400317,-0.0358588360750909,-0.000216262846842328
0.028197860886855,-0.0225149637941964,-0.0501922171045368,0.00213214638258945
0.0269884639626151,-0.0153119575614734,-0.0550869995300116,0.00357298258842442
0.0197340602580088,-0.0167005588451181,-0.042677419554512,0.00377634818319861
0.0228296207824849,-0.0171068658461598,-0.02625724805527,0.00293965388969278
0.0289812840642402,-0.0128909591453566,-0.0188781678237412,0.00174256685520894
0.0257860300971444,-0.000152072849366559,-0.021170409095962,0.000999320133109045
0.0150973866891107,0.0160402448699351,-0.0254034660575699,0.000887962167923726
0.0069089371732739,0.0270945576473213,-0.0200580026056617,0.000690982861079611
0.00799919759463075,0.0358652603186465,-0.00480502839198514,-2.49981527363468e-05
0.00809545693575338,0.0394824506369447,0.008786710657065,-0.000737104807048626
-0.00589698678107529,0.0224072400715274,0.0126969821074871,-0.000876110139699135
-0.0239140527923331,-0.0151804578007589,0.00846809409189366,-0.000613995752189867
-0.0266608057781205,-0.0376186660660031,0.00239087951055669,-0.000283496546184937
-0.0141664264380808,-0.0149687982720327,-0.00489021725654351,-0.000134093264894316
-0.00214396408046594,0.0239079150496631,-0.0142896071741577,-0.000505169856482683
-3.05013025228527e-05,0.0358496102113975,-0.0160594800633123,-0.00143833586122351
0.000474738999378997,0.0289894558983756,-0.00415772233545169,-0.00245447517545414
0.00742505317450383,0.0311618079315771,0.0101074290539303,-0.00295163305785156
0.0149530033869854,0.035480320670543,0.0147882787707817,-0.00284699853956004
0.0143953330973015,0.0224039520308961,0.0121737161425348,-0.00219079381067361
0.0101531308882109,-0.00693039269195192,0.0114270956065934,-0.000871539569895942
0.0215799145706733,-0.0317171530672258,0.0134115725431903,0.000898331961715966
0.0520251042015486,-0.0308918111717573,0.00971276352621812,0.0025101388300473
0.0738399798249617,-0.0122202229616132,-0.00177525137759606,0.00359756620521291
0.071405897027997,0.00373762652960767,-0.011924582286282,0.00410093773271859
0.0548094806404651,0.00580787743438229,-0.0151583771505878,0.00378915136031713
0.0337852937990504,-0.00632375128261183,-0.0178487756127355,0.00267778311738543
0.0150981975387751,-0.0234274505627009,-0.022057608836322,0.0014682371035683
0.000495144485443605,-0.0294426897441764,-0.0190376940427321,0.00078983631622968
-0.0099750952841413,-0.0116598835374364,-0.0083040298353407,6.13270693359852e-05
-0.0148646107801243,0.0181510859252539,0.000138044144004753,-0.00162437509967833
-0.0254161641496432,0.0451497565966543,0.00290339801535375,-0.00360909008631921
-0.0460541693792932,0.070396829881626,0.0040747492912529,-0.00462154079773563
-0.0562460020499589,0.0996184278837119,0.00599519321820875,-0.00450753740549464
-0.0415784648324088,0.120497921123231,0.00905100189838827,-0.00392496216465263
-0.011945488951187,0.109356144960422,0.0124595539648905,-0.00327044601492988
0.013965945961185,0.0761277412576266,0.0157002094905002,-0.00249383421345092
0.0275180765160003,0.0498842717895266,0.0184768049849919,-0.00157708994583995
0.0306197266560436,0.0348872526732541,0.018256074601748,-0.000648971708465151
0.0330317247947869,0.0171636420315604,0.0096520471767332,0.000191626533451401
0.0405749494632107,-0.00432006140048766,-0.00657764287983644,0.00105578345215814
0.0469832454931585,-0.0191501999773278,-0.0174340303815413,0.00195774329296492
0.0479489750847217,-0.0176880184665206,-0.0169357614396957,0.00304504472640883
0.0416509248050836,0.00740064544007966,-0.0170877620927875,0.00437710066000507
0.0273270983524089,0.0401421192795437,-0.0261834394330767,0.00491943369063876
0.00820550466166563,0.0499018385124667,-0.0332210563418837,0.00374304946626498
-0.0115575643183034,0.0246783076917235,-0.0273552992854043,0.00149207390279963
-0.023904743578676,-0.0265065744386724,-0.0161508538545357,-0.000548174784653517
-0.027702315275982,-0.0668177638337017,-0.0125075721290658,-0.00171940140946055
-0.0362367344794652,-0.0652976282946765,-0.0144628905407773,-0.00218383190005003
-0.0413271260414213,-0.0451564547545794,-0.0124061847056807,-0.00234218985089393
-0.0273541149999684,-0.0292347547364029,-0.00589118436569152,-0.00249474157907623
-0.00675662644068865,-0.0131433061431716,-0.00114445329134802,-0.00285021608862201
0.0140837919598343,0.00286875394523627,-0.000153943424288403,-0.00326315251240539
0.0343551416667217,0.0189356321633923,0.00125021740283808,-0.00329360188566922
0.0363011448353561,0.0275046869956576,0.00289554239055066,-0.0027953661787756
0.0173762426249934,0.0106817068326745,0.00126558304460467,-0.00194818135604583
-0.00270092534242989,-0.0244824051595201,-0.00209488024751564,-0.000863305027334512
-0.0135281186505493,-0.0384441299443272,-0.00229609052285442,0.000421073440128583
-0.024820486220184,-0.0165409277246,0.000507900212179772,0.00170705005202233
-0.0477181183253417,0.0122163088918127,-0.00215924674747027,0.00249802508383376
-0.0597147406474891,0.0233486144246456,-0.0118254413146447,0.00266044550502188
-0.0377188813485244,0.0228671577375811,-0.0184391828754708,0.00247320072635429
-0.00666431681681849,0.0278935011652901,-0.0195289124699888,0.00179637601920744
0.00578260339638813,0.037076296879848,-0.0185532915326032,0.000939450852331051
0.00356815012447504,0.039529287066417,-0.0157853103410817,0.000715617565034345
0.000280413410429114,0.0323160127724468,-0.0122545629065573,0.000908021128919495
0.000545007685643202,0.0136818070010872,-0.00567645061294585,0.000910472059399861
-0.000243470522679801,-0.0194139139817074,0.00336407093484498,0.000533962970309514
-0.00509004004751983,-0.0554408538223155,0.00843471859841744,-0.000224677855588916
-0.0141377796870279,-0.077100099545369,0.00846704468106822,-0.00101375567922646
-0.0242076153361111,-0.0839381171154131,0.00713302472087058,-0.00148692974101982
-0.0281515990576524,-0.0786918092907523,0.00684817068963779,-0.00166541577032801
-0.0248648902501328,-0.0678312977364512,0.00876055092756469,-0.0019070679988639
-0.0216005969809846,-0.0661084235629843,0.00942650153523824,-0.00237742127884011
-0.0224354319292265,-0.0658520536993888,0.004811365900787,-0.0022559781237705
-0.0238698358423879,-0.0446216037505622,0.00288348932468128,-0.00112842463633831
-0.0249602336428958,-0.0161353703443951,0.0055685636599159,-0.000207636852334168
-0.0279940378611988,-0.0218439242803263,0.00276850214257233,-0.000292946603036741
-0.0253681802067163,-0.0501763876118874,-0.00246845943283598,-0.000550352831978724
-0.00579823390904568,-0.0437273210089877,-0.00255194670537839,-0.000154041979621373
0.0243930570506673,-0.00352889691940381,0.000896109903755514,0.000672519071398127
0.0475556167868932,0.0241435595284219,0.00623409892550216,0.00131193555101766
0.0496905840177589,0.0303186550005357,0.0117530740695004,0.00140829454884325
0.0289500001061033,0.0307682551779826,0.0162700150884673,0.000905669005725384
0.00321653613199835,0.0237477346794055,0.0220893025219095,-2.19485416690398e-05
-0.0153838820701817,0.00648831220379929,0.0264553462700883,-0.00102490116112775
-0.0325483329935274,-0.00771644363800269,0.0232610655618143,-0.00185159858237908
-0.0483229964733885,-0.0141385975799,0.0156237177045924,-0.00241281796025077
-0.0566189387720486,-0.0117249961374964,0.0109101240324906,-0.00263104176158453
-0.0462135626838137,0.00366679107622197,0.00901182305085741,-0.00250599894295296
-0.0069841882759159,0.0176917870499891,0.007281269773855,-0.002039892037626
0.0408968868383007,0.014400178783428,0.00440390670164495,-0.00130588313369951
0.0652105022436052,-0.000106552285644219,-0.00184800753938214,-0.000527393566155792
0.0621656823758952,-0.0180745925234218,-0.00809008649246051,0.000369889987929527
0.0445741649886347,-0.0265634595934691,-0.00788378852786612,0.00147921914642986
0.0253717710958794,-0.00989307707531422,-0.003753236265444,0.00234568112515175
0.0160332859205668,0.0155587314193497,-0.00221466635877143,0.00226082799145102
0.0136305603972161,0.0297839827505056,-0.0018606253236649,0.00105691624036214
0.00381587407519365,0.0365184772021246,-0.00051228086857249,-0.000610074539577711
-0.0148342452557318,0.0489553493166626,-0.00334700713223825,-0.00177578534387455
-0.0239590662816414,0.0625768109086426,-0.0119889700111314,-0.00185964247899984
-0.0104312274006133,0.051002553619461,-0.0220928458756452,-0.0011107838426786
0.01059342293794,0.0160570696699935,-0.028142890398757,5.15221791732142e-05
0.0167699707018477,-0.0110609849277948,-0.0276173262363691,0.00123886141684262
0.0120320131420604,-0.0160587664214156,-0.0262293380105224,0.00175580479192586
0.0116373320197724,-0.00552255343602041,-0.0252060404458386,0.00144221175205684
0.0137372735334809,0.00499608794504251,-0.0177515514602916,0.000722768336730558
0.00680309671840734,0.00459591949273707,-0.00698997074068585,-0.000120089466348474
-0.0115876425757845,0.00181657500065367,-0.00438507398658976,-0.000948781852878424
-0.0252557398244215,0.00802381829633923,-0.00966951277612059,-0.00163993234752457
-0.0170396719996487,0.0172914999250173,-0.0100776359566226,-0.00191407914568471
0.00307420504140781,0.0169055385790779,-0.00253255243241262,-0.00170744848810242
0.0138368861203083,0.00639034290931044,0.00265050503205325,-0.0012458105983544
0.011753564287971,0.00277453975528867,0.00130327525583204,-0.000607362590537952
0.00775881746174151,0.0177088660551079,-0.00289235923949677,0.000273405626163126
0.00661321090473612,0.0393971707173195,-0.00703348491033082,0.00135254803327534
0.00493043801426834,0.0590507858910856,-0.0103344574966839,0.00232850496442883
-0.00944137249567222,0.0818863221418485,-0.0166279798919413,0.00288909605907272
-0.0458682506347961,0.0969330098848596,-0.0255642204348681,0.00274209690548504
-0.0840296680497708,0.0793889079763815,-0.0301975574260415,0.00206786499991209
-0.100550544487824,0.0408812012140774,-0.0306165788443856,0.00151598873312299
-0.0946570109566055,0.0209522247403069,-0.0265056809731773,0.00122710898041863
-0.0726474205023992,0.0271365069918001,-0.014146472539725,0.000903147028051777
-0.0454478814607135,0.0422253107628071,0.000236560669225321,0.000608395579052899
-0.0292149664381873,0.0579926544148631,0.00957387149285812,0.000466165534904262
-0.0260256270949953,0.0596569903242464,0.0142049616394568,0.000114247877061882
-0.0172003972326511,0.0377338699663247,0.0152711700074031,-0.000680736815953566
0.00759809383859363,0.0272604693775481,0.0126825401256882,-0.00154319496151689
0.0365770152745555,0.0479297551389352,0.00835694760666941,-0.00168201912814881
0.0744836094971946,0.0552136470979544,0.00652229957298086,-0.000701976137519962
0.115688198553381,0.0234297984896108,0.00706003155894167,0.000823108015737605
0.107210273093657,-0.0174685963902136,0.00553884065114212,0.00205137255262608
0.0335966279540336,-0.0431228758494668,0.000666085515398027,0.00252196200524617
-0.0520120831018379,-0.0444539837248312,-0.00365581330317768,0.00224614552341315
-0.0941457758910985,-0.025885007014199,-0.00445268581961705,0.00144198685705845
-0.0866185791139058,-0.0113885935982583,-0.00595558367599802,0.000224962321875535
-0.0641939111404052,-0.011193991592656,-0.0139735199427448,-0.00118176161648888
-0.0471142534618232,-0.0192353836843124,-0.025998178129566,-0.00225628090927609
-0.0320936518973855,-0.0205260352885658,-0.0363840795294797,-0.00242600476152445
-0.00713487675930118,-0.0093139882043192,-0.0422233252877402,-0.001439699240379
0.0370519493422675,0.00234380447808705,-0.040765805150402,0.000394097991442241
0.0743087886262724,0.00894953189202518,-0.0310019975395027,0.00244803694251223
0.0727983083529263,0.0104327861632715,-0.0169094071644926,0.00429271906596626
0.045108416342547,0.00659391616004534,-0.00516697352010739,0.00539506951607589
0.0191804035399629,0.0034315864226212,0.00240623455992864,0.00497438622811093
0.00549961010827103,0.00543460892250645,0.0101857569053907,0.00298944132219391
0.00554005289940664,0.00981918880853215,0.0207528361479852,0.000612985012003774
0.0128809263708252,0.0107695078818859,0.0303930693032431,-0.000957510053212972
0.0136860813738085,-0.00369335017512599,0.035435109533189,-0.00159446942333632
-0.000972818873742988,-0.0252294230649301,0.0378212363195234,-0.00172991442200384
-0.0197057347847652,-0.0305803624081552,0.0394862666453631,-0.00166335871194486
-0.0147868012004249,-0.0232898387067082,0.0386802702477581,-0.00163805628792559
0.015687943478879,-0.0142338362650283,0.0348953185218196,-0.00203308194854743
0.0431194631163799,-0.00592771795158015,0.0291948362075486,-0.00275667996996264
0.0526093031511401,0.000831602381150133,0.021802717703135,-0.00304722777935423
0.0503917331129566,0.0130590381929291,0.0139386306347631,-0.00250498513347269
0.0430238880987737,0.0292005930190657,0.00669706512045721,-0.00148904727736055
0.0360329780203563,0.0322473623612511,0.000193740830106516,-0.000339438529506222
0.0317717349603105,0.0103035559227044,-0.00316111740095135,0.000782783199860092
0.0308856352955761,-0.0264631516648636,-0.00733664714409368,0.00183774928727769
0.038401594386875,-0.0454207445129696,-0.019775189074598,0.00343333885108356
0.0502236818155853,-0.028079094381276,-0.03028956482616,0.0055751120638637
0.0498961302916569,0.000481124198951532,-0.0247240968905034,0.00636139623099964
0.0304046147584451,0.0025828732658265,-0.00881354585263868,0.00438204560159339
0.0129218172467754,-0.0114709306456883,0.0031347073008402,0.00108935969981604
0.0256615807949628,-0.00231395835311492,0.00746017294564061,-0.0010245098300901
0.0529595074602847,0.0190650310464328,0.00958763746129836,-0.000831738614348513
0.0549190442061644,0.0117178469381303,0.0146239254093724,0.000820948612649577
0.022981461237651,-0.0239263059380959,0.0207231132163362,0.00199077948289695
-0.0259271836703991,-0.0555816016500206,0.0219201474726995,0.00160983466291541
-0.0655055245452924,-0.0761844186562499,0.0216058055780101,0.000149910173559444
-0.0776778233318098,-0.093152980248669,0.026338241974144,-0.00151581499105025
-0.0673386231495442,-0.0993809756310836,0.0341795885332948,-0.00306035700036787
-0.0487734038192533,-0.0938729571891354,0.0398550196058501,-0.00413593248000079
-0.0260824341490814,-0.0740223841764246,0.040342637491535,-0.00414507318808139
0.00106967148173703,-0.041466285969139,0.0364815538882107,-0.00293650884593731
0.0192444428160132,-0.00206043367385464,0.0308824558882665,-0.00150572557974369
0.0191558575876216,0.0435482018928068,0.0243248233810395,-0.00160613343823426
0.00871572367936013,0.0739747536025497,0.0158022450114124,-0.00278209816023978
0.00475159182604957,0.0720192116199516,0.00870520940755107,-0.00219630045448325
0.0152685460350298,0.04973812586295,0.00775228674300353,0.000959821472955845
0.0229714091301013,0.0293326615098681,0.00775795653616982,0.00431735587912079
0.0166167846330977,0.0144827084170894,0.00404918782189173,0.0056013511885922
0.00482603138489524,-0.0113285344621492,0.00321817293016619,0.00492427176726808
-0.0103345443643049,-0.0517703614604366,0.00770015730136078,0.00358955880142706
-0.0238579594426274,-0.0944127133455654,0.01099903769118,0.00234396789877086
-0.0210605300317475,-0.114599805582991,0.00749109416589879,0.00127352938421945
-0.00637713654036032,-0.0903166854745956,0.00232523149346711,0.000176138476457448
0.00228419260730196,-0.0482411526782492,0.00459415855812513,-0.000947946064465112
0.00106187599673823,-0.0356544529797829,0.00666573035804285,-0.00164705932260428
-0.00497336409566132,-0.0402426591136442,0.00282880500786645,-0.00157887497627362
-0.00806526290072933,-0.0256983622801891,-0.000121287734918239,-0.00152375272781747
-0.00342012801636825,-0.0096711002618074,-0.000309187455839469,-0.00221158946061636
0.00135360376708223,-0.0154980995540096,0.00168469720864678,-0.0026761582144982
-0.00153148750852198,-0.0260122783854121,0.00496790195428685,-0.00177178736339676
-0.00854181450367312,-0.0247432985975313,0.00712865520028544,-4.46934544175246e-05
-0.0114037946884401,-0.0184440873902061,0.00870555431723127,0.00125387232862419
-0.0107775930764494,-0.0242932239961863,0.0113586179809761,0.00183376184733952
-0.0106934999095431,-0.0445930556064537,0.012284579664151,0.00192286476265888
-0.0118382298647134,-0.0625025624242885,0.00977597564204887,0.00125839658869716
-0.0177218928443266,-0.0669190779119817,0.0064211373008474,-0.00012947028350604
-0.0227235101203391,-0.0581973157562894,0.00337409927923123,-0.00115471238011136
-0.0160916356264954,-0.038817011260943,0.000903950723494511,-0.00103950417828132
-0.00427948633119198,-0.016513180896643,-0.00125842672676942,-5.9114621428386e-05
0.00120713247979021,-0.00413908939200773,-0.00405038731265643,0.00100269417054792
0.00229738593432353,-0.00630092278621612,-0.00859168994225313,0.00148776933808912
0.00291394353842416,-0.00912554875606732,-0.0144789733975963,0.0015192152277862
0.00232351238426638,0.00752587755599403,-0.0186317263862442,0.00144950014751253
0.00633340662691522,0.0395409481395363,-0.0191440249143538,0.000967066065120857
0.0180227106932523,0.0573636873614751,-0.0174623459357236,-0.000230628122536331
0.0292786519565902,0.043354270790309,-0.0150232238016104,-0.00163743258640165
0.0377643979963323,0.012353774926803,-0.0108692270204806,-0.00249912546760327
0.0406173604847931,-0.00724249756341616,-0.00522415134579574,-0.00248547684285687
0.0304637248108819,-0.000669339657543198,0.000710488591510901,-0.00212026608390449
0.0144448843304288,0.0159589906055233,0.00399410310440261,-0.00220127659165364
0.00312907619869844,0.0122235570029669,0.00204109341674244,-0.00219103266168158
-0.00396846094794109,-0.0151628726214893,-0.000151245506519028,-0.00116841656104647
-0.00359792735159345,-0.0394755447799494,0.00210561900396554,0.000200102067827451
0.00898568388866594,-0.0371895668725824,0.00411232975956968,0.00103453198718459
0.0245399879290406,-0.0103899900520222,0.00128286105950305,0.00142603753307388
0.0320596126685203,0.0198996684708104,-0.000695915998806017,0.001593664393907
0.0308931773412259,0.0306334769102623,0.0031936860655895,0.00166462562261395
0.0267525018575712,0.0170541685074025,0.00967524530246973,0.00155917588190728
0.0245888707024016,-8.45537120538892e-05,0.0153932788375568,0.00122175176639751
0.0222010302685213,0.00186145556066764,0.0176104169424144,0.000802275218157187
0.0158968623100241,0.0262044313925102,0.0146576443008915,0.00017733728565758
0.00226761184571178,0.0542885915289152,0.00842111444521948,-0.000545393526308553
-0.0191089862823127,0.0662247956509653,0.0028229401323557,-0.000826088373339087
-0.0358679670560524,0.0697724078182623,5.90876129394867e-05,-0.000827594872560555
-0.0344062588177197,0.0814221518229148,-0.00552088812496184,-0.00191356215866781
-0.0186618786139805,0.0805621004418747,-0.0201949195749156,-0.00479059700584959
-0.00358170615094914,0.0505339122779767,-0.0364678015418093,-0.00738167055691577
0.00290198126386264,0.0241791681677472,-0.0427796385398002,-0.00705187837411278
0.00476390082797564,0.0179294984622438,-0.0416479585091993,-0.00436568136174047
0.0144448939740371,0.0205667771358231,-0.039406656437338,-0.0015931829041601
0.0322788912017255,0.0248600186227929,-0.0356594583309484,0.00042363243872886
0.0412126489332953,0.0129452220238207,-0.0308140621812868,0.00179277832711783
0.0373438018419817,-0.0101315052007897,-0.0254208931278016,0.00243470347230879
0.0316947651967359,-0.0147154722528355,-0.0173972465336606,0.00215302832025082
0.0272212386213121,-0.00529802767044626,-0.00467785845119451,0.00131100801361615
0.018866532135394,-0.00144523423477587,0.0109640153990276,0.000892331287914963
0.0083965184345727,-0.000294312235882855,0.0219953764070842,0.00121659764336266
0.00249216906196924,0.00220450782993879,0.0242063777729911,0.00153003597652376
-0.00236422125018917,0.0047594655361646,0.0215951856015686,0.00120695445116891
-0.0107704829536371,0.0213555725408012,0.0208833928996188,0.000310311518374969
-0.0116677777439832,0.0530903227736746,0.020429600552939,-0.00119090914200388
0.00114596016121691,0.064899369812993,0.0105029038824118,-0.00309825058235014
0.0149382074829583,0.0455893559595802,-0.00667344207992439,-0.00408981891542892
0.0201901770019163,0.0203679950493203,-0.0217680498242579,-0.00343685401801005
0.0155932231675138,0.00562383688164668,-0.0321878178179587,-0.0022942398859862
0.00555057199080107,0.00109731514906906,-0.0354855167634678,-0.00197392291723755
0.000384228698122289,0.00271195467035023,-0.0335524124028212,-0.00228295752345887
0.00404226596310171,0.0094155912163616,-0.0338043229978322,-0.00209685995804802
0.0131457268825351,0.0181954303417726,-0.0349772370951,-0.00110768040389269
0.0236042123356358,0.0226267560894265,-0.0311795614689443,-4.3111254065946e-05
0.0282335010799191,0.011846986369062,-0.0236272627259931,0.00043624696128718
0.0171763604522298,-0.0127491015940947,-0.0148274832522713,0.000280032144415316
-0.00270427079253237,-0.0272494459906381,-0.00499165887932596,-0.000131131630970371
-0.0103693944648772,-0.0177292174662036,0.00106186068429758,-0.000317903796865656
-0.0057570260815208,0.00247958714275334,-0.00171940414553503,-0.000116785555713483
-0.00995228196423815,0.00737269035965582,-0.00820454730265832,0.000252536901481491
-0.0286409536550652,-0.00607253754599362,-0.00729177912666234,0.000401693607028564
-0.0451713876880773,-0.0108037717421681,0.003905702964107,-1.30653004305867e-05
-0.0463452328278522,-0.00302369093114489,0.0184960002390071,-0.000586382194729371
-0.0320125013544194,-0.00735809656796219,0.0296215233007244,-0.000566879719338733
-0.0101563299574798,-0.0225142614541016,0.0336030258236037,-0.000103592860672791
0.00969853643015975,-0.0238656791923825,0.0276841116720412,0.000279396866983667
0.0247641736491836,-0.0137357017909334,0.0139942706328403,0.000606370878926359
0.0386370630564625,-0.0120568183773101,0.00334881228074688,0.000967422554740505
0.0496803709320142,-0.0189777767871753,-0.000949249127537438,0.00103191469192269
0.0540457994439889,-0.0144619880289651,-0.00988342352750673,0.000349217302109906
0.0560367486986738,0.0150557627946013,-0.0277476246241013,-0.000812743795985105
0.0557906584868008,0.0357180059446589,-0.0476134018966515,-0.00171009680926727
0.0468378844078105,0.00438564610301994,-0.0627925275593922,-0.00208235452009407
0.0304537278268078,-0.0560291224319502,-0.0663028284660712,-0.00180589498569918
0.0161133885362996,-0.0882086667034958,-0.0550006274039272,-0.00104705853946982
0.00339636639500982,-0.0804052110611031,-0.0352262597210654,-0.000421609362445065
-0.0235768047176554,-0.0645416406493861,-0.0154766024906628,-0.000149980761579935
-0.062352587352476,-0.0467092243393004,0.00336222721519774,-8.60694877056246e-05
-0.0751982683387943,-0.017684096910483,0.0221885735298764,8.95344724652102e-05
-0.0446922982213157,0.00643773824401517,0.0340785256802335,0.000587820693008765
-0.0054034318511524,0.00897213052221426,0.036858521759989,0.0012238743523807
0.0123921191349548,0.000441594043568191,0.0367695913753678,0.00169039948509929
0.0139322518289528,0.0140277410515972,0.0382207404501189,0.0017950597201645
0.0110746359424466,0.0516779099367978,0.0420704138073935,0.00165168141080243
0.00747667723866624,0.0821616751081904,0.044521671087506,0.00150941400058507
0.00615538634884241,0.0950710862203576,0.0422523903645499,0.00128314653154655
0.0116802173481366,0.0899276179818206,0.034341433923898,0.000710694432406522
0.018519192816701,0.0556856135742291,0.0234826193342927,-4.98018222188294e-05
0.00884227386626904,-7.82286872675342e-05,0.0153441569557113,-0.000753818597899246
-0.0147827386730027,-0.0404602403505308,0.00818441763752191,-0.00101921626360581
-0.0257363295102545,-0.0359508155492237,0.000963117541260147,-0.000303984224959791
-0.0173979909923531,-0.00404728456329911,-0.00524271970309929,0.000827258035657202
-0.00547244108265977,0.0114670048928672,-0.0147554473661124,0.00112735841801032
0.00107243823644036,0.00357157349362083,-0.0242850952642755,0.000634574512691691
0.0032588102453487,0.000875319171773414,-0.0263251003451932,0.00041815545939499
0.005281832152959,0.0151271321190128,-0.0219326341852973,0.000693520602313039
0.0105197896046444,0.0337086605889877,-0.0154842784891196,0.000559944869915104
0.0236120242522052,0.0444810288038515,-0.00964809461800745,-0.000372060179494643
0.0466656264079371,0.0431651139093062,-0.00425030014558108,-0.00125836832148268
0.0659964931995171,0.0356895199419962,0.00200695838880164,-0.00121252646259052
0.0643240843008669,0.0278180639177598,0.00759811312651523,-0.000190082482968981
0.0393794357732753,0.015750305268321,0.0125512137160987,0.00123972884488547
0.00546989164641185,0.00393684445047799,0.0187586106491873,0.00264126653846789
-0.0123548938148822,0.0019598174683813,0.0229334925793381,0.0038419129932073
-0.0063387340699626,0.00294357308513701,0.0235229578883407,0.00445110521560282
-0.00631803312094622,-0.00462482924334136,0.0237899169510081,0.00419818637266144
-0.0410604460182054,-0.0056547260115304,0.0253784710966673,0.00331387593705811
-0.0828718714596988,0.00787432630908724,0.0318513760462564,0.00206455787543522
-0.0724846569114315,0.013845694247607,0.043027744081329,0.000592304004348006
-0.018968126524017,0.0135863860923235,0.0484939568848219,-0.00083748871287084
0.0126912718556734,0.0204338513990172,0.0457244104850256,-0.00183180303579684
0.0133267386374442,0.0363644034773151,0.0404838173454505,-0.00217667839758245
0.01242600832089,0.0645201598497901,0.0312175641033745,-0.00197497704925455
0.00867952833005907,0.100410364150432,0.0189656048726585,-0.00154285703168753
-0.0115591370836834,0.125809776683223,0.00869942352084263,-0.00117923245384476
-0.0306991990677929,0.115164564486028,0.00150393007233307,-0.000601524627337058
-0.0236515183808014,0.0655205423068845,-0.00098840779332867,0.00035169488513812
-0.0076174970809058,0.00763865377070816,-0.000781556013196364,0.00115243496178196
-0.00980554756637616,-0.0153983564770911,-0.00510798308124809,0.00154053337141433
-0.0275510411708993,0.00276955967660281,-0.0144349327684757,0.00166271724345203
-0.0449035295630451,0.0146047127384783,-0.0207494339047978,0.00161390525387724
-0.0534817491446595,-0.0124170249017408,-0.0171963509853028,0.00141315579632303
-0.054745383250029,-0.0691547260805817,-0.00575248517408414,0.00116427650788212
-0.0499127411890404,-0.116720746154389,0.0047687544017228,0.00112846715357225
-0.0449459021144986,-0.112169722338327,0.00967479943910553,0.00150830904381995
-0.0406946342187464,-0.0728679157279726,0.00993265746352984,0.00186884588967193
-0.0252551089549193,-0.0410406774340897,0.00806506567264708,0.00168652809310153
-0.0064089673908953,-0.0214380633361273,0.00356051265107982,0.00120318911378392
-0.00135704377299914,-0.0123273017407267,-0.00511249783007238,0.000648422812934239
-0.0107549356514584,-0.0216349928269883,-0.0107527907457059,9.61342599807647e-05
-0.0228400043377982,-0.0435812749212695,-0.00611486602401375,-0.000317037496046249
-0.0175936953285799,-0.0524352298644211,0.00484530001965651,-0.000705525958471731
0.00634913464150409,-0.0366623907787888,0.0136136283246636,-0.00101629455455832
0.0176187617015495,-0.015908958790475,0.0163044951188744,-0.00100422650861041
-0.00106552368396266,-0.0110601922609048,0.0158537655682387,-0.000656160233030862
-0.0118628195396252,-0.0236153296983823,0.0159884715362136,-0.000242526024906332
0.0245079421502135,-0.0393854692623012,0.0166360219623237,-0.000119797903140023
0.0766169882379156,-0.0480892211968729,0.0158761899041664,3.79532338291442e-05
0.102332136782549,-0.0497132167917908,0.0128118498192327,0.00093620307982788
0.104418195557732,-0.0449827192003456,0.00806942735566456,0.00223792182071148
0.0810314776593729,-0.0376272937031536,-0.000754808356694781,0.00301608036743011
0.0347144507080876,-0.0329895254557746,-0.0129786810986909,0.00298809454173406
-0.00867344279411283,-0.0268376943415464,-0.022898387818044,0.00236096943389541
-0.0379629196505938,-0.0199743579925735,-0.0301228250565397,0.0014710804575845
-0.0671742738827215,-0.0233779060223154,-0.0316555830092653,0.000850245232681315
-0.103583509701337,-0.0155919706753479,-0.0231465253194354,0.00066529194091454
-0.121918837089418,0.0250337009759169,-0.010879538840267,0.000599018537847918
-0.0936868409763441,0.0511512978817349,-0.00434490534557077,0.000677654057130324
-0.032119202345076,0.025884485086461,-0.00488896145465097,0.000753871007803477
0.0207802227112605,-0.0129189242168048,-0.00639094131698607,0.000244106284836816
0.0460482616584945,-0.0388192426447013,-0.00435532036587517,-0.00073612435475832
0.0566795271595725,-0.0625605857534888,0.00250809073653981,-0.0015209034521486
0.0606283612170993,-0.0818112325838267,0.0114594933854642,-0.00190685590255137
0.0558764612661244,-0.0886632214149465,0.016317183110566,-0.00190739608031556
0.0491193405930593,-0.0903206363632407,0.0163068380490565,-0.00131179319742076
0.0451922979777364,-0.0942485155494134,0.017309251438009,-0.000241524031317217
0.0458271530116397,-0.0961747771715312,0.0209616889823759,0.000919509126298292
0.0638625822443653,-0.082493168214913,0.0218687695233349,0.00190581681065325
0.0968419034337695,-0.0452385863235836,0.0208595894653169,0.00238568404040188
0.117069521652848,-0.00636194313076063,0.0200428205691994,0.00207843588060903
0.116701033348272,0.00493499111623079,0.0170678563268935,0.00134699851883863
0.107908969159208,-0.0101682379757211,0.014152328880259,0.000906661898667816
0.102163228294024,-0.022472163147102,0.0118714758856363,0.000841374126710019
0.102725255562762,-0.0122092064926849,0.00718206580727089,0.000985111684896784
0.0901877323572526,0.00709250085330673,0.00233339810483915,0.00112262235004627
0.0498281954388692,0.0133061673705147,-0.00251508649818369,0.000704993916064128
-0.0158237173605154,-0.00288581330817465,-0.0134116082599559,-0.000302277701419154
-0.0914298126903924,-0.0143026240044907,-0.0262874283996668,-0.00120936527622454
-0.133188072294181,0.0168958275092759,-0.0279593349004254,-0.00151591744153593
-0.106547438028507,0.0633864438127063,-0.0215061772709143,-0.00109529919009875
-0.032037894872742,0.0840759534324157,-0.0194924909060141,-0.000405508975310112
0.0346123034488618,0.0875397105759606,-0.0172831352495984,-0.000353132127587737
0.0564920396478618,0.0718972771222023,-0.00789168660787511,-0.0010225973058528
0.0393451306048389,0.0166425715967017,0.00406210433108962,-0.00173732673654573
0.00995704997854649,-0.0574114779843172,0.0107765751556755,-0.00188487054465165
-0.0116796184233318,-0.0921734051575989,0.0060253334768173,-0.00133040142944714
-0.0245902681567004,-0.0613532262727446,-0.00777689859346604,-0.000626969238571126
-0.0282118452608082,-0.00762610939084609,-0.0210194486859431,-0.000334869557474387
-0.0158381343334434,0.00975348217477581,-0.0229874642129092,-0.000313281135071714
0.00543303171878556,-0.0108359253334036,-0.0120623104050165,-0.000261523310795854
0.0206816311082614,-0.0274005305887656,-0.000736451502253793,-0.000359611655592073
0.0239736890536623,-0.0235070021673536,0.000697072190873324,-0.000624413401147029
0.0242045185480445,-0.0158837991051781,-0.00523703019486734,-0.000585889611094782
0.0324979397353841,-0.0149159464593401,-0.0133001251423333,-3.90014331631961e-05
0.0430098026296327,-0.0169894260634406,-0.0221629325790647,0.000858223865579916
0.0468237814664606,-0.0209980048356537,-0.0265897816356787,0.00159727217373352
0.04938840815145,-0.0294266737577812,-0.0246618353539032,0.0014849420753349
0.0500758002915647,-0.0379514039211475,-0.0205854519356523,0.00066618911271931
0.0342014053017058,-0.0412383810667668,-0.0116292232431034,-0.000362834166660192
0.0049141187742158,-0.0411100600494922,0.00238311014075935,-0.00188777950688987
-0.0192412573488858,-0.0427437430621134,0.00949243582678432,-0.00372333212874511
-0.0348735224567071,-0.0363306106891344,0.00480232014618857,-0.00445284435312672
-0.0498707762623743,-0.00475193133053789,-0.00356926352528297,-0.0038758949787001
-0.0626975515720638,0.0420926533358082,-0.0127431896970061,-0.00319510951656644
-0.0617960092026786,0.0726294004625864,-0.0189062680615149,-0.00267316925997705
-0.0467750827663282,0.0747570448214606,-0.0144758288524152,-0.00188277877342229
-0.0299272050444885,0.0722305917079725,-0.0054582553585068,-0.000755764913793429
-0.0114573192395907,0.0705619237190104,-0.000836813429960893,0.000575457318950407
0.0155246790002475,0.0420981163768912,-1.68606679227731e-06,0.00189068607890198
0.0402859789637613,-0.00246650224557467,-0.00109850954923643,0.00279854136419629
0.0494041404943481,-0.019891245367232,-0.000775757915164613,0.00307947712483652
0.0460173457735535,-0.0079144769663924,0.0036002153925401,0.0025912912366853
0.0356444293748072,0.0138237433261825,0.00529150100349795,0.00144613152454941
0.0230054268338217,0.0445900168327326,0.00238159183355861,0.000386561887584881
0.0143167485496549,0.0691882362865182,0.00840235770861934,-0.000256360165235496
0.0129012187559267,0.0550084826587499,0.0289062876051539,-0.00106026176373362
0.0287996482681968,0.00781834534260231,0.0462455316079232,-0.00238021085242768
0.0506752523877795,-0.0321975976520834,0.0443291842605512,-0.00371465944534323
0.0409428496882996,-0.0441141145295718,0.0295849890929645,-0.00467237045259097
0.000445590036171117,-0.0474811319747937,0.0145914591485325,-0.00547980263662967
-0.0389685755948761,-0.0624266707124629,0.00131540894841762,-0.00591682453775659
-0.0591349992378889,-0.0666183994796086,-0.0107300476044991,-0.00521734691597442
-0.0587578748827764,-0.0478128682378236,-0.0193351998699321,-0.00330684838194761
-0.050698293765227,-0.0363330380317251,-0.0274456780435391,-0.000960078622598289
-0.0473968363356648,-0.042758799302272,-0.0357307430840455,0.00127892588823175
-0.0593091517566476,-0.025788869401478,-0.0403645159503724,0.00310902623070405
-0.0877994482111507,0.0600762280153807,-0.0397255630325986,0.00410811055954665
-0.0816939874400233,0.174998386208119,-0.0304441785001535,0.00415381473520808
-0.00394748079971809,0.228737956119825,-0.012138185229219,0.0030990098820948
0.0778510709531297,0.213765837009128,0.0072542626500741,0.000867286025939194
0.0995976846156135,0.178039204209838,0.0214438629586237,-0.00169646244190108
0.075426285129563,0.130832923236097,0.027772913650355,-0.00308133920779069
0.0284479428317414,0.0625116981822805,0.0257965733855821,-0.00235592678088245
-0.0217777753826589,0.00565260077703936,0.0216739774271734,-3.76898615635076e-05
-0.0474236721255296,0.000909110012005665,0.0228384600323023,0.00226505842303848
-0.0436792880334006,0.0306906942025372,0.0305512786477475,0.00310788596604444
-0.0339832597616498,0.0464364123448455,0.0347609518993509,0.00215018895383019
-0.0367655328573857,0.0175833424822407,0.0276410101149221,3.23518210551318e-05
-0.04506564101547,-0.0384756102324613,0.0129676151663541,-0.002204075435879
-0.0467012361551134,-0.0667618804421967,-0.000373283484916904,-0.00360885534937152
-0.0404316686086681,-0.0433434753808628,-0.00422160472520052,-0.00389544066243656
