-0.11202813021611,0.0110205863679978,0.00350748919333058,0.00128529264578584
-0.023469882020037,-0.030150334806342,0.00897872699146342,0.00222272580146586
0.0588764988978825,-0.047810332541811,0.0107285145865367,0.00267854196429391
0.0963030810372036,-0.036451435926416,0.0144986668476076,0.00266376281853799
0.0986165164536327,-0.0195618873731264,0.0171139349553344,0.00211740502672296
0.0989561846450733,0.00128757768447388,0.0140996510212697,0.000836989583937742
0.108504691660525,0.0214604908087173,0.00284834177722618,-0.00100739214333574
0.0996149471744063,0.0317918162032849,-0.0166279178873581,-0.00235008781603448
0.0472776347778747,0.0342472328471998,-0.0267615322153612,-0.00244908572885404
-0.0250466677778831,0.0422856817047457,-0.0126844687020204,-0.00208111114291576
-0.0669591756599344,0.0712013570377268,0.00738113721667907,-0.00253007781649215
-0.0579070597472122,0.0933262652972347,0.0161279048183308,-0.00364650011905083
-0.0236171901115123,0.0670029668637078,0.0185034063426905,-0.00429728161566382
-0.00728279227854074,0.0051582854560952,0.0185411940163522,-0.00424256951795097
-0.0395863650666772,-0.0447996473211971,0.0156399707876988,-0.00411555151639868
-0.10599813782923,-0.0585386470909288,0.0131636452531846,-0.00399827048709069
-0.148183237548256,-0.0429987288082228,0.0142528434188003,-0.00340733088243858
-0.126464470897057,-0.0239010116555408,0.0148552102696903,-0.00226191260423912
-0.0637940929379105,-0.0264479870998225,0.0104467236764308,-0.000833721961690507
-0.0173313937748398,-0.0449456566497983,0.00477663427378108,0.000627495402133477
-0.00377481080444558,-0.0516074808554599,0.00590228087944987,0.00189504153693278
0.00673506803859968,-0.027212730671067,0.0141442623080338,0.00238030257241802
0.0245343616559626,0.0111805093148139,0.0208725071268032,0.00160165483102889
0.0405128619928221,0.0334860627030869,0.0218763705918756,0.000132009606075874
0.0486756282978433,0.039566331695246,0.0205995106343983,-0.000895819238284492
0.0367293468090469,0.042635944619939,0.0184329281898665,-0.00119901297614725
0.00443826086728061,0.0503329388737294,0.0160857788222998,-0.00131425507657556
-0.035760074710622,0.0535013758401134,0.0147299531674139,-0.00166090922130942
-0.0779270845086503,0.0341242488638533,0.0130391287139056,-0.00213016442539453
-0.101731691527769,0.0058340369190692,0.0103792402595337,-0.00189970789701427
-0.0915319667887017,-0.0060358797210054,0.00850298822917517,-0.000527665929119578
-0.0652903461392753,-0.00937609759337073,0.00862900595785271,0.00116302208074635
-0.0355565622220602,-0.0181715811836376,0.0104842699227121,0.00212045086920939
-0.00074774627828288,-0.0242467395594856,0.0151222160169328,0.00208661157585966
0.0264161467796761,-0.0286539470616745,0.0214476975305601,0.00124187067661452
0.0360595426995888,-0.049812640954926,0.0237644696821242,-0.000121365998170328
0.0385186210342843,-0.0938158739696139,0.0157278018638504,-0.00117245250387424
0.0376756385597853,-0.145081902116489,0.00527588629122162,-0.00132895531187239
0.0359714601256399,-0.166406453448753,0.00808541991325326,-0.00078464800977649
0.0199231117380977,-0.117986439870825,0.0168356175782806,0.00023224494696206
-0.0283426988480553,-0.0194030962957277,0.0177161348093637,0.00131924803636575
-0.0624527493324979,0.0459921615075427,0.0135506802579705,0.00182582232306994
-0.0431396227169008,0.050630299612177,0.00566374163108561,0.00141269208717431
-0.00743627007550117,0.0502534439107322,-0.00991778666815191,9.92510618361333e-05
0.0087540695559336,0.0651364021400014,-0.0221630519257727,-0.00196929023101885
0.00455175901296906,0.0648640002052462,-0.0215274406092248,-0.0041532668635413
-0.0161525813906483,0.0370083658252614,-0.0200175597542378,-0.00545598780780294
-0.0371941254996761,-0.0129220704378108,-0.0313411610294245,-0.00555322068186728
-0.034590363081271,-0.0629915652096979,-0.0570364389660028,-0.00467098592932196
-0.00691786709021917,-0.073322310425951,-0.0818682583681623,-0.00275016250067878
0.0274026184814882,-0.0274125248049175,-0.0852084927519404,1.73030354517724e-05
0.0529782533892545,0.0379417006249877,-0.0610401792608283,0.00245128433433816
0.0626779079241555,0.0616525275079856,-0.0250101590875056,0.00345509320047174
0.051441897911001,0.0273200065688697,0.00236105902902391,0.00328446122545937
0.0254129104888694,-0.0305168924498848,0.0204879378599879,0.00390295957340512
0.0155129990523708,-0.0630878592551128,0.0357973317292384,0.00773672284226284
0.0430323676194637,-0.0520043221352922,0.0431488241821132,0.0135620999913384
0.0796284414909938,-0.0286740488213411,0.0397860188213872,0.0157232841586361
0.0866460874752391,-0.037151074072909,0.0326516888882107,0.0106489166308663
0.0555136606431064,-0.0802854099731699,0.0219657692613969,0.00116810914559782
-0.0186699249652026,-0.0883953980359193,0.00286409944580894,-0.00711800206001718
-0.113916076139294,-0.0173068848358543,-0.021326883606914,-0.0109696522915972
-0.147521588484255,0.0672749720909757,-0.0403235555613776,-0.0105715391052823
-0.0818271232899332,0.0968488869952847,-0.0424134785527434,-0.00766532030171023
0.0226297669489028,0.0784885446497886,-0.0283263281919561,-0.00420732646110787
0.101218828776854,0.0474501512605952,-0.0118304129101655,-0.00163951254717021
0.133029779962943,0.0316911613616816,-0.00287882284898205,-0.00016776613786349
0.121499323448998,0.0360675779822,-0.00143255388538732,0.000752902901711665
0.078758319118324,0.04469497063275,0.00131813482831188,0.00157998158870206
0.0272537569857566,0.0456256109622801,0.0114607491529688,0.00225174664576409
-0.00636216941339153,0.035574375416115,0.0258403607023792,0.00255829642277412
-0.0196946351864409,0.0123872216045736,0.0354884009061706,0.00256979019394856
-0.0359941337313869,-0.0151894663907826,0.0353421866189453,0.00262213039696473
-0.0741090674929403,-0.0253574322390372,0.0330296519987373,0.00336644376301266
-0.129072087316215,-0.00470877148988343,0.032865344842308,0.00472700387731839
-0.150247116486976,0.0313595006878264,0.0342689154373321,0.00526872386458495
-0.0780570719634317,0.0480405391179188,0.0382352404270031,0.00365964078778396
0.0412036299624341,0.0368565106106139,0.0415403901382148,0.000421862538631603
0.0907564546494298,0.0196984682917806,0.0424624365797578,-0.00242907770440899
0.0532483725503491,0.0173380378727915,0.041241375973494,-0.00358135392986034
0.0132748737423556,0.0390161035315699,0.0365947936235351,-0.00312406249739802
0.0171298976395413,0.0653678220812641,0.0293675753915614,-0.00156830246744113
0.0327717793894725,0.0647926979729206,0.0187776315540851,0.000449922190363527
0.0370982822624068,0.0398593693302293,0.00512621858872604,0.00206791933806916
0.040768323941882,0.00937435569578021,0.00101412680017954,0.00269060704227036
0.0534830124095426,-0.0238905038771677,0.0101051192955081,0.00262388980124177
0.0775767769992782,-0.0487430629204616,0.0166658682764872,0.00251703408578278
0.0912899042659096,-0.0257723021018452,0.0154780612988445,0.00228461440757468
0.0841606041033538,0.0507136047851005,0.0128261857043842,0.000886285968617827
0.0724100021988837,0.12145547960271,0.0116453240914559,-0.00211150098542331
0.0519447369525784,0.156206458578371,0.0110251197176262,-0.0051046398198732
0.00518470164651436,0.159845042328293,0.00587024228365258,-0.00651019831133743
-0.0600947520973543,0.116655645518214,-0.00172986972466934,-0.00658616224732851
-0.104153299402993,0.0343747673786911,-0.00287241141280632,-0.00609121927018785
-0.128832182404548,-0.0449078096537205,0.00412298731916663,-0.0048182723975354
-0.151206618702796,-0.0741507848633797,0.0127282092847056,-0.00184549306819743
-0.12149269116634,-0.0407148053364409,0.0135253546081435,0.00239044863210829
-0.0388062948922979,0.0028099113397597,0.00712760974971303,0.00552066460894573
0.0193971205619759,0.0112943305431561,0.00346991657226946,0.0057085420768005
0.0301892403357217,-0.0220956328404768,0.00826803413962916,0.00317487429763692
0.0287997383409981,-0.0867158257204589,0.0210000322435906,-0.000435484259254494
0.0317705155402832,-0.128108128191174,0.0339093718375961,-0.00331448121745908
0.0308165346346272,-0.105121641516944,0.0395118496967749,-0.00462378302565631
0.0272001860423278,-0.0496379380425062,0.0363201369013359,-0.00457083994414369
0.0330246847073892,-0.00954400041909392,0.025605480462521,-0.00346930759219117
0.0543933982987706,-0.000522622361499081,0.0121302970922317,-0.00151170299942948
0.0816705172666586,-0.015501440225702,0.00285015806285388,0.000592403862857444
0.0846195285980384,-0.038822904533313,-0.00163539032817441,0.00175242055715013
0.0461307921912026,-0.051146967149655,-0.00919424696016048,0.00165204753608523
-0.010673455299745,-0.0382636071245009,-0.0218709448099875,0.00126722156649269
-0.0458991156922952,-0.011296360263264,-0.0332752164260319,0.00147725098732139
-0.042031045735267,-0.0010436325874907,-0.042449532159088,0.00181909430747262
-0.0349918005091123,-0.00103394522508811,-0.0533425189622585,0.0014845635138532
-0.0730630722844196,0.0181034348840497,-0.0609488811254654,0.00049608051734834
-0.138385415048406,0.0424791808329162,-0.0559212568886833,-0.000482981704308205
-0.160787963279109,0.032458305016674,-0.0385835287021438,-0.0011864311044188
-0.119023672143579,-0.0165309398925572,-0.013887474088276,-0.0017539406054994
-0.0695278909201927,-0.0594240247426179,0.0157025783894909,-0.00168412724860873
-0.0512614373762356,-0.0775276383411624,0.0435972460580206,-0.000583091030610755
-0.0536964468192519,-0.0892802342671144,0.0595297246664091,0.000867296483577844
-0.0520790510623879,-0.0935930286150198,0.0625540553243463,0.00185685643786378
-0.0232131544994058,-0.0860228120005079,0.0614878606387941,0.00221416653329954
0.0318642417259229,-0.0712354102529626,0.0587464814665216,0.00225125629558384
0.0835024975939518,-0.0597258677268791,0.0463517998259174,0.00230827770011845
0.0970338426404268,-0.0558371553163925,0.0220126932088329,0.00218183439995045
0.0790249474495583,-0.0496427544023188,-0.00655354998205158,0.0016064176130841
0.0661613937953398,-0.045642138011787,-0.0330802516946564,0.000853223345457859
0.0727466156204678,-0.0483396756642014,-0.0560697690399012,0.0004910049182207
0.0782662930262125,-0.0405993519665975,-0.0741179002247629,0.000906929337841974
0.0596739042094255,-0.0186582103896707,-0.0861802307483479,0.00187094478548476
0.0264774035172001,0.00146339071576032,-0.0882223694641031,0.00263183427227777
-0.00925240473408695,0.00184794434628722,-0.0697830691157691,0.00208595748947554
-0.0483416425658642,-0.0212431419456303,-0.0352350827253188,-0.00034253589984599
-0.0901688231765479,-0.0347961555663788,-0.00504982539109478,-0.00332990973734824
-0.129120006019072,-0.0254569021217413,0.0135277453447536,-0.00485156182912349
-0.134895029548151,-0.040094761272314,0.0240602146601339,-0.00411031108176931
-0.0937147187770212,-0.0850976350150564,0.0283104264291845,-0.00159018724102221
-0.0449321090690863,-0.0990073685991272,0.0311370934531277,0.00147301016246506
-0.0198024803808662,-0.0626042879507156,0.0362289397251275,0.00400603554860809
-0.0234128103520458,0.00569753617268597,0.0370409809836005,0.00559625149383586
-0.0409495427888266,0.0849754665204677,0.0292875393596727,0.00616607956812365
-0.0355350787822449,0.126705616954741,0.0221420315878603,0.00557939779098321
-0.00146156071880855,0.0980080020186611,0.0155976409186158,0.00376631216453945
0.0310271947700719,0.0261112006900492,-0.00182476250673551,0.00133906256186845
0.0490522674102467,-0.0177648114133463,-0.0295705814561923,-0.000136251318184754
0.0700010757306454,-0.00455943369267578,-0.0547798049433677,0.000360791085379807
0.0900970366657347,0.0267506772583159,-0.0666805687030989,0.00193526830058499
0.0736244868265276,0.045870159475111,-0.0688658082409152,0.00241050338681479
0.0333088141060703,0.0494472264106965,-0.0645268234633922,-0.000302395390454479
0.0123677448432622,0.0377997472134519,-0.0530033288199399,-0.00564965913358359
0.00654462396479619,0.0210685177944547,-0.0422643530621481,-0.0101761889079895
-0.00184190982976824,0.0110919063199006,-0.033291579734094,-0.0111621372277475
-0.0109344595588534,0.00828252421909245,-0.021809045801847,-0.00867393285183245
-0.0176229773479681,0.013730639651722,-0.0116673698284204,-0.005046657323886
-0.0228589577968034,0.0252512984249614,-0.00691802068361014,-0.00264739046074243
-0.0258560564754668,0.0348151603019363,-0.00561463136352147,-0.00173792775291389
-0.0218581286938813,0.0366859975508413,-0.00391327494873016,-0.00163192216653339
-0.0173595868208906,0.0350510490488285,-0.00204984844414228,-0.00204034905278084
-0.0211973320859434,0.0374506362741912,-0.00650030684447902,-0.00205117846785094
-0.0250100508674371,0.044473011947456,-0.0215842836100557,0.000706010788722832
-0.0205857706661655,0.0555231942458837,-0.0368878508991323,0.00719470762195651
-0.0106752519409064,0.0616880903614059,-0.0391933063293843,0.0136056182968188
-0.00172563850064609,0.059701247111617,-0.0297726228663688,0.0150672440694873
0.00312122831384846,0.05874246873705,-0.0173888109898382,0.0111998146408135
0.00583606549510952,0.0559487684752249,-0.00773165968757299,0.00518993909846831
0.0053240702359047,0.0457577999323653,-0.000748191381590987,-3.64324350019679e-05
-0.00338367265204659,0.0336213118877534,0.00419377862434635,-0.00347737783864077
-0.018718137053834,0.0347862818274168,0.00511917990207757,-0.00567971465507742
-0.0297635219480822,0.0468528253922536,0.00334628068167918,-0.00753230074481247
-0.0297554608551917,0.0476909092079618,0.00542575780598838,-0.00882063004859489
-0.0290193542245943,0.0355550694982249,0.0151739161602253,-0.00897841318523643
-0.0298176125753635,0.0140250733631913,0.0255828901485372,-0.00844637149413722
-0.0201606845912019,-0.00613305388955919,0.0280776240831391,-0.00774756303998196
0.00279625101107549,-0.00939085059849375,0.0246637666846011,-0.00667218345535068
0.045625275293385,-0.00264179966189004,0.0201279769257348,-0.00501748145856481
0.0952644471554467,0.00604807423352596,0.0173819489704816,-0.00313117548970916
0.115218444905682,0.0116343569140418,0.0163330325810818,-0.00138321819726386
0.108150351101492,0.0114019617200842,0.01042274688884,0.000261734611975447
0.099746809781291,0.0252149614527961,0.00286589252113487,0.00226739091706319
0.0959615631332925,0.064255420811477,0.00472031438184537,0.00472670082460548
0.0837729810903297,0.0849972873335718,0.0108096213525186,0.00683465763375579
0.0370485957081082,0.0460055286414359,0.0113317418394536,0.0079009257920209
-0.036201057579065,-0.0158118951291189,0.0106540003995547,0.00800542539264201
-0.101992857583512,-0.0377305802135788,0.0145022234679449,0.00780164006051045
-0.155715532592434,-0.0212346171864231,0.0185217838282312,0.00748174803448384
-0.166949901584343,-0.0265619013797997,0.0157654109420206,0.00595940763106997
-0.107257306194202,-0.0838037123880378,0.00077456227724608,0.0027977307565883
-0.0273938107696935,-0.124014899149264,-0.0178203540292554,-0.000601179327986184
0.025564360429588,-0.0889751044062355,-0.017174179579341,-0.00307674280579699
0.0547139613581568,-0.0335335769183558,0.00289115142606854,-0.00479838587251812
0.0761171291055177,-0.0121886950981535,0.0216062915377433,-0.00624875084248026
0.0904863867618833,-0.0107915931808824,0.0269610532542867,-0.00732003435236811
0.0880033492806764,-0.0105449185393544,0.0225120452829799,-0.00721808178733829
0.0731146266954067,-0.0124461147505228,0.0174236312490043,-0.00512969621152413
0.0619671567590007,-0.00936691806353446,0.0135960369889217,-0.00123880603657406
0.0612884038207434,0.00212738688765386,0.0110635756530691,0.00263853810960048
0.0503584543649269,-0.00258087041942637,0.0114944612458795,0.00457172894969619
0.00992086192234607,-0.0201878122816377,0.0143336600041582,0.00431579222522846
-0.0456919469758111,-0.0158929664417184,0.0172060092729192,0.00257012564468251
-0.082717315303699,-0.000755965305612234,0.0188926133145707,0.000427752674914677
-0.070256065052712,0.00253715646345989,0.0150397065520052,-0.000781840087151689
-0.0148887786660127,0.002460237625361,0.00174251448852997,-0.00045263618742881
0.0366177060658442,0.00136838074357466,-0.0112962328100796,0.0010234689337985
0.0610582903651379,0.0001374643355797,-0.0170175821622629,0.00233777704703375
0.0767538933727794,0.0063622711508298,-0.0189228258329419,0.0023089271039126
0.0899641194122388,0.00785215294219056,-0.019619164009626,0.00160017501396283
0.0827485279681467,-0.0193848488941571,-0.0217312071297835,0.00135718704736752
0.0436374192798995,-0.0681917350486526,-0.0247142325561759,0.00126909395849786
-0.00992762314843167,-0.0867793612126662,-0.0220473204526278,0.000563819424635735
-0.0363864072678286,-0.0515216794671372,-0.0107223997658935,-0.000694633300908698
-0.0326946425446595,-0.00450001963794368,0.00377477448064018,-0.0017929826446288
-0.031955663320352,0.0197227013364136,0.0128946965137166,-0.0024252554377871
-0.0355616141761191,0.0141525608898969,0.00871961127679184,-0.00253579673276216
-0.0317202084432675,-0.00662236800270473,-0.00552092679803359,-0.00162223460150857
-0.0261101158380112,-0.0225840190784203,-0.0109898048583901,0.000521288936688691
-0.02701768535872,-0.033696224055202,-0.00351613700472199,0.00267831449242712
-0.0283611315370373,-0.0455348879364018,-0.00299761144398556,0.00330262710685716
-0.00551567018040843,-0.06529571486753,-0.0143064988090973,0.00258047574034197
0.0557415775475119,-0.0789026584051808,-0.0258567368283577,0.00191252895340932
0.124382406133349,-0.0698168222165148,-0.0340371325190372,0.00205190410033749
0.136006437812342,-0.0525002839470432,-0.0393868761143428,0.00251028856362805
0.074158284049892,-0.0382876873549554,-0.0402185058683665,0.00262259340720997
-0.0023719471317975,-0.0172195940977301,-0.0352934995628276,0.00177973783214516
-0.0475341815810928,0.0170893363184264,-0.0292989010566003,-0.000482148001894572
-0.0482751284454574,0.0501045206341383,-0.0254641528257363,-0.00282141652322437
-0.0230994682098851,0.0496825679744139,-0.0204895871250137,-0.00314892609060795
-0.0351131889824961,0.0202040652962248,-0.0144284625379902,-0.00150292011933684
-0.0935580613892669,0.0222321025120501,-0.00874570710258525,0.000354445465303316
-0.114340089378927,0.0589744540381887,-0.00604590488996659,0.000848914218198762
-0.0548418578844061,0.0662784151102011,-0.0115147464566121,-0.000211505259783805
0.0161088745288264,0.0361066522599175,-0.0195514248210173,-0.00148926933592211
0.0425314731975936,0.00361998103520335,-0.0169346594062865,-0.00206071561252308
0.0482502403640102,-0.0213190200251485,-0.00312869427799468,-0.00231707387810798
0.0446785579662121,-0.0285886897123971,0.00903250931633452,-0.00239095910920771
0.0209364204288122,-0.0111191864715666,0.0113210018651139,-0.00186744430562745
0.00406002307138773,-0.00114065600977585,0.00673383921616945,-0.000843704435735687
0.0116540211567569,-0.0188549561371551,0.00319419047781856,1.89020398068652e-05
0.0219168648346025,-0.0338226031167668,0.00701461838568357,0.000330579659481894
0.0188931076031099,-0.0215822112306593,0.0158764260613072,0.000280444331981748
-0.00436168477519395,-0.000402521593929023,0.0238718712588336,8.45257250883461e-05
-0.0463901088992578,0.00403021805465654,0.0297609449285873,-0.000490570627981576
-0.0806364598554308,-0.0065773775289119,0.028864426225645,-0.00164834972892052
-0.0863913631977281,-0.0166897026838825,0.0145285309764835,-0.0024221085351764
-0.0689084383631826,-0.0197091007913268,-0.00710951827297409,-0.0018418611591951
-0.041684686937523,-0.0121857469823338,-0.0250886163258898,-0.000771363708404313
-0.0229462454614312,0.00907492977517013,-0.0366119579709791,-0.000287126768197817
-0.0198804288707795,0.0319180285263623,-0.0410959995294441,-0.000177472391162163
-0.0156480210800512,0.0471722999044758,-0.0473720063325076,4.45718321480447e-05
-0.00424667263254608,0.0625087714998368,-0.0622313990561726,0.000433101930118681
-0.00751459225156028,0.0766923173499622,-0.0671498330572703,0.000653459643833068
-0.0327556827391685,0.086947187146745,-0.0516456229148146,0.000242115268279545
-0.0503015899106369,0.102078805385703,-0.0322980403839684,-0.000793864286155442
-0.0359321531048086,0.119774230515842,-0.0227930404489084,-0.00208996618414675
-0.00442798776752699,0.129840264151067,-0.018976014904103,-0.00333102312560989
0.017027356117961,0.121044794556021,-0.0142048896434424,-0.00423899696459507
0.0165665319628581,0.072260549461079,-0.00939204823476614,-0.00442603229926512
0.00372116390904736,-0.02197875388134,-0.0037326881176168,-0.00349478501070271
-0.00594554779150384,-0.126240232989281,0.00321676753242749,-0.00163593683969233
-0.0164941048321764,-0.16440517152179,0.010877892738027,0.000240993250147078
-0.0247989320878782,-0.117935076659786,0.0233753186663949,0.000978967320012257
-0.0147296745445487,-0.0577020751677178,0.0361748946207142,0.000403521341182956
0.00329069723642247,-0.0141052820745391,0.0344380499043883,-0.000327938149615564
0.0150306375601967,0.00885600352681913,0.0214810517019094,-0.000138457299460055
0.0205283526250765,0.000841802368706471,0.0154443903911135,0.00090729594595699
0.0122782168870198,0.00705929487169375,0.0192437102722274,0.00199705884770317
-0.00701603477004521,0.0513796069461953,0.0263238713478965,0.00220957247138364
-0.0198802458542809,0.0689874489388985,0.0300885711309892,0.00115495436647514
-0.0162799542627386,0.029159085643731,0.0178739959115472,2.69364958156511e-05
0.00587244831477356,0.00269365355771899,-0.00603415494152053,8.25529688314106e-05
0.0331634170770875,0.030268735347504,-0.0179470805987131,0.000793921057830508
0.0423943912285129,0.0535013170779049,-0.0124735815955099,0.00109870714842235
0.0245135152472263,0.0308980689814332,0.000420927030877503,0.000790370507204188
-0.00172054734216251,0.000513288677315865,0.0128509887403221,0.000131490477629837
-0.00553908191927027,-0.000870996889247355,0.0142997559214649,-0.00077627170286118
0.0134103991436837,0.0268070370296354,-0.00564076128692653,-0.00159713570523667
0.0320348995021501,0.0718833107556894,-0.0357282686428359,-0.00170643391017933
0.0351784853482297,0.099592923413221,-0.0462832093589208,-0.00103971482890618
0.0223001008073312,0.0833068321195533,-0.0309146844641654,-0.000342335251332938
0.0102418412535178,0.0396555802268333,-0.009434227717695,-0.000239197616698015
0.00835454704403777,-0.0140230610152454,0.00516547613773632,-0.000292264019938715
0.00274994793614252,-0.0787384374459615,0.0121390828863259,0.000522673520138286
-0.0193452533013835,-0.136224912583867,0.0156520595564366,0.00240540823144469
-0.0446378397869596,-0.145260410979717,0.0230801066372293,0.00418295551800826
-0.0480262311598512,-0.100517537657589,0.0366849474148693,0.00458518377181922
-0.0267673975977466,-0.0481086598790354,0.0561727833853888,0.00377373842203343
0.00840661033412965,-0.0220212059135661,0.0777670251306929,0.00267690775753623
0.0424375418447952,-0.0241893637142013,0.0904159097748953,0.0017788378697978
0.0523205662409056,-0.0349746888791489,0.0929848730343279,0.00150901526734794
0.0477669690823469,-0.0227852696688284,0.0931060101747607,0.00202611036121881
0.0614118357278365,0.00303999066042442,0.089094416822564,0.00230769229157406
0.0816379555736685,0.0106358344634678,0.0761312167151515,0.00120646629861468
0.0834375229330947,0.00551007006091244,0.0601856485244135,-0.000806712907249211
0.071772341364967,0.00407727828297222,0.0472835286737218,-0.00222498550479677
0.0534447201667163,0.00676589340908872,0.0351044730533683,-0.00253390369516321
0.0301704756250823,0.0110126824220534,0.0226121814608101,-0.00224004891108457
0.0069534760553881,0.0184424416012187,0.013576928451823,-0.00172513554691222
-0.0178531995670692,0.0210940059265856,0.00895442018880125,-0.00139433865768834
-0.0441490269165898,0.0126918514582017,0.0076206113268964,-0.00150975095777392
-0.0639351459573283,0.0165940668790945,0.0125755584571303,-0.00145352051317031
-0.0707642969032608,0.0382077308955785,0.0226903402309186,-0.000393897550206603
-0.0677059816596446,0.0438565460109061,0.0313433554910928,0.00140105980848468
-0.0734318952108942,0.0204421840066931,0.0352123767991373,0.00275498481053111
-0.0830025995539913,-0.0108786976238065,0.0379445251902379,0.00293961101242307
-0.0677398060300431,-0.0352222024476245,0.0425625777211665,0.00217354831370534
-0.0332349273005125,-0.0537228303207761,0.0441156997075042,0.00117411941942048
-0.0047252908007086,-0.0628676419700836,0.0398106351495692,0.000398735432811591
0.0155205642005971,-0.0679944519446272,0.03361799580078,-0.000274826195158748
0.0430648774877671,-0.0802937211813779,0.0273955608860333,-0.000845524482972557
0.0884736478592634,-0.0882104042422514,0.0208651033486214,-0.000983257927600604
0.137144184553814,-0.0781085609254429,0.0148483469985363,-0.000597056969775394
0.158966969416443,-0.0609883863908666,0.00803154382559439,8.47680080860719e-05
0.154116809563083,-0.0471805523629475,-0.000386989260732687,0.000821301100952046
0.146226920148263,-0.0263902223448789,-0.00705995743276099,0.00130125291010584
0.147705318467074,0.00895281443416097,-0.00975441597802659,0.00111192052074444
0.154203575851671,0.0407193534372946,-0.0106718459945668,0.00025786273908805
0.13191016092696,0.0593551265417383,-0.0108998842584739,-0.000492681720145818
0.0493526992166256,0.101007390427647,-0.0121142373575292,-0.000560657173886977
-0.0781755824132321,0.160671894805787,-0.0119697816944784,-0.000499184326121514
-0.186552463044983,0.15863242524635,0.00205556804868447,-0.000843597970275216
-0.233882701356894,0.0800175995129924,0.0261041485347807,-0.00112625173981353
-0.228319168261813,-0.00361551660022327,0.0384757938472479,-0.000617732377935133
-0.177038025811753,-0.0750143288034988,0.0336131716462008,0.000722330741024614
-0.112010697079054,-0.138194235799948,0.022109617943053,0.00245960842777882
-0.058240836615343,-0.151299810200246,0.0144663576782293,0.00408615211325557
-0.00666813550819284,-0.125944907870954,0.0132221499976775,0.00452596236452479
0.0358277767643608,-0.0910345110988623,0.0124810144685481,0.00315831148041563
0.0602190501745684,-0.0480883443652771,0.00779892916104852,0.000810733328502988
0.0664810909526029,-0.0371573305985336,-0.00316970405451642,-0.00130149941059267
0.0551396356661678,-0.067045071777652,-0.0189585366560866,-0.00240213274344535
0.0320630813875051,-0.0757909882385342,-0.030092127599229,-0.00227058841228985
0.0114005453128351,-0.0392052280756379,-0.0337413671119068,-0.00126353341059205
0.00289288828080084,0.00645871231933147,-0.0376361471968901,-1.87940580429953e-05
0.00043651903983942,0.040325280793297,-0.0449459055704388,0.000943049066729137
-0.00243885493638175,0.0630948395197385,-0.0539155354517386,0.00149572940380662
-0.00531852608767105,0.0767902573503512,-0.0581873840932852,0.00202838904226435
-0.0144879398898739,0.0862913496675962,-0.0508737577643947,0.00281680566408253
-0.0293696213292031,0.0846293865943538,-0.0346395843011796,0.00335370321255823
-0.0331813545242236,0.06165992408892,-0.015995472238315,0.00314564747550478
-0.0286075610743399,0.0286279554303129,-3.60948501914107e-05,0.00248438697267962
-0.0312073120745789,0.00643551683208944,0.010695281100222,0.00170866813635863
-0.038237915609395,-0.00244565653923563,0.0141784204217559,0.000733576388997519
-0.0330861120715297,-0.0114165699183085,0.0116987712686286,-0.000284601363422665
-0.00322289772408378,-0.0277122592709962,0.0100109689339339,-0.000582030083923542
0.0331784151482955,-0.0366746270520331,0.0100757418155161,2.57761473008619e-05
0.0523652723985105,-0.0232211330483042,0.00393179961959918,0.000679570820088458
0.0609921112185683,-0.00076615197986374,-0.0113142037542609,0.00065819377853135
0.0634481960071133,0.00866360060800113,-0.0307694999274875,0.000273523950390884
0.0514155419559648,0.00332370430398099,-0.0519413168737693,0.00019790616970604
0.0245237201398006,-0.00133381676953062,-0.0646461156470085,0.000261862222176655
-0.0143305496663904,0.00843166884211951,-0.061428312544457,7.19505878522418e-06
-0.0567037857496296,0.0377316739566448,-0.0547452719281855,-0.000330936441896967
-0.0776911203556725,0.0650377142184131,-0.0489383008872982,7.19091209815668e-05
-0.0660578706932496,0.0588697978888458,-0.0372817471520172,0.0013874407738902
-0.0476647294782523,0.033801943840813,-0.0199272422373382,0.00275022266311383
-0.0404204880549986,0.0187871979661413,-0.000859480872357571,0.00320232766452624
-0.0411870517354117,0.00675437083386955,0.0108524060949449,0.00204078534643547
-0.051982691050088,-0.0115558590682801,0.00642137854098251,-0.000456747964266245
-0.0730004705615254,-0.0221806505148692,-0.0101748429589907,-0.00317384225871774
-0.0881306608925263,-0.0100930354572325,-0.023650586043781,-0.00500539155138368
-0.0673435540727983,0.0190398408323521,-0.0253424611147047,-0.00502670378225605
-0.00677463861119212,0.0408089632030201,-0.0204484429692662,-0.00365275955954091
0.0653106691841131,0.0315663171418243,-0.0149289873506081,-0.00254632747492878
0.124974642448847,0.0052222537077927,-0.00941469508186718,-0.00223371685397417
0.144749662820663,0.00407558540843576,-0.00700902906137278,-0.00144779520839086
0.112431077586081,0.0178548575440426,-0.0109464249814806,0.000151523349257017
0.0670717774905117,0.0125265701836424,-0.0172415392911404,0.00100211449382152
0.0441607152488688,0.006633665431903,-0.021072010397003,0.000421665351939794
0.0326588070543049,0.0293786985193625,-0.018602170636571,-0.00044286351113628
0.0171903528350636,0.0681372556594405,-0.00740960480476207,-0.000820524934772313
-0.00103176034158572,0.0806365883477544,0.00544232522181554,-0.00200274498789969
-0.0239259589075284,0.0537205735748119,0.010512588906402,-0.00487264183470731
-0.0522824171716091,0.0112192224180418,0.0111004278336014,-0.00762470202442818
-0.0655927751813192,-0.0168506545058574,0.0132096612320075,-0.00846507694032952
-0.0601784739003068,-0.0209538832388761,0.013537795698264,-0.00732662628986003
-0.0711935129651819,-0.0335388528521657,0.00744995242571167,-0.00502907724845975
-0.0919151529408635,-0.0710735357797728,-0.0027573665778352,-0.00258496200458834
-0.0841243472410389,-0.0950952940212122,-0.0120915656675353,-0.000518401213065218
-0.0434739970340287,-0.0604295362353255,-0.019463379129062,0.00112776522595275
0.0188018361619441,0.0158963193334139,-0.0252064617628814,0.00235547756620608
0.0556874002934947,0.0674451857584689,-0.0285526693275846,0.00343602497271237
0.0321759230368077,0.0850088840344844,-0.0302514345070423,0.00582636183657518
-0.00722559274120416,0.0980653763733302,-0.0308948356418354,0.0102916088126663
-0.0304711041311377,0.0793522780996759,-0.0240357109658052,0.0136587568540888
-0.0410886769449602,0.00362157711720218,-0.00684861064413517,0.0118112168722499
-0.0245385182166904,-0.0633306518646344,0.00988066849617572,0.00493065137236984
0.00599985478185315,-0.0479786210388692,0.0157582801228937,-0.00338247570496226
0.0102770459981952,0.01003896055266,0.0146075512830332,-0.0101076861217047
-0.014416196475847,0.0313720430663724,0.0154964885837979,-0.0138413897818232
-0.0427399239572483,0.00696920946815517,0.0181470410451051,-0.0142710831790569
-0.0603698485517539,-0.0403726298775085,0.0177373846194605,-0.0122032832946122
-0.0624120819381428,-0.0893772471262913,0.0109594354652888,-0.008836065851598
-0.050204710449279,-0.0984246031850757,-0.00315582607604824,-0.00515326408215157
-0.0340583935531713,-0.048514050397366,-0.0197162548093418,-0.00155072514574211
-0.0176466250907103,0.0150224476557106,-0.0269363103908825,0.00181576899997588
-0.00111922593316125,0.0440788217342398,-0.0193642496175267,0.00434956141431706
0.0139443677925341,0.0454416487937999,-0.00848083045712259,0.00578572432921934
0.0293067889298041,0.0390254833345141,-0.0035183842089065,0.00632671675276541
0.0430547847271548,0.0202211372486568,-0.00078434618946115,0.00611371837938259
0.0600852835440348,-0.0101823925135643,0.00245615375736842,0.0055280169696861
0.0839665854254488,-0.0351285816026717,0.00426634234988718,0.00506086828569552
0.0975115041139177,-0.0429887956176218,0.00377036318909542,0.00483245354858965
0.0867762486034404,-0.035584721596519,0.00294640119542219,0.00483138734551971
0.0681456133442865,-0.0248823081951729,0.00275201766123126,0.00501569809287391
0.0694727504318632,-0.0203798570166774,0.00278334003940613,0.00471377042375496
0.0888683042673823,-0.0249062625132118,0.00437539721225047,0.00328917929550334
0.0946285265903212,-0.036447190798082,0.00613624156332856,0.00113926955930389
0.0593473127567211,-0.0491846287494546,0.00398753760152341,-0.000739329713263979
-0.00296021950890832,-0.0704269775831888,-0.00341118822952436,-0.00143574870150501
-0.0547924931186789,-0.0977544065679454,-0.010135869630291,-0.00113261139474226
-0.0724619471825743,-0.112443828810312,-0.00589232993950673,-0.0008224188308122
-0.0489945999452978,-0.11746459238795,0.00641038084961442,-0.000764657952979614
-0.0089237674690003,-0.119535722536323,0.0151215839349055,-0.00086829684865933
-0.0188453533656232,-0.10683426515465,0.0216792425020854,-0.00140085873145333
-0.088613254114439,-0.0644138454987348,0.0314230770542438,-0.00222862907952405
-0.113620900044698,-0.0135604689865868,0.0383811460410897,-0.00269032061986508
-0.0540272730663292,0.00649573128856745,0.036054958024764,-0.00237946390641439
0.0157482082923784,0.0318202466157072,0.0261505155733922,-0.0013808515790634
0.050706556320462,0.110802284910459,0.0103400754860654,1.41935566784195e-05
0.054095939579332,0.196665705306884,-0.00370330801289222,0.0015567265119232
0.0500765416369379,0.215094607164305,-0.0062454086761414,0.00275486638492735
0.0677448679378168,0.150158609996386,-0.00523891426300539,0.00271473564854186
0.105109212595857,0.0528473270157793,-0.0082741745487675,0.00148427782294043
0.129005816335689,-0.0225250493033079,-0.0102637276069893,0.000256492791962554
0.108237072232747,-0.068144265297634,-0.00550415124424885,-0.000601417190921384
0.0548028293580287,-0.0955755933923906,0.00551451473315399,-0.0015576936505039
0.00880739409447699,-0.0942155851577028,0.010583197097426,-0.00257074333602576
-0.0179863533812367,-0.0494420702054405,0.00364813965901957,-0.00323047099976675
-0.0320789425333675,0.00778743986851562,-0.00565027130385318,-0.00335440293462586
-0.033854625838868,0.044155554330225,-0.0121705769445057,-0.00302155613291323
-0.0258713446601755,0.0620727768166336,-0.0132417879194323,-0.00251772186045167
-0.0154606962081526,0.0650314100482353,-0.0028600216950168,-0.00204107037530094
-0.0118254294624215,0.0426346180309994,0.0151753058559509,-0.00155320624314988
-0.0186388020349083,0.00399860567915525,0.0293867866613442,-0.00102632121693194
-0.0342617029043435,-0.011953369714712,0.034825337959431,-0.000387349654819422
-0.0504252793103709,0.00110829160600934,0.0323240095730248,0.000510257720207206
-0.0588140308095794,0.0142698484587119,0.0225158109919289,0.00161927279075421
-0.0660635181883021,0.0157182346053695,0.0109415325707677,0.00256113773347817
-0.0759885301589375,0.0145192860351969,0.00158700889184271,0.00272510943367676
-0.0708210676947133,0.0224700366072583,-0.00834629425842808,0.0017454054008771
-0.0369940416517328,0.0425901238131044,-0.0193072468320365,2.48021542202043e-05
0.00441752532105727,0.0659829087376504,-0.0339298820165142,-0.00188168440319896
0.024541504764785,0.0806670294594278,-0.0506735810476697,-0.00372072131636175
0.0255468213344374,0.0682381563464571,-0.0616822128462697,-0.00483546775528293
0.0222006056283738,0.020561743345643,-0.0687243591984357,-0.00415967306101025
0.019674879038687,-0.0305019883777134,-0.0736360681187882,-0.00154416726650569
0.0180269241492478,-0.0398087502971178,-0.071475654398633,0.00156756415864482
0.0152456318818599,0.00184425155842942,-0.0590636667139492,0.0031999970902983
0.00627315155425348,0.0481508022028002,-0.0423169372538783,0.00247439251192833
-0.0134274631943957,0.0588123969711188,-0.0313857004915315,0.000191589731420865
-0.0197087585116161,0.0546745313267481,-0.0227113811983138,-0.00229036619961929
0.0273336324620109,0.0672002965737965,-0.0106414320912813,-0.00369672814048039
0.106233207604138,0.07388705380196,-0.00140101534821831,-0.00309146482827842
0.14968667058906,0.0347748687460252,0.00219796768617073,-0.000956083974207512
0.13770401939344,-0.0329887175735149,0.000472853853133579,0.00117864631322742
0.0961533208749318,-0.0750945401767482,-0.00915034548983227,0.0023376810512793
0.0490172468134006,-0.0680047453402888,-0.0213206123109445,0.00264650250238006
0.00564558974641227,-0.0406933500349663,-0.0233263244134619,0.00241105609775742
-0.026671799224246,-0.0275402926663067,-0.0110656261496893,0.00132010477037724
-0.0556503272389118,-0.0350076640879102,-0.00118712397845151,-0.000427104474321119
-0.127352154124848,-0.0369991453813783,-0.00820000692579175,-0.00142098979286094
-0.214729611906739,-0.00807222773711421,-0.0215781816229959,-0.000732617615468094
-0.215848496661971,0.0307046773206452,-0.027946016729128,0.000801631952205002
-0.126458762895683,0.0368998750776382,-0.0232001845565714,0.00178786778944058
-0.0150737706247661,-0.00573154220742003,-0.0073929595929945,0.00208115140178033
0.0695780186883879,-0.0550202274605269,0.0117497944884785,0.00209502333082071
0.10098169045769,-0.0697975281938473,0.0249364576151244,0.00159378343931222
0.0901138540249116,-0.0652949620017703,0.0303557713442039,0.000373040702641882
0.0684750629919409,-0.064016606750561,0.0325125798764643,-0.000982344580492827
0.0548683260307091,-0.0654980968035606,0.0362940013706528,-0.0016577690589091
0.0587295146640181,-0.057713950526132,0.0398229833708284,-0.00159937190788137
0.0700265370938329,-0.03781533741414,0.036081570409994,-0.00139586349690677
0.0649139520499646,-0.0198593137015467,0.0240751830266436,-0.00110470906940889
0.0375112941176773,0.0028214935448191,0.0119159861649386,-9.10088593255448e-05
0.00558869693309031,0.0470262402503305,0.0053227985309165,0.00144609916350836
-0.00684210503209172,0.074337820341449,-0.000976336786754614,0.00240665847156023
0.000595190439133648,0.0691757563073128,-0.00937235555427309,0.0021671086166572
0.00595787266586464,0.0914371506702127,-0.0122304551093493,0.00111030865779576
-0.0129567285554359,0.139788974314156,-0.0065149227574164,0.000163254514500734
-0.0598130667755418,0.139577308639713,0.00568115800637022,-0.000385018198010037
-0.109601453558773,0.0741393705572705,0.0159782185225441,-0.000729079934169507
-0.13202130396359,-0.0216153426576054,0.0137947113697712,-0.000541812282432216
-0.108944651732229,-0.11415058224823,0.00420732570594904,0.000275810294576298
-0.0505643543260389,-0.145321265450758,0.000147393968002674,0.00114735644035799
0.000301907860187287,-0.100228497840446,0.00626610551234991,0.00145865939020809
0.015991200020757,-0.0488880474493989,0.0188188192687555,0.000894544427361221
0.0108123497240732,-0.035804527877326,0.0312641551111179,-0.000127696818047778
0.00710483187535957,-0.0382601015268725,0.0374720516965331,-0.000802672211828489
0.0100174568214294,-0.0243862747474626,0.0366060887897563,-0.000824325146333428
0.0141172368920346,-0.0013056822542991,0.0307841883679834,-0.000429520370703596
0.00808765843104448,0.00151011981840377,0.0233874205461021,8.04353865875387e-05
-0.0140333345577167,-0.0171680727384691,0.0256324083784556,0.000456082318992081
-0.048194673000599,-0.0274193890616052,0.039228341701392,0.000671886341302728
-0.0759259328587647,0.000121491777819407,0.0453991950060882,0.000789473842894666
-0.0689566757755483,0.0541774046532371,0.0368792980950695,0.000584043521472391
-0.0346023575445517,0.0905767172833546,0.0283267374410755,0.00026432450562257
-0.000892306648965516,0.097245595720627,0.0229080640180164,0.000625577112328709
0.0266959311234959,0.0943961706025793,0.0116467603974886,0.00185267071295326
0.0395303874907535,0.0810192286705716,-0.0019228661120733,0.00300977407816604
0.0278840446244192,0.0381935482892072,-0.00832312364954427,0.00323697218303436
0.0149383897051013,-0.017782377574228,-0.00751083927067026,0.00241788782593156
0.0221392133439331,-0.0438266425528899,-0.00473504013324533,0.000471817654246142
0.0219018955807242,-0.0438676911513764,-0.0049570569754258,-0.00211644086512215
-0.00907692447954799,-0.051666798593349,-0.0139793530043093,-0.00396629481665025
-0.0392393914269929,-0.0598794846815088,-0.0277973956524747,-0.00394695282097577
-0.0447286429237774,-0.0464740165124498,-0.0351207956046465,-0.00202868778519419
-0.0440114327069386,-0.010203072825905,-0.0323720202415865,0.000583204020360489
-0.0505126584583014,0.0396074016900078,-0.0226610715735411,0.00246895116829467
-0.0442114100084321,0.0782555381528126,-0.0113803224572166,0.00299146176829257
-0.0117996509350335,0.0795777120248466,-0.00140228393845764,0.00235582944281751
0.0256654761936463,0.0426566753520347,0.00817638822757949,0.00146591289712447
0.0473328164474566,-0.0194748468278829,0.0164803791455395,0.0012797019707759
0.0529242271011593,-0.0783800841280971,0.0202107968454113,0.00181401142431026
0.0619889156726189,-0.0954500920999567,0.0209578311410656,0.00239090115115249
0.0702626291765424,-0.071921418370723,0.022821412387359,0.00257956415427382
0.051729837679288,-0.0379785437056334,0.0243211647701723,0.00197711812443584
0.0189762413525597,-0.00910879815498514,0.0231098698191513,0.000553541931238559
-0.00261576638212799,0.0135453826444854,0.0188253030870313,-0.00072584899546865
-0.0138477735704947,0.0309125603487443,0.00923546621725925,-0.00103010822712783
-0.0304493726796339,0.047836742730565,-0.00369716266941602,-0.000497185099418314
-0.0554868172844405,0.0620626537635299,-0.0107250665263388,1.15087290626453e-05
-0.0612409503638685,0.0566639938882202,-0.0106424229258936,-8.13498988206059e-05
-0.0286287423983272,0.0297368594442002,-0.00681254858109787,-0.000391024898573509
0.0149650474075163,0.00533848219269869,0.0041475812667763,-0.000702567511854491
0.0320831467736514,0.00902704827715062,0.017295917651759,-0.0015600284484044
0.0185331086899247,0.0329733894043933,0.0223999939696429,-0.00315471330227609
0.000819630362230716,0.0366299495583948,0.0214072202492852,-0.00462301616461042
0.000714394722419626,-0.00371096198767578,0.0218722967125818,-0.00472021810059632
0.0138309514973028,-0.0607124210525226,0.0249607851069677,-0.00316254358354042
0.0271224907892048,-0.0917886047130972,0.0255543190719417,-0.000953495012970464
0.034254079695272,-0.0920983668001184,0.0179761519414875,0.000628131654016385
0.0328358292158569,-0.0765504919855313,0.00148853320609083,0.000981703885649771
0.0177708132629715,-0.0578677447521988,-0.0147097574104266,0.000346424957660766
-0.0104121446472783,-0.0432942597866146,-0.020728579660361,-0.000578014335724968
-0.0390277756710397,-0.0397929733936918,-0.0173645827681366,-0.000840651044183155
-0.0546035428960583,-0.0737200819009671,-0.00850543989621009,-0.000144318083631202
-0.0541558765406896,-0.117953519531869,0.00118301037324474,0.000957408469390141
-0.061259747193118,-0.0898421924788275,0.00353186325058453,0.00225325557829553
-0.0960789877406003,0.0121455374544621,-0.00259439849877798,0.00370826061407645
-0.117520359099108,0.108035395669437,-0.0123895833236722,0.00459954444442612
-0.0732241880082584,0.150806852224125,-0.0210196711096222,0.00438733948947327
0.0168921592327837,0.14655093842594,-0.0211207702555207,0.00389243338636725
0.077525285543057,0.0990974978266631,-0.0151681629912723,0.00354391115388455
0.0680884461721863,0.0246716742862227,-0.0135230662704044,0.00216796415107118
0.0428123346073441,-0.0327816628940404,-0.0133429364515185,-0.000682713733255608
0.0510863429392085,-0.0442270765203611,-0.00696358841063631,-0.00356725442906109
0.064918468780709,-0.0121768679754575,0.00423284127962038,-0.00513968024748184
0.0557335964587897,0.0261349275975911,0.015914415258776,-0.0055856127073678
0.0265866385107886,0.0386675515757909,0.0214984068001437,-0.00591641730955406
-0.00285918559700429,0.0345026332140253,0.0175660759012452,-0.00675926162427175
-0.0104875448217216,0.0258291740511144,0.00731112432069589,-0.00751133717787764
-0.000675298338053146,0.0162172209540065,-0.00308791205685287,-0.00713661828283397
-0.00571918889946674,0.00849674797904773,-0.00567504542699919,-0.00554062638377001
-0.0359281443207854,-0.00494450636674679,-0.0117448625401217,-0.00306378869288588
-0.0629146415321385,-0.0179331803789799,-0.0328675955500855,6.49843095457056e-05
-0.0703907722811113,-0.0180811878640886,-0.0496571896754789,0.00316272060498529
-0.0639690928089992,-0.0238102763831693,-0.0539018916996706,0.00533610464654168
-0.0471011954348183,-0.0434708801119305,-0.0551927511501908,0.00634982715877326
-0.0314018380197932,-0.0637642599752489,-0.0549608962687293,0.00640530959374618
-0.0396453939045111,-0.0855486056423349,-0.0567583836677356,0.00583946105154684
-0.0740566450396458,-0.087046565383313,-0.0595900192041121,0.00511675790237134
-0.098831192267689,-0.0460763038549913,-0.0558157411917152,0.00410532787473599
-0.0675329910352718,-0.00803143989905003,-0.0431716236679333,0.0024162469573102
0.011697772078089,0.00542299227264884,-0.025584618266431,0.000630202673065842
0.0616993684088136,0.0404767074798682,-0.0113111629790944,-0.000316899125477715
0.0528961173094746,0.0950253922470762,-0.00222761046402289,-0.000627531678710232
0.0295039360012204,0.122298106795313,0.0043203919478793,-0.00145753897371759
0.0122553599166121,0.113370402619664,0.0100890300727271,-0.0031984646233566
0.0068115012838494,0.0873660317219215,0.020220433986747,-0.00486543230092243
0.0292455631015668,0.0552970144710989,0.0317475457114589,-0.00525039295352581
0.0680553170644474,0.0261705672503441,0.0365202413172945,-0.00398861276105184
0.0919849023237176,0.0163460736979953,0.0333670061460352,-0.00199564025025106
0.088941254187891,0.0294364582777483,0.024108715146415,-0.00074534141044634
0.0682530044905329,0.0525522858185169,0.0106810563013491,-0.00108974888835606
0.0479064978347118,0.0659461660468845,-0.00820538280828778,-0.00271048519857622
0.0418454381281135,0.0538999646517335,-0.0277911594905969,-0.00433827740080472
0.0447902216659886,0.0342717882347433,-0.038792647547501,-0.00476468456892009
0.0322757028509884,0.0313614530291181,-0.0453244185708154,-0.00340396688480737
-0.00538874863816255,0.0431151853328739,-0.0473319784399364,-0.00069749195946195
-0.0341341176618766,0.0492676142114929,-0.0393791257572976,0.00191391523435474
-0.025368141831499,0.0223752283989917,-0.0277567006422903,0.0033964334243019
-0.0043449225541895,-0.0306465420314072,-0.018584407880139,0.00398521391864607
-0.0106919382488148,-0.0813949640304718,-0.0131395834595995,0.00443214704594045
-0.0617526804787436,-0.114092255443243,-0.00805853733768203,0.00477365473318225
-0.118406838194903,-0.110839620397784,-0.0015025220400656,0.00437548242439975
-0.10327330271018,-0.067854475816808,0.00535125381666446,0.00338638738756657
-0.016747574149715,-0.019634023788337,0.0168722611795939,0.00261859176245244
0.0664410244315859,-0.000885758398617487,0.0337563841852241,0.00230281855060906
0.102955387475042,-0.0101193559046006,0.049969424689085,0.00218135777127855
0.0957784805707201,-0.0263436782337793,0.0607168078137884,0.00170189898694284
0.0592458422725335,-0.0326348933213276,0.0627135175126033,0.000477317530087008
0.0220969239404384,-0.0239383434343746,0.0553730766941052,-0.00126966486181992
0.0184737428098987,-0.00727806047355735,0.0454999176238044,-0.00320787820502403
0.0455187566214434,0.00755585700898456,0.0399620063204177,-0.00499897174505563
0.0641944647175552,0.0156057897199125,0.0369836729755382,-0.0062313739450334
0.0489736600971458,0.0224190922700859,0.0291113591260821,-0.00625422544935551
0.0109031796074705,0.0291082401637391,0.0177028136490368,-0.00463672260337678
-0.0204344477791667,0.0145833276858846,0.0169386696035073,-0.00206002658906418
-0.0218871598816576,-0.0201495512594194,0.0264093719378135,0.000354866587416897
-0.00152724410675486,-0.033580758611297,0.0303107869844178,0.00202283743238034
-0.00910560696552889,-0.000401074414331973,0.0278931964452344,0.00288897762685974
-0.0698684874222123,0.0475531803439209,0.0266947730413949,0.00318545009271479
-0.117977250000479,0.057234435304565,0.0241558188600812,0.00328535483628847
-0.0863163031952567,0.0250806941881905,0.0178867306155451,0.0036213258568148
0.000288720941719695,-0.0114015900891205,0.0101117482055963,0.0044446933015159
0.0719519490265882,-0.0338151193516207,0.00509311076256678,0.00520907825099784
0.0865569390892628,-0.0518939891901301,0.00375590664848313,0.00507072212471921
0.0578639839662299,-0.0622379588209617,0.00291441553944122,0.00395064560368795
0.0285606816784583,-0.0491986060065602,0.00469852465558877,0.002342837726377
0.0113246439847025,-0.0260314129437005,0.0100905780362128,0.000878003229052683
-0.00286772479079245,-0.0107555137591248,0.0157398469687303,-0.000347015512380568
-0.00777643575385159,-0.000882746285247121,0.0195865065737714,-0.00195166383229461
-0.00286063897834594,0.00520813078818991,0.0200878389289773,-0.00356627262270563
-0.00426608920089581,-0.000797266818891679,0.0149625553841357,-0.00345785513688021
-0.0147634003041058,-0.0175993708310813,0.00804078146929877,-0.0010776979961138
-0.0212039323261458,-0.0237557751547952,0.00728781199103967,0.00165232937317054
-0.0204688649865751,-0.0133974901489152,0.0108995491951448,0.00246605681795585
-0.0103522508990902,-0.0013082556284566,0.0146644271297693,0.000955061679954929
0.0118171943979456,0.00420624971076549,0.0182514591080179,-0.0015431358780385
0.0298142591829203,0.000114241354412977,0.0203112023592803,-0.00310060263329873
0.0425470093557027,-0.0163660854617413,0.0226362477324532,-0.00264815279875412
0.0613509387041624,-0.0281359723019661,0.0258581309658014,-0.000915277808042197
0.0663855790455371,-0.0081336020520168,0.0263267968649826,0.000431927424234774
0.0493771077459318,0.0287339257486289,0.0229591652383747,0.000613084664123644
0.03143043871539,0.03439098565738,0.017129045238463,6.65406903322373e-05
0.0193526006463431,-0.0154998464002331,0.0107008017461362,-0.000449948553450232
-0.000573361577347387,-0.0827675319189896,0.0100603774085976,-0.000325327851923972
-0.0335191746708408,-0.110717649165737,0.0186565219335577,0.000473143391686399
-0.0636848469375221,-0.105727697933196,0.0307217518053628,0.00140316804922555
-0.0886030309758102,-0.10519388278861,0.041105943233575,0.00168679497306734
-0.104151041431498,-0.119629394030391,0.0486523841936387,0.000776606789129694
-0.0810742755838068,-0.141002999108486,0.0525601804031896,-0.000659438490508151
-0.0244241552782777,-0.139285650286167,0.0487712781168714,-0.0013437497495101
0.0191346445009885,-0.0889716541762515,0.0332200171304221,-0.00114450420660639
0.0239096014096867,-0.00769517902371303,0.0120930333946428,-0.000898826966879734
0.0139138996549124,0.0717741885839959,-0.00143701383656242,-0.000900669553606954
0.0301805886891803,0.119464979510097,-0.0081142816550946,-0.000904988466316195
0.0628204210995593,0.126858635053035,-0.0157631811344444,-0.00094063630692899
0.0652931985112184,0.116548652788783,-0.0219988429692816,-0.00111600874626746
0.033757105145808,0.100966262308265,-0.0263518121661952,-0.00156396107707483
0.00380496985347678,0.0666638648690694,-0.027948032688587,-0.00213585977329047
-0.000219521248031321,0.0179126578703757,-0.0238528357505725,-0.00221023104511272
0.0146899069839212,-0.015375909571917,-0.0211336439682059,-0.00172530886605564
0.0241362280163202,-0.0289701972944883,-0.0230143174747796,-0.0012904965124406
0.0189345168635698,-0.0389107727269062,-0.0228120127324566,-0.00133591249613873
0.00931686026706185,-0.0490494433988847,-0.0198014779257055,-0.0016961244218003
-0.00234689908936568,-0.0558513461925794,-0.0164227416210549,-0.00183612670885879
-0.0181563043255129,-0.0563142128525268,-0.0152234092246715,-0.00148205172258692
-0.0288507593369785,-0.0478788492365846,-0.0181579743848246,-0.000720254947937294
-0.032465038175322,-0.0325121151024636,-0.020069615093906,-2.82336715783701e-06
-0.0348912813899208,-0.0153486614872965,-0.0173716247344974,2.09924546573408e-05
-0.0359268472320199,0.00158583756572283,-0.0111410716547405,-0.000548807882109284
-0.0339816781290493,0.0151762556627332,-0.00513446684960581,-0.00067874538589401
-0.0329768292433964,0.0238697558167162,-0.00434819777248777,0.000300942083825773
-0.0404577901763375,0.0273955739096407,-0.00878763141086848,0.00171945625109453
-0.0543676462146258,0.0264481021379719,-0.0123459710061097,0.00239559022061956
-0.0624399385162578,0.0276812732610936,-0.0103663255981184,0.00213230608395424
-0.0500935596780811,0.0357567055096499,-0.00729399799117843,0.00144915924431361
-0.0183246225835896,0.0494262770804821,-0.00797926035300927,0.000645217868940177
0.00875364228670301,0.0597875784218404,-0.00772928462036908,1.47478586024282e-05
0.0181959326302855,0.0585344367982812,-0.00218295170982969,-9.52492742450658e-05
0.0163435516303294,0.0582542385195382,0.00128276659495806,0.000101256850368051
0.00816448006147681,0.0723375079467782,-0.00463579645063242,-8.64709589342948e-05
0.000559409560932833,0.0794409847046963,-0.0180057818693902,-0.000821982472068476
0.00253745437552314,0.0446558987205008,-0.0279551334149291,-0.00158140581648259
0.00759447470600349,-0.0242927791481715,-0.024729824727123,-0.0016731166344972
0.0075201595542944,-0.0631430955836187,-0.0163764712970181,-0.00112854181124087
0.00894098498293073,-0.0345206278138009,-0.0133175645664951,-0.000839587926247325
0.0112257513333165,0.0133894571386739,-0.0120840521316757,-0.00095409212193201
0.00956659671301172,0.0301059817882314,-0.00934326541476076,-0.000461929247279053
0.00756503011406546,0.025859866104312,-0.00690084258346484,0.00121435931744105
0.00854011528108031,0.0242891365811417,-0.00367344557821734,0.00297023199980577
0.0154122716628251,0.0239198421395331,0.000187861417628624,0.00319654641691233
0.0387458599503007,0.0121208533373245,0.00293093990434899,0.00181344848529386
0.0874096200895429,-0.0159308435533971,0.00693617303911138,0.000188700537890436
0.136213918594955,-0.0491003401782851,0.0155107190072035,-0.000425547566860393
0.145878858567058,-0.0683816002938869,0.0249171453612105,0.000191455226931003
0.122819212321239,-0.0634686082126548,0.0269717370757319,0.00121737270480324
0.0997081087129051,-0.0485700970631526,0.0252363266764728,0.00169709762770177
0.0847492439200571,-0.0468143234362847,0.0287242166478691,0.00150085784008873
0.0676049757190368,-0.0409882126063017,0.0347261238512684,0.000815443372690153
0.0234384141353774,0.00330169348923984,0.0400289963765894,-7.05492983672103e-05
-0.0555818219466998,0.0857615746224332,0.0406900138073039,-0.00072198397261664
-0.101995146843716,0.160298458573466,0.0341813613268577,-0.000719226002106624
-0.0771761365172394,0.149661036440255,0.034043739322045,0.000251597623675275
-0.0577009045870028,0.05297761012655,0.0451381907626751,0.00137545108970537
-0.0688767585723359,-0.0395738453936211,0.0499068205235231,0.00132403745468937
-0.0536131189750938,-0.0892342556216287,0.0369716189962979,0.000406912196956792
-0.0164502545745483,-0.107723030366032,0.0180532103386749,6.13540323222946e-05
0.0021015965745961,-0.109627471801589,0.00697150122047707,0.000832380170951247
-0.00963193084138958,-0.112901376260533,0.00396815185104958,0.00198680801771958
-0.019763836069402,-0.0791909083811585,0.00393214300085513,0.0023695504609581
0.0150322433521801,0.014680914996439,-0.00325864230813656,0.00163314195108931
0.0697276641941182,0.0974469666744557,-0.0206141057980223,0.000320985163526083
0.0931653910609041,0.120216648553907,-0.0320008094539638,-0.000973980033180095
0.0819247719346514,0.095418092538343,-0.0289157295323903,-0.00165789860854487
0.0575950236424466,0.0461525131962961,-0.0204290278059716,-0.00142859067922016
0.041339567758342,0.00578291083550755,-0.00815748455733768,-0.000629469650351568
0.0237836256967812,-0.00165155753530158,0.00994979933707921,0.000320134054615754
-0.00565882695309112,0.0154658296560209,0.0247408229387674,0.00117349722604719
-0.0140735843244342,0.0286710221065799,0.0279298286351968,0.00175046498365746
-0.00104520333932236,0.024121125943546,0.0217804867553017,0.0022145285584536
-0.00253889451312605,0.0118167557831064,0.0122981188473662,0.00261891831692613
-0.0232566037205459,0.000187414666737565,0.00278211518244765,0.00246486832801522
-0.0512882274648118,-0.00592491448539664,-0.00595871690032299,0.00168035614652182
-0.0794380091541115,-0.00485583341273484,-0.0138046068197963,0.00103684776152066
-0.0922960861990007,-0.00333922720030228,-0.0213447193485618,0.000871448326590357
-0.0755077465662507,0.00199525446612549,-0.0279532027550754,0.000746224354294366
-0.0476683957273937,0.0118263780405286,-0.0309048474672203,0.000428261371849439
-0.0353172825193186,0.0100321927209123,-0.0312806628972812,-0.000154748936949282
-0.0362077741008157,0.00316323177351031,-0.0328626318857067,-0.000923271159958121
-0.0433273040607615,0.0122942212668279,-0.0379370757379373,-0.00166985193647542
-0.0520466530767622,0.0265157086936879,-0.0461460544110632,-0.00241197266125356
-0.0569529867060097,0.031223697768773,-0.0565591260233211,-0.00278138364088126
-0.0589463446391386,0.0383014323499152,-0.0670347356140848,-0.00203089079812283
-0.0546704624234235,0.0497520139943189,-0.0676732577419737,-0.000178169285725832
-0.0474891337676283,0.0483560636701951,-0.0566577653579328,0.00170426153375901
-0.0516770666161065,0.0329913440814593,-0.0478398830514113,0.00283715970745789
-0.064566320186212,0.0198787208671914,-0.0453580580293617,0.00349778823997168
-0.0675506278508174,0.00701519731085885,-0.0403300967967528,0.00390525981438688
-0.0586334881255855,-0.0139150968540483,-0.0353659660772083,0.00351507928967813
-0.0495721494385106,-0.0225322029935646,-0.0359653473701216,0.00212466158904818
-0.039988594957119,-0.00893067064611481,-0.0339851203731729,0.000428528880598752
-0.0255192604223627,0.00748121052708696,-0.0263032385467253,-0.000711859220575231
-0.0107918571888739,0.0194543103056112,-0.0205950492323115,-0.000813483001837856
0.00501990322708291,0.0309960328030949,-0.0192403340957104,-0.000183454422829028
0.0217927892608224,0.0334075526471448,-0.0156994478916822,0.000302961879584694
0.0331146484571574,0.0203884176952048,-0.00796133377528301,-4.52347214748869e-05
0.0508987209048989,0.00468437062579072,-0.00102779583558214,-0.00120564151551454
0.0636861082031761,-0.00571169848334092,0.00229308585207321,-0.00251079175089349
0.033355581905912,-0.0189188919954689,0.00412243113452174,-0.00334553246708568
-0.0225172190469329,-0.0400159140893266,0.006026309111481,-0.00364062164696631
-0.0658822097621846,-0.0661882459867857,0.0052852777872999,-0.00359876148584419
-0.0951841242276932,-0.0899811117534138,0.00377432775123146,-0.00315173903375144
-0.108910766928624,-0.0856780784037907,0.00276426079756477,-0.00219871233032493
-0.0784137249722249,-0.0445397537725811,-0.00453878302157414,-0.00069498306154736
-0.00256505920951822,-0.0073581204310782,-0.017622262678071,0.00114676712797208
0.0534070585744665,0.00398699810292692,-0.0267923696501891,0.00234188188368312
0.0621197213990816,0.00609084872987979,-0.0287662562009292,0.00203735395805817
0.0595389099884624,0.00548270067012256,-0.0270472632253192,0.000732872030738911
0.0506146493707299,0.00356356065220027,-0.0239451126294758,-0.000243977562603578
0.0405946057972671,0.0150682751009299,-0.0209175606273771,-0.000404354111716191
0.0516797920693213,0.036750517579085,-0.0183979059595307,9.02758427687008e-05
0.0634725670692225,0.0357979927672313,-0.0155226062323074,0.00137307147300272
0.0474403389650172,0.0243560904995956,-0.0105611158673391,0.00307897314353254
0.0133557271637821,0.0489845280771114,0.00108065742403935,0.00363049216080707
-0.0161414411773668,0.0828717133174023,0.0164284549591377,0.00171599502667557
-0.0240933740573025,0.077330583405419,0.0258434391528033,-0.00156961453535113
-0.0058613191750788,0.04627903431014,0.0280681443663802,-0.00375887001771805
0.014369234370796,0.0153798657574096,0.0270935462719227,-0.00391627080685831
0.0176993041897824,-0.0143709660545176,0.0274846389292587,-0.00293295049699853
0.0164913918777078,-0.0455883908169807,0.0308758993419022,-0.00177675329939718
0.0211989356311507,-0.0770229510549967,0.0313626894643685,-0.000805859914217762
0.0243292042046802,-0.111378849372115,0.0248797706357086,-0.00011442507563922
0.021087394122265,-0.134437743091677,0.0157529523001263,0.000145407618247847
0.0172304706630577,-0.125313374046223,0.00512674862239822,-2.1207437577597e-05
0.0226386186525503,-0.0709939878872765,-0.0121609929211009,-0.000431272429024205
0.0420692575460464,0.0231365154538774,-0.0313537280836603,-0.0012001233431351
0.0633802538254247,0.101752574430387,-0.0403650984786662,-0.00204551375542092
0.0681504866149409,0.114654727699354,-0.0377082981458604,-0.00211408994036826
0.0578691690320445,0.0632368168758154,-0.0321998140869364,-0.00108935300577424
0.0589505967546817,-0.00276265548559345,-0.0270310407786841,0.00126741964430156
0.0853039106908859,-0.0265310375512636,-0.016151877136625,0.00497939871289835
0.111668647887792,-0.0214387551423483,-0.00322438776054282,0.00843748205624562
0.107916951563817,-0.029358845549455,0.000782549480303707,0.00902955256582445
0.0757308990731716,-0.0491057654559594,-0.00712382148272175,0.00511537559509546
0.0313834655226479,-0.0674605800424127,-0.0210491225064642,-0.00215203401499506
-0.00653784554738876,-0.0866686494715774,-0.0283270171818617,-0.00912085415847029
-0.0306320115464505,-0.097956217148875,-0.0220411406358663,-0.0124589059042906
-0.0692866970519565,-0.070296675409684,-0.00882025994790057,-0.0118422265837782
-0.124206600204273,-0.0055681415968189,0.000718964220408375,-0.00928515297052835
-0.129712493173366,0.0398210902747289,0.00375894289618748,-0.00622001323316647
-0.0701188602263546,0.0420315738559707,0.00577752003847457,-0.00328236032580009
-0.00887387051361999,0.0306407775683873,0.0134795324564926,-0.00119762400226132
0.0310137615121652,0.0236016264314806,0.0248426054268491,8.5370449980561e-05
0.0654406746573288,0.0139047437949434,0.0268654181734299,0.00147666461359807
0.0870506001144145,-0.00489275508467695,0.01406637687723,0.00347054636623899
0.0851437386008539,-0.0192822986999704,-0.0021439284822777,0.00683248373384646
0.0696794845685227,-0.012729698855935,-0.00933421513462238,0.0120110897320969
0.0546103400357846,-0.000355190609175784,-0.00542879418750056,0.0157261822332548
0.0333624617702824,-0.0182052576597861,0.00483647336107994,0.0137335273705836
-0.00529117157648088,-0.0700286956365696,0.0165143305835312,0.00641472187401636
-0.0419869083260812,-0.114014084405285,0.0260810375909251,-0.00237080742289091
-0.0557532006006314,-0.116027108645697,0.0287201671929226,-0.00902746115823332
-0.0588325049823477,-0.0765814713134162,0.020721295264074,-0.0119329711440238
-0.0651568561894392,-0.0170226575468388,0.00945970030019007,-0.0113909176408783
-0.0695782983220413,0.0274394010674108,0.00410146091694712,-0.00916637715160431
-0.0613726743341876,0.0402517858250332,0.0045178635497497,-0.00719853770635705
-0.0430130604913781,0.0385551483726984,0.0095960589639985,-0.00553551413692798
-0.0288853870376229,0.0378477481817503,0.0152536818346188,-0.00347681389460863
-0.0143906010113884,0.0375932993795778,0.017808433935306,-0.00135653233143748
0.00976802184049746,0.0358275854081606,0.0191335103278491,9.96225412478379e-05
0.0226614319883557,0.0366525774648521,0.0186071325975011,0.000616914517959818
-0.00337377448475882,0.0568497085098843,0.0139409046169748,0.000625317215269816
-0.0421619734898268,0.0972899145607581,0.00390759831810131,0.00076110450008248
-0.0278334847857224,0.118150359831521,-0.0140431413025347,0.00144590683601458
0.0280532716925352,0.0933022120199347,-0.0300609609231806,0.00298667256102079
0.0502036085116149,0.0520963992446176,-0.0247340941383443,0.00508793331368141
0.0238481461073875,0.0400085720235781,-0.0038151262646178,0.00628694477730575
-0.0130338838399123,0.0532963033832522,0.00899831619149465,0.00521996456712426
-0.0358644727360733,0.0544579531778689,0.0139928677378143,0.00276850118658666
-0.0428050131200653,0.04701703508326,0.0254800817049035,0.00125174368832578
-0.0433774091571981,0.0657824006962561,0.040403132391891,0.00118725283796101
-0.0493184143365402,0.104122333743555,0.0516722674965805,0.00125201610169626
-0.0611296982203622,0.121453690027034,0.0593256539723074,0.000334370573374476
-0.0618235781427363,0.0969215488931707,0.0608320072884172,-0.00162103857347668
-0.0423996357068342,0.0424212141564056,0.0483102894884758,-0.0033510035804405
-0.0146020666349267,-0.000836341975362795,0.0186415287968518,-0.00371181633896456
0.00800688510248624,-0.000101434462744417,-0.0113206698806069,-0.00288360609426831
0.0186414729574543,0.028202573763157,-0.0255252914654346,-0.00144749708568917
0.0205832011423135,0.0532570950030375,-0.0272792999758092,-2.26031181648815e-05
0.0222690180182864,0.059421539069672,-0.0230298702185185,0.000623638760837542
0.0257276048065072,0.0345453207560284,-0.0191708163671999,0.000453034606537875
0.027520767391262,-0.0111843777260384,-0.0195749468150243,0.000383130724927195
0.0241045935202238,-0.0467888615703892,-0.0201415177037322,0.0013243739913656
0.0150606606130827,-0.0520392879499847,-0.017678363741242,0.00305468988799346
0.0124580074244588,-0.0357449974099902,-0.012324310365333,0.00421866712525064
0.0302621897284966,-0.0209774668154487,-0.00201097123683761,0.00361307343748042
0.0536339193020391,-0.00867360837762188,0.00728959148485807,0.00117814564686764
0.0573363315110945,0.00228874515367949,0.00795406273502073,-0.00181012899544692
0.038861422245906,-0.00812418981216602,0.0066157465957746,-0.00363394251614537
0.00164849203800438,-0.0405986140168837,0.0107509266736056,-0.00358886546331396
-0.0447173343347834,-0.0576790478276221,0.0196869121795945,-0.0025202583939305
-0.0778775932538864,-0.0514328635218868,0.0268612649718403,-0.00183282257854541
-0.091640864296974,-0.041614749182199,0.0246199758923825,-0.001878003315326
-0.0977327877232767,-0.0034504318927791,0.0118665803047842,-0.00167808553312397
-0.100465499447758,0.0583348556485802,-0.000651506113262992,-0.000309519338087014
-0.0923934062708648,0.06458232010995,0.000228315860949541,0.00155284884202898
-0.0644821808896304,-0.01157481884107,0.0108605851484495,0.00218425178443703
-0.012119249031277,-0.0939845410166193,0.0162670746328418,0.00122041517458453
0.0534062561544041,-0.107292304756135,0.0137243771198716,3.83095870492537e-05
0.100167927234872,-0.0670971220780023,0.0107775791573408,-0.000232128150020832
0.0997164048410671,-0.0419150492244867,0.00725959576938814,0.000241626043614697
0.0528483815771953,-0.0465273930273601,-0.000334386616859909,0.000747174377838154
0.00224708475993958,-0.0362961493879629,-0.00976574743910147,0.000880577055737118
-0.00702320778817345,-0.0138502022069163,-0.0145404795715896,0.000814278223120482
0.0064240168416781,-0.0210752035097534,-0.0130487188336836,0.000824486753996316
0.00293703631312773,-0.0475278266911905,-0.00847217277468803,0.000644408229684215
-0.003003791428285,-0.0694272107611075,0.0041391132536862,-5.38332491128394e-05
0.0191512568707821,-0.0890020547440751,0.0248646781415855,-0.000885935156746131
0.0461225243003059,-0.0991129919576706,0.0407034968100702,-0.00110603080057194
0.0356518945602361,-0.0938501117838667,0.045188936194392,-0.000946412311526342
0.0018847723202331,-0.0905263741250813,0.0424736935221972,-0.00108713533215559
-0.0113457194547353,-0.0938985783686935,0.0379673246050982,-0.000885224085280819
0.00288898318339466,-0.0810443071581572,0.0322114046548636,0.000687611531724937
0.0236884573496661,-0.0547874737267723,0.0257569866375404,0.00321516369959282
0.0249527068192046,-0.0510446179947536,0.0198389825105417,0.00512039583392843
-0.0235516211329993,-0.047852579427303,0.00965591444481138,0.00531231199496278
-0.0947471799449148,0.00686591263103035,-0.00195967574321589,0.00408245248627276
-0.1103571505718,0.0708641938072728,-0.00795910418770733,0.00229482683776175
-0.0658414297821378,0.0854265315562443,-0.012829323537463,0.000380022945686996
-0.0360938461308162,0.0704106933649327,-0.0193219896735792,-0.00133382144951547
-0.0489131072727015,0.0505794145793928,-0.0244275628125929,-0.00220408076462281
-0.0536420285231971,0.0182543426500524,-0.0312128153038267,-0.00202628690824178
-0.0444884280757934,-0.0128678151959764,-0.0392073300243058,-0.00135605981764195
-0.0614859061907317,-0.00701491402828078,-0.0392705960492922,-0.00117726836513547
-0.0711546949160194,0.0264963490421693,-0.0374131278598818,-0.00202212584785592
-0.0297243382984729,0.0478524003913277,-0.0483380114418006,-0.00260463277310898
0.0419594030307964,0.048375804177743,-0.0668656069714879,-0.000917845160337054
0.101525757640412,0.0488587847873796,-0.0806935885862298,0.00302157258120613
0.115437770892645,0.0689555308895793,-0.0874945847682791,0.00666593646697357
0.0868592912198901,0.0964912232073662,-0.0860743686804267,0.00745352667800088
0.0435823577796802,0.09052866631458,-0.0769640392490219,0.00550084180707293
-0.00124805910076518,0.0365518437350556,-0.0653078749455202,0.00279475504088693
-0.0402373654308615,-0.0165063446573876,-0.0514080185556892,0.00069022956047535
-0.0501454022573491,-0.0238405417185807,-0.0359607202484552,-0.000913774203409154
-0.0218698464553486,0.000191942607778096,-0.0233559774650064,-0.00238557258392945
0.0086497676781712,0.0192625652082877,-0.0147251964676567,-0.0030088017593543
0.00794922456199864,0.00773969217831449,-0.00938616937785144,-0.00165133922172135
-0.0112275544156729,-0.0232521754632438,-0.00534745840388778,0.00155027911253704
-0.0214567284261519,-0.0363576699554465,-0.00340870830103434,0.00458857621809013
-0.0191621703258067,-0.0207095151736233,-0.0042237229599497,0.00549079329124184
-0.0179125588698546,0.00116445918813995,-0.00505327785582333,0.00409559977885684
-0.0222391895074997,0.0138861647435319,-0.00626332228444251,0.00131212153823391
-0.0252456295377079,0.0220167541615895,-0.00687773048202721,-0.00153481734235128
-0.0247574169339569,0.0251882061710855,-0.00698961290197121,-0.00327939329351169
-0.0241948906011854,0.0131516093819113,-0.00842978521395303,-0.00379444513837483
-0.0221446774031465,-0.00980425883244532,-0.00656508587516903,-0.00356808122802401
-0.0187725324311124,-0.0254917038641819,-0.000410221149853743,-0.00303272823435336
-0.0243993922933497,-0.0275926591120711,0.00301399336848435,-0.00261344574314389
-0.0386501879591693,-0.0175491794060195,-0.000888757840723078,-0.00257798341806998
-0.0423582086974324,0.00192310570147912,-0.0119517628670259,-0.00248108825309965
-0.0233368141915127,0.0196720913062758,-0.0245760907245719,-0.00155473362050387
0.0053025366591566,0.0296088585853328,-0.0275637508224987,0.000154695075525491
0.0182035525909202,0.0365611680667251,-0.0177674485204155,0.00147770666374
0.0136895815414238,0.0359777346513888,-0.00679162107073799,0.000906219217535546
0.00889748012810359,0.0282446338534934,-0.00369676509692628,-0.00146999819990021
0.00317572693248767,0.0295326334466702,-0.00326709215298509,-0.0036785525511864
-0.000722250843310249,0.0338364138067155,0.0012133268286152,-0.00439071514430529
0.0241881320993175,0.0248015867654405,0.00840989210045963,-0.00373238968007316
0.071973375729304,-0.00542692894674945,0.0196088322616537,-0.00216963590522812
0.0920121514274378,-0.0657618168265158,0.0375195448612682,-0.000536190481803575
0.0650309693259414,-0.120718629462068,0.0548670480582798,0.000374093964136394
0.0231586909137858,-0.117782069583415,0.0665332853793068,0.000637373793483516
-0.00105613697139402,-0.073707364295519,0.0754779993454116,0.000585804732529262
-0.00522722379723646,-0.0266401597587768,0.083530573457959,0.000209417750178262
-0.00642881158542345,0.0138882179949976,0.088602268639397,-0.000708829405767035
-0.0338407600071404,0.0386199808049482,0.0884780370760247,-0.00189149873420723
-0.0871846370560058,0.0282070148018408,0.0878925562029657,-0.00258215115331796
-0.109875368504487,-0.0157659980759847,0.0857526996457058,-0.00223277562654252
-0.07997112742028,-0.0367472185356983,0.0711043224739707,-0.000726518839396575
-0.0242104688352574,-0.001177562157061,0.0452727233769709,0.000898714906514773
0.0496881730598905,0.0356509606413604,0.0233578528762464,0.00126335617423296
0.128086440297279,0.028789737011418,0.0156818837950247,0.000481196142417258
0.163677118559187,-0.001356210758237,0.0185275416708525,-0.000278104593518694
0.120762369793529,-0.024066319993499,0.0165713343636639,-0.000256627321732174
0.0251644920189177,-0.0199228423196311,0.00198149551296776,0.000252381418499169
-0.0565178244780439,0.0309024458638379,-0.0137100661699489,0.000710800714647545
-0.081663454878829,0.12793988881151,-0.0204566082830829,0.000909270258192743
-0.05727200949399,0.217139423402115,-0.0241801301087327,0.000723318136597873
-0.00851522350810456,0.249036109488464,-0.0310063851142035,0.000171642805472986
0.032890921072946,0.239362517719064,-0.034437164702988,-0.000822054975082195
0.0333997875138602,0.208051953089121,-0.0305050128790617,-0.00185328317557279
-0.00372043201829706,0.134963785954298,-0.0236375183625448,-0.00208108108792108
-0.0449252949893631,0.0176879021830653,-0.0100498154070758,-0.00154482599253413
-0.0603341682967533,-0.111042726565949,0.0111752482249371,-0.000859063828246173
-0.0346931156620729,-0.201651245984884,0.0241717144941492,-0.000245988596567806
0.0152696372276732,-0.207306511772849,0.0246221584315314,0.000620422388780739
0.0491354782897531,-0.160724234395188,0.0276921763748392,0.00196513763844145
0.0532718323114373,-0.113699267792262,0.0361222551110727,0.00307207798997903
0.0426378077369474,-0.050900103185001,0.0400839423330889,0.00286513836178103
0.0265231383366418,0.0172849394399433,0.0342661336779705,0.00142685498728049
0.0115336466157314,0.052731771094977,0.0197101009663761,-2.30602568042006e-05
0.00499629522258946,0.063761243785202,0.00892636480739852,-0.000472485670192378
0.00954607142905143,0.0787364221869742,0.00941388935915233,-1.61197753872379e-05
0.0219288643453294,0.102440392348265,0.00923196025188955,0.00060916936163471
0.0322936426854311,0.109703597915455,0.00134526339134861,0.00119561276256476
0.0403329404590216,0.0918715362513855,-0.00586924506288769,0.00201289512966736
0.0431851750344743,0.0721175675373968,-0.00989482627339168,0.00297344413673681
0.0266331681281482,0.0649377956675552,-0.0160405473063766,0.00352207758116125
0.00263111577860126,0.0513962066232476,-0.0228484560096503,0.00333541632809181
-0.00406874408983452,0.0178317746459516,-0.028613345125668,0.00272175073780776
0.00284763216985851,0.000701024906349185,-0.034690330498184,0.0020796090034641
0.00588981593825359,0.00810138923689906,-0.0370087224330253,0.00114936201751705
-0.00227368842308924,-0.0105207783322143,-0.0286196279953759,-0.000312485722596549
-0.0129131819759428,-0.0600990430199254,-0.0119410926963193,-0.00167357245981226
-0.0136946372766493,-0.091513269664867,0.00154917198478379,-0.00240719305485874
-0.00280771621370792,-0.0944819341954128,0.00618398553592659,-0.00271539987476966
0.0174229217260459,-0.0952081264318773,0.00473521383961717,-0.00309973245717944
0.0338272425656346,-0.0929205102553311,0.00151283177339798,-0.00338002865324008
0.0363031611124396,-0.0747375873219182,-0.001234125305259,-0.00269511637085359
0.0406474264920212,-0.0574146521573067,-0.00204877828481418,-0.00108619852896514
0.0581460159592567,-0.0478978165825138,-0.00178089385952744,0.000635773238012667
0.0801673131815696,-0.0281013356449704,-0.00213159980598667,0.00217521255234697
0.0839106812265522,-0.0181055918983608,0.00133364790733479,0.00358981561878363
0.0543518415389238,-0.0381233140886515,0.00913360404965183,0.00413226031570363
0.0246452689380033,-0.0487586963268703,0.0134996413194517,0.00280615695782919
0.0210817149852969,-0.0265601882993165,0.0122967038315384,0.000151314380928544
0.0225785325694144,0.00194504405715352,0.0113299253377093,-0.00208849332532416
0.0241710256352203,0.0116599172825478,0.0124190303835029,-0.00269988868217583
0.036938025770534,-0.0017726213360664,0.0105405871036038,-0.001966939215434
0.0495855910146743,-0.0229784153944123,0.00579747258778337,-0.000993290098169457
0.045671635877825,-0.0393604772645284,0.00210184889573737,-0.000478723811384184
0.0201192768969504,-0.0547252638197128,0.000739324431162884,-0.000364409460144723
-0.0227174797648284,-0.0755808522059983,0.00120688070336251,-0.000226473918445942
-0.0651696797692125,-0.0909762696985941,0.000703836327372271,1.64021256274438e-05
-0.0822932228764412,-0.080234331030237,-0.0046495737601211,0.000286920668387041
-0.0674072573803041,-0.0507267056733339,-0.0177726818004604,0.000650310054252154
-0.0361575970779591,-0.0252873410478591,-0.0340511461776516,0.00102303482970358
-0.00534201157102483,-0.00516450994739077,-0.0439095013236927,0.00115044778988145
0.0146643210204298,0.0167208991909028,-0.0426766384750406,0.000763089429742399
0.0111450139780655,0.0345457783198442,-0.0338042629544382,-0.000167432339132274
-0.0100320860516145,0.0585482882917651,-0.0322517723732466,-0.00140983043276811
-0.0190123732397941,0.0796121907722188,-0.0452106470709248,-0.00223376807559287
-0.00985652562138915,0.0520479366625722,-0.0557655197969352,-0.00175022810401678
-0.00789066371063793,-0.00259372993545054,-0.0499787515326658,-0.000297868211704064
-0.0230979225986478,-0.0303052222301566,-0.0332906427170279,0.000807438211477436
-0.0315210342156622,-0.0394486237359607,-0.0179086264231021,0.000983471874983641
-0.0191744617252788,-0.0628611794796341,-0.0111180301227937,0.000827573731538487
-0.00567573787472643,-0.0992190246026806,-0.00965169238964125,0.00124420531196895
-0.0155971922169107,-0.113737888906223,-0.0047345988936565,0.00222904632391992
-0.0533579423228793,-0.0858921059049347,0.00505515827177672,0.00280771061051345
-0.0948986381503755,-0.0382879996073054,0.0141676251135913,0.00246340559845365
-0.0994371485313019,-0.00684104753941731,0.018456269395593,0.00150751706629785
-0.0426639708045144,0.00232018913072672,0.0190258292203156,0.00014911719107823
0.0567442233745426,0.00340747389680764,0.0201932636038908,-0.00156747764642672
0.153316518650479,-0.00453903863945997,0.0206939093816165,-0.00294583176685788
0.196971884116688,-0.0284314454155998,0.0176615611120935,-0.00322537073207172
0.157234495152384,-0.0510691806922291,0.0139572643783497,-0.00262925078320801
0.0760431782991435,-0.0440420026923871,0.0143044916604425,-0.00178853831141453
0.0215644567306209,-0.0127226293494384,0.0181816600458346,-0.0010829915946111
-0.00930928330141381,0.00336208935627043,0.0191410691488346,-0.000504743163500253
-0.0590282281764822,-0.0147634441478511,0.0127841550464049,0.000341150494337887
-0.146357123539646,-0.0291071612207709,0.0027522837781549,0.00148645929900591
-0.224810499467933,0.00884279948436602,-0.00297034268530803,0.00256752681794241
-0.231101357588799,0.0826013792135743,-0.00191543327982614,0.00333733529619595
-0.176913991146857,0.129846180676811,0.000908207212594207,0.0032525290202592
-0.0996328914097904,0.119361358644035,-0.00227607799548915,0.00169110317738782
-0.0321631453337117,0.0816822482496009,-0.0103043818523426,-0.000903705554418626
0.00766321248003912,0.0505206501799744,-0.0120331020153572,-0.00306937606277262
0.0253105858121744,0.0197852522972704,-0.00222845645521054,-0.00392149020622873
0.0186243295368743,-0.0173459960575953,0.0131679366409775,-0.00381995069360369
-0.0019184548275898,-0.0471127218467964,0.0247277256936356,-0.00325965639218161
-0.00993053344924218,-0.0494202462959938,0.0299108929853279,-0.0023035549136483
0.00468152967636204,-0.0185864755014042,0.0305281288231882,-0.00105173658988864
0.0220684300534207,0.0124398682962177,0.0280368075923591,0.000601664262983533
0.0217825996347617,0.00442900998362398,0.0268577394155622,0.00267644510149445
0.0113811676695156,-0.027692603866796,0.0323415151216907,0.00417971236707121
0.0111920893843405,-0.0523258421698111,0.0389040577215026,0.0041390484285708
0.0357065323993986,-0.05940645313085,0.0370353259516002,0.00257975187277362
0.0704488489124989,-0.044682526260168,0.0329419913316748,4.31603476402148e-05
0.072516057976598,-0.0226372062291296,0.0315996847822938,-0.002591051531359
0.0389020143659471,0.000758232658107968,0.0287655645894763,-0.00435807638668965
0.00787414903785674,0.0372863726504586,0.0266868875450039,-0.00470117611637298
-0.0157859663460499,0.0732086504487245,0.0256583879683253,-0.0036975760665694
-0.0434835662085881,0.100810918474434,0.0180589680009584,-0.00170342293187471
-0.0557018008146011,0.130501613685309,0.00420898349575675,0.000666192876644313
-0.0370191456000319,0.146471831665012,-0.00492672189095917,0.00229640020670287
-0.000652944678076754,0.126159892749022,-0.00308573831867814,0.00264691414006248
0.0322332113531567,0.0862195755979262,0.00358950682874195,0.00195148650566844
0.0479333764878449,0.0586591348947149,0.00571419647561881,0.000342498160293053
0.042086594413771,0.0365570678693357,0.00259858910193502,-0.00185931621765918
0.0177375763690964,-0.00244713487974085,0.000740826794365598,-0.00388822164481606
-0.00927905258153186,-0.0473320246750657,0.00263387248883973,-0.00506727318122046
-0.0177154150332978,-0.0708593638128036,0.00316897514581661,-0.00517204535344193
-0.00225361149299388,-0.0676061059630768,-9.03504235476461e-05,-0.00452100191089954
0.00332848726185014,-0.0493090651144519,-0.00448855247267629,-0.00348901661125712
-0.0353442143006626,-0.00890395368041169,-0.00631717515538755,-0.00180977064584841
-0.0713827404700818,0.0497097113174572,-0.00272018201438296,0.000761331962508147
-0.0520599329093841,0.0742814083736158,0.00169801676628964,0.00359777250337419
-0.0224744202429514,0.0531119773421562,-0.000387844822586056,0.00536299481992666
-0.0266495444730476,0.0342245001768867,-0.00822583036849651,0.00526029571784654
-0.0341601662117096,0.0332633869689413,-0.0150178188282251,0.00392295146750925
-0.0214193443004906,0.0300685951872247,-0.013750412475169,0.00240401446915573
-0.017871220438639,0.0155163128756978,-0.003435208627459,0.00119472986740377
-0.0346898377742943,-0.00485845546473554,0.0074003333220011,0.000446293280718677
-0.029506064448096,-0.0352490299424356,0.0105126577592009,1.74752335919221e-05
0.0155962872262775,-0.0699120923678362,0.00524114660491087,-0.000662387191529008
0.0709992777296628,-0.0792768103408677,-0.00613488470513484,-0.00169984038505429
0.106270571480974,-0.0558730688675157,-0.0216457276063664,-0.00220830805509926
0.106678682591756,-0.0161684644322691,-0.0450124163563563,-0.00118824388649864
0.0763845840459008,0.023814747697076,-0.0735966700062114,0.0010391347520178
0.0348696146921986,0.0547928609415279,-0.0897746094602606,0.00268511401331478
0.00720740146909575,0.080306902054465,-0.0875605380903093,0.00262370856168544
-0.0014813850523676,0.0892377267263531,-0.0765038424585763,0.00182186881112814
-0.00274577309127053,0.0700053664414644,-0.0635220501035991,0.00160024948952116
0.000414586728078609,0.0431431159859198,-0.0526886401585389,0.00166682476663746
-0.00216785258354478,0.0196822235943698,-0.0407998790680904,0.00119561263289474
-0.01907297528334,-0.0163712911826443,-0.0190038400624111,0.000308724382012407
-0.039117030092516,-0.0689192446972817,0.00805125564889736,-0.000466268913864545
-0.0451400741002538,-0.106806735593122,0.026105653627519,-0.000831720931358757
-0.029092674744869,-0.0860309894436943,0.0302935714195353,-0.000698094923187533
0.00178130608521426,-0.0136145882493007,0.0255107164216435,-0.000215096793923564
0.030857211640005,0.0480496265957031,0.0207041911686008,0.000272563592572869
0.0386785208436433,0.0696925546328847,0.0218390232975927,0.00084453562233177
0.0254227643417882,0.0805862201394123,0.0260135476979431,0.00160705874192168
0.0247148125256936,0.107563509240116,0.0272112765599333,0.0016867980298171
0.0482543600779177,0.144386637020323,0.0211119460092262,0.000597651494866371
0.0478041295410657,0.161255464445959,0.0069379158649865,-0.000586653900855079
-0.00267470640596855,0.132663667833298,-0.011843989287462,-0.00101219882768372
-0.0601155115758375,0.0714651545219446,-0.0277232795416103,-0.00137049062018823
-0.0844147957737455,0.0161636047065758,-0.0362159118175823,-0.00215122267223664
-0.0551550730112392,-0.0406025625730965,-0.0373456554842288,-0.00212924678476697
0.0153615412036314,-0.122786233907071,-0.0316552345047269,-0.000216129790464042
0.0498060256138436,-0.183947913028764,-0.0252465478579732,0.00282291387876903
0.0233510357286687,-0.180141325921645,-0.020368446592431,0.00568747725613047
-0.00203501990694021,-0.135414226529789,-0.00933466967722216,0.00742618815732614
-0.00189562860047631,-0.0930726871628067,0.00688739676335941,0.00712561285205823
0.0146193503127962,-0.0644159289943829,0.0183976593066186,0.00466724648408297
0.0403433633296908,-0.0414130274912802,0.0214280883388907,0.00137096075936814
0.0539059088295509,-0.0206684511497118,0.0193466900595982,-0.001120517456513
0.050764756190506,0.00483350429544252,0.0206854381200601,-0.00210057466303093
0.0433094906958351,0.0292530103491668,0.0291454143473552,-0.00149492374527939
0.0353869624403204,0.05007273909707,0.0390351292230364,-3.89656624390772e-05
0.0297381031355761,0.0743729778623984,0.0441481598670348,0.00067228000619515
0.0259007391081781,0.0896530363971932,0.042144807353314,-6.25276405569813e-05
0.01740585361408,0.0626961687454776,0.036588991868427,-0.00126463240224631
0.00152788240022251,-0.00991425663096207,0.0323469314148646,-0.00173451046629866
-0.0161798516004526,-0.0632146960268916,0.0297290131243464,-0.00139953886399121
-0.0225658579638399,-0.0609838343141984,0.0278270521228248,-0.00076081384257923
-0.0179766352440775,-0.0283586833912368,0.0209327244384741,-0.000242967528797913
-0.0170766492441001,0.00354970530135228,0.00635477301884181,-0.000431336541684975
-0.0206575443076594,-0.00899432490732456,-0.00166392214136249,-0.0015656856306633
-0.0259202638038585,-0.0697507012211477,0.00968107617873381,-0.00306796856868494
-0.0315038513671897,-0.125091520366209,0.0328000490953058,-0.00425447432231459
-0.0272772246002945,-0.137174101364218,0.0490003004375351,-0.00469225834371537
-0.0223334966729121,-0.115955381794833,0.050725608269557,-0.00397684313462266
-0.0383353483217193,-0.0928401416624489,0.0454376588131172,-0.00224116767535242
-0.049823873693793,-0.0763095581302016,0.0398469142699314,-0.000175648518342023
-0.0233081775763317,-0.0601947315779266,0.0357390181164464,0.00189466336210414
0.019118543649301,-0.0554665771831652,0.0319000455716023,0.00356164606374164
0.0467191547258659,-0.0605616556139997,0.0226391444815916,0.00363287836283017
0.0448565551506618,-0.0533613268569864,0.00456891946322454,0.00188506463663066
0.0194735367287564,-0.0307974562588593,-0.0122170183551982,0.000251928541972396
-0.00390621129311314,0.000607408151819722,-0.016700784559522,0.00046042935354527
-0.0167995721374681,0.0373352540730702,-0.0177804019652595,0.00169834375999867
-0.0399227100320563,0.0715990386802754,-0.0278671759536407,0.0022006672241259
-0.084348884554718,0.0960139252562125,-0.035283692462336,0.00170279715183802
-0.110705295831681,0.0935514868627148,-0.0265712704388508,0.000582781104017785
-0.0775945286495521,0.0522857622972394,-0.0129818967217448,-0.00129732217354467
0.0063678618884789,0.00988045303494844,-0.00476533197556424,-0.00350303450095018
0.0930053578524661,0.00528602430303707,-0.00213315731224236,-0.00420733778219165
0.151266660049521,0.0183674175414418,-0.00923177965628225,-0.00116961930242555
0.184135415597304,0.0228439875308312,-0.0272133967248308,0.0053355443688207
0.178551136927533,0.0185345667968543,-0.0442882861332494,0.0106950582315742
0.128277822942842,0.00458150715085816,-0.0418551327630301,0.0101303967284552
0.0572257922151197,-0.0241615354128501,-0.0214620193156108,0.00386875540477874
-0.00632081452894331,-0.0511132696273212,-0.00878997088194045,-0.00396174097041424
-0.0598545575753362,-0.0370274075051386,-0.0139314228815529,-0.00958598623500686
-0.137968638612491,0.026566798900588,-0.0249074625060831,-0.0117046757762081
-0.219752673275784,0.0960272480403978,-0.031095079157464,-0.0107954404523384
-0.22844497913136,0.129235609814127,-0.0292716343652213,-0.00818975690499138
-0.149888390512247,0.112376366990313,-0.0244215666212574,-0.00514833298463592
-0.0347179556492634,0.062591192555771,-0.0223712030801342,-0.00198551214020921
0.049026014348081,0.0216878558555409,-0.0248582490357131,0.00123682704638873
0.0687422350321196,0.00260267824488213,-0.0283688271671677,0.00419085726074138
0.0591247350041575,-0.00740628029279553,-0.0278909490591886,0.00625669376046413
0.0488784173727185,-0.00776043054780988,-0.0240486883067232,0.00698050901965686
0.0189299616909703,0.0156897129551337,-0.0189682328143218,0.00654885207461415
-0.0170281889855513,0.0506180982644154,-0.0135273099971358,0.00511607196362603
-0.0209396770106532,0.0558657460528412,-0.0081856876463307,0.00296417403571012
-0.0137406212687848,0.0295774334065951,-0.00577562689427144,0.000983583114469246
-0.0263466118051629,0.00726851578281005,-0.00813292618493894,-3.23341056051567e-05
-0.0462102614577433,0.00630559232612603,-0.0117031973689287,-0.000115145495714228
-0.055031210527777,0.0149555737428121,-0.0139604954913468,0.000120148903241255
-0.0555131390367281,0.0252814711342048,-0.0128833269052497,0.000112168799308321
-0.0527300084143849,0.0401150560973578,-0.00846677229574278,-0.000425413001513323
-0.0410037813842588,0.0475451746446761,-0.00506527851001675,-0.00123166333856928
-0.0210528378390617,0.0337925854951388,-0.00357996031289595,-0.00146564273975822
-0.0038788246198391,0.00840092991270039,-0.00156437740027285,-0.000924051394771775
0.00532281341234195,0.000659378299913471,0.00147886535938999,-0.000530284405921739
0.0232044973036556,0.0212584160863281,0.00409556183804909,-0.00088762433466722
0.0464977629191417,0.0399861961740433,0.00459445196129249,-0.00157324894723355
0.0320566647849275,0.0283392988874474,0.00262089743614441,-0.00185333406047617
-0.0130950921246745,-0.0172665975135436,-0.00253431138255903,-0.00160413594091986
-0.042797669272543,-0.0772136752912913,-0.00796382844881338,-0.00128141843387988
-0.0562086999975854,-0.115271419859786,-0.0079081237788453,-0.00118203497336497
-0.0546276362834927,-0.118500775936758,-0.00318222419699691,-0.00104706675168748
-0.0203625781964541,-0.105224489107605,0.00437978225770657,-0.000427847927779451
0.0204411261606869,-0.09641661329293,0.0125842879597085,0.000144305965011884
0.0274924571495416,-0.092967417089756,0.0140090394392276,-0.000221809051577234
0.0104062866581621,-0.0696177897304272,0.00827325750305322,-0.00121015181732919
-0.00836806173569041,-0.0112224423489393,0.00457901801767835,-0.00198739589005509
-0.0295484346251267,0.0530056125125463,0.00462008893668236,-0.00228755713477828
-0.0485417826926106,0.0797144968838955,-0.00100115308520774,-0.00198904566066863
-0.0543903674454588,0.0716365638096627,-0.0117122443874277,-0.000836619798388762
-0.0521881495465659,0.0659073892617697,-0.013535817348781,0.000826138836469311
-0.0533423650838685,0.076265402959173,-0.00921597792342777,0.00186932386116743
-0.060979957068289,0.0947588408257582,-0.0131172637822483,0.00136920173545636
-0.0607856742640323,0.105749658376368,-0.0262101748536209,-0.000475002771700446
-0.0335069591832567,0.0953673108910404,-0.0358227991114262,-0.0025146991837972
0.0146512860288231,0.0539327861273519,-0.0307392258884291,-0.00363341276438331
0.0631301617892251,-0.00881625186328769,-0.0186062417194211,-0.003566823322292
0.0934167809592651,-0.054147512100201,-0.0095951789685392,-0.00261982967388232
0.0975807516228046,-0.0697646636836619,-0.00472326215377897,-0.00118141494076585
0.101975077436548,-0.0655135760344213,-0.00470737600156149,0.000514922453611839
0.122911535788698,-0.0489908958352416,-0.0075268609248174,0.00221959633185211
0.130130770459029,-0.0395788859799735,-0.00747243213773769,0.00305901777430834
0.110093572741381,-0.0427499015975673,-0.0032529688718097,0.00248442891250687
0.07458720885368,-0.0472044368190579,-0.000872388060814736,0.000977019223939596
0.0264292421383441,-0.0443581818135881,-0.00244084417582861,-0.000681860393677317
-0.0237828384540409,-0.0291164812051966,-0.00357812913710016,-0.00167727345999439
-0.0593568287364092,-0.00862826614409769,-0.00268911240735387,-0.00156502982202048
-0.0725667177697544,0.010076606932851,-0.00401954124890237,-0.000746803828737325
-0.0680822196977443,0.0326134367579965,-0.0119231406334132,-1.29049325599048e-05
-0.0489280319930524,0.062328741780733,-0.0207367391938701,0.000355304706988058
-0.00582757900474633,0.0881269590281948,-0.0222748885315468,0.000448431270824346
0.0464019651769043,0.0970336513503011,-0.0185708792464039,-0.000131458349412287
0.0737592110788734,0.0905156706174448,-0.0156506930230879,-0.0014440179805787
0.0723678767593892,0.0730088756361078,-0.0126228034129053,-0.00231162583655919
0.0582299243085772,0.0475501746320384,-0.00383664514528942,-0.00188438203772176
0.0434725690480046,0.0254556437408722,0.00693489482335781,-0.000569901118221528
0.0332990886355547,0.0167086095644477,0.010292371823928,0.000821049398827629
0.0195311081581222,0.0134532480273484,0.00633977662222286,0.00156005322109562
0.00156223341831582,-0.00127538466025587,0.000424798541739629,0.00153483414130007
-0.00515644247421588,-0.0288993932566016,-0.00190846129961981,0.00140306073209034
0.00171278265948958,-0.0501004152113377,0.00639436348010933,0.00187694362810233
0.0128073638685414,-0.0452960215783201,0.0227249468055729,0.00293085813586833
0.0194081935085415,-0.0256212433507169,0.0366987380879585,0.00328698785704422
0.0126740316354225,-0.0239644572638728,0.0436808505784236,0.00174243673009039
-0.00221563609118404,-0.0397517204882763,0.0443742920903167,-0.000930833755209169
-0.0109219419978951,-0.0435891666909615,0.0412530765973565,-0.00283744041900942
-0.0133540442561789,-0.0247081843384744,0.0334818472801997,-0.00311754506317469
-0.0179327751110269,0.00482693923887529,0.0232316393979171,-0.00226053807679196
-0.0251809383733266,0.0227481542431179,0.0150822786761228,-0.00121176457220546
-0.0328822837468671,0.0176174642669034,0.0051100589479739,-0.000470953199150573
-0.0391926369306084,0.0110188912915524,-0.00539206129132398,0.000542232522004449
-0.0383942530927779,0.0222413997396812,-0.00889249338054868,0.00202085762484128
-0.0214051117656957,0.0363824704662609,-0.00780043415010747,0.00264816924679158
0.0155058142972642,0.0417057211036148,-0.00763446236955505,0.00195530203525448
0.0536756067282347,0.0427927490775274,-0.0102786221206778,0.00128524501210422
0.0683730795265952,0.0378849815423611,-0.0129191487654517,0.00181588320522929
0.0579251222474987,0.00510537193459821,-0.00382263026049248,0.00332966191357379
0.0253236713381264,-0.0800752880942944,0.019261115660392,0.00432366863527934
-0.0266346108938186,-0.168474539532149,0.0391789549132088,0.00342502866888995
-0.061678208224243,-0.162712706304872,0.0434080755309544,0.000948402737556153
-0.0353224737494491,-0.068247096204947,0.0355289006175476,-0.0015118098112684
0.0210921614666227,0.0156808943916167,0.0212537224037365,-0.00263622021268775
0.0332740775773906,0.0470966098531275,0.0062530151706587,-0.00238219639879539
0.00118317198118146,0.0588430433918585,-0.00366283550766787,-0.00162269992974942
-0.0265073874434839,0.0644464042783341,-0.0106407996779706,-0.000990777238338845
-0.0273606762381368,0.045834758143405,-0.0112837460842116,-0.000777046646630094
-0.00945320164929389,0.00760572637551061,0.000382881592982932,-0.00107485934728771
0.00173641845849628,-0.0245655029720729,0.0114741324745639,-0.00167356709041162
-0.00182832707359088,-0.0378868077755215,0.00891902777642229,-0.00234092175981776
-0.00514330991785576,-0.0302306446661187,0.000247976369955601,-0.00260596704374067
-0.00874975190349542,-0.0012267688985262,-0.00833039444494358,-0.00208730405219598
-0.0159956912869855,0.0292264290598815,-0.0211251352610505,-0.00100726922725024
-0.00939891798184402,0.0315375999998409,-0.0305214095130702,0.000615721315216762
0.0116871712883061,0.0109789054228173,-0.0254714821842442,0.00286295410534725
0.0281032379740447,-0.00756133793921711,-0.0125861314585816,0.00487829817077181
0.025491738152748,-0.0224145000822944,-0.00435655328165006,0.00544786163207255
0.00172078956989185,-0.0398715623088845,-0.00437500035450052,0.00438268934664329
-0.0203903087029099,-0.0545238414590012,-0.0076113142407201,0.002683037831156
-0.0292611639735349,-0.0593922100012971,-0.0084879531775082,0.0013708193502893
-0.0482977639347937,-0.0449826901998577,-0.00914750136022638,0.000521984404325978
-0.0758935811652664,-0.0194207227918275,-0.0147447578127132,-0.00016620708449107
-0.0754248794962469,-0.0165046092588405,-0.0251507822630105,-0.000572794397203136
-0.0541489498626659,-0.0307916660182372,-0.0376543588986687,-0.000538785685630223
-0.0469282559252226,-0.0213223699450805,-0.0436597049304655,-0.000491196352961498
-0.0461629175831232,0.00801282925191027,-0.0337856960747739,-0.000962522789611969
-0.0340378920224004,0.0253554610829671,-0.0157602181456137,-0.00181054615384558
-0.0167789593133041,0.0290105164272024,-0.00296829749273319,-0.00231443233388174
0.00194682618466808,0.0316624790726821,0.00400599746736246,-0.00173050498570341
0.0190833130111681,0.030503177896753,0.0078931395561787,-0.000118381718029096
0.0204285486736254,0.0198178590688728,0.00879586875630328,0.00138166573319982
0.0117623214368209,0.0106698853694399,0.0119392820459498,0.0016924522747855
0.0165998851998021,0.0147304822923296,0.0204369647531702,0.000763725294905245
0.0397360206317491,0.0267656937757862,0.029380580953958,-0.000683016546366911
0.0684367304274585,0.0437697507782444,0.0359790910341366,-0.00178132417238511
0.0842467656551594,0.0557273602798859,0.0393053072296381,-0.0020244926428139
0.069626564055896,0.0362905500484047,0.0387176808870319,-0.00136721725322378
0.030851785986724,-0.0206962870083704,0.0378011235613471,-0.000228887832641515
0.000227052208751383,-0.0881348774792698,0.0389488642601456,0.000942199085214471
-0.00622332787298463,-0.147518118708007,0.0397476102174905,0.00177224262827871
-0.0116727754947956,-0.198201911124523,0.0355634713487948,0.00172560275000895
-0.0292126941643599,-0.212079605156015,0.0268738081950564,0.000934262501403209
-0.0381039585441479,-0.161513822744315,0.017610025241251,0.000287484637268831
-0.0285308678431452,-0.075609506067233,0.0131272379048394,0.000263881590135665
-0.0239816327578275,0.000287492901511838,0.0131285062168463,0.000307691148207155
-0.0364218283325378,0.0673212178200199,0.00982316838473841,-8.26399816004595e-05
-0.0300845645057318,0.140668341940605,0.00683486288759739,-0.000506144161320533
0.0116438058690729,0.190191128618015,0.00967809613412317,-0.000540498532836895
0.0449222644250491,0.176941534749336,0.0156127226731972,-0.000303173197901188
0.0397849230722962,0.119189103926848,0.0215003593886912,9.82774310056048e-06
0.0354485034677307,0.0606636248969591,0.0261498523972718,6.9598430278436e-05
0.0491492652200439,0.0164382387761972,0.027745885349792,-0.000954723899159584
0.0231232236669664,-0.00403623723496027,0.0252874149269721,-0.00307187497905186
-0.0305806920339693,0.00548473468748395,0.0189994003180884,-0.0044741981229666
-0.0315832703427463,0.0152279718865982,0.00849752944092528,-0.00328473842991427
0.0190272913670794,0.00488108836572576,0.00122709620927986,0.000105236456281799
0.07985187170401,-0.00875179530489492,0.000694675451191784,0.00325552948280784
0.133794856720041,-0.0106821110663382,3.40796886922033e-05,0.00430921232433876
0.144571891619113,0.0012895174203198,-0.000196713648509844,0.00332080688607781
0.0889222986566481,0.0287511966543316,0.00355874972082534,0.00146156392207433
0.0287718612184487,0.0486866868778785,0.00690267171523846,-7.27101533123109e-05
0.0354620080428684,0.016946695252295,0.00706689762654494,-0.000809654548661319
0.0752870176406456,-0.0485144845091175,0.00649382821849216,-0.000973329046081093
0.0830344702174147,-0.0853739801492751,0.0076005222763605,-0.000994387752655476
0.0546716719696017,-0.0754067447777767,0.00744395515150686,-0.00112981883943261
-0.00486569742747213,-0.0388705950268331,-0.000150076096985072,-0.00122636595004848
-0.0925189728655047,-0.00598422257537376,-0.00854694247416043,-0.00109315773302796
-0.162730692528579,0.00179496866269425,-0.00573737929849279,-0.00104505083853683
-0.190220991126673,0.00110924092640943,0.00217623262825889,-0.00127409544425738
-0.186266799888639,0.0180990525974438,0.00367484457815952,-0.00144942875467703
-0.135028284137998,0.0411749491282294,0.00473432189495567,-0.0015534643545494
-0.0479733019376446,0.044548087950734,0.011555472251679,-0.00206619910912382
0.00962610866573185,0.0311557581002537,0.0167383630209102,-0.00285218330822807
0.00848985964465832,0.0213953735408839,0.0166275429459807,-0.00297642654212376
-0.0123150389245287,0.02518317182894,0.0138752688846652,-0.00199813299911678
-0.00807445635321241,0.0455989180450419,0.0116600067164676,-0.000182898091437986
0.0274512017808588,0.0728557419767033,0.0125424640344068,0.0022265588781604
0.079404970922531,0.0825428747446525,0.0128103839161437,0.00456892331663378
0.111736479261879,0.0804689106806301,0.00779594815780752,0.0057316675935656
0.0926719846889846,0.0968307360808651,-0.00222529642830882,0.0053677875311975
0.0520827866989334,0.121479011609668,-0.0126166375316801,0.00419412342315187
0.0261468373138575,0.102049208093644,-0.0193041671861393,0.00295827074474305
0.00283184950081464,0.0214738790469269,-0.0252945740111599,0.00153566180072716
-0.0283281972446735,-0.0680268420446277,-0.0341879117459039,-0.000618072621140696
-0.0547850309684502,-0.112151054081257,-0.0427890342121442,-0.00334355314147221
-0.0617309752754079,-0.108638694739746,-0.0414216993329761,-0.00521144943357521
-0.0484977072599905,-0.0805342737214713,-0.032808820878675,-0.00498167778587739
-0.0350739816675028,-0.0356528004353887,-0.0330849713312708,-0.003246225951632
-0.0335695321816523,0.0170357422326378,-0.0399243135583288,-0.00141445695188561
-0.0363974839931033,0.0526214357680888,-0.0387534152776831,-0.000382000430081944
-0.0408191249481582,0.054442856939353,-0.0263558436568087,-0.000323842181229564
-0.0465576276291315,0.0202870299976364,-0.0111450215819798,-0.000772675913173932
-0.0513400697843566,-0.0334542447632595,-0.00364847836513903,-0.00102370671581405
-0.0533073729585518,-0.066617679086139,-0.00403479667954698,-0.000511547532147345
-0.0417163057260566,-0.0630688857837301,-0.00340784432968973,0.00109921708333182
-0.0182880241779526,-0.053073591786888,0.00267369584483412,0.00319167034898548
-0.00177149078818156,-0.0550452191141123,0.00927586867325377,0.00454099720820365
0.00785091655105829,-0.0465094833060951,0.0108749669783727,0.005024147567676
0.020936187263508,-0.0121597018371199,0.00833532408437578,0.00491333643072112
0.0335870579665927,0.020962978888276,0.00775049559766496,0.00371212613918085
0.0364985037599228,0.0276335914577303,0.0099363948216544,0.000943271796264564
0.0294534450729685,0.0163279530319229,0.00918221433164102,-0.00276832091389802
0.0309013686136902,-0.000968207795524917,0.00910195821088232,-0.00575099405651597
0.0665170629677177,-0.0196068404380058,0.0145621949067719,-0.00679865693867817
0.125847796999466,-0.0406671526987995,0.0204900215498335,-0.00569022837057919
0.153646716466531,-0.0627839227496346,0.02275944834082,-0.00295633121664505
0.118228499859269,-0.0673884695715858,0.021315427998816,0.000191396152922804
0.0563843635697274,-0.0463321724142499,0.0164288201717013,0.00254300172644485
0.0138845869891762,-0.0115852963484124,0.0106030747446207,0.00306837874896568
-0.00889881792172514,0.0113541126362479,0.00731764822796308,0.00177407891150594
-0.0365065882623548,-0.00169240263147102,0.00485832047533303,0.000152767004662592
-0.0847444181790773,-0.0407389522570579,0.000112793317894183,-0.000451280254182989
-0.136374088589237,-0.0758457229572112,-0.00541159994149439,0.000251428115839443
-0.146346581375049,-0.0712890524021719,-0.00628671223972904,0.00149854834766723
-0.0901158172069763,-0.0158479836673187,0.000845173685251825,0.00214102069748964
-0.00119441866050701,0.036940843049493,0.011052057435079,0.00180556735968474
0.061815233504467,0.0396950585867539,0.0196546040150983,0.000846324946993873
0.0800459259803055,0.0154069157953833,0.0280871967541109,-0.00021244401819514
0.0679285952774262,-0.00526711463377505,0.0342047224562108,-0.000803336327434772
0.0333228881243558,-0.0142994242653785,0.0321933436176275,-0.000577881727670836
-0.00564994217019512,-0.00417776930350237,0.0213867917165832,0.000482779052620941
-0.0158781817643759,0.0108418176046748,0.00649750640723457,0.00216821561727108
0.00441386630733168,0.018023274429265,-0.00807088054139145,0.00344904650630983
0.0189568065812487,0.0254232642554987,-0.0212493554591288,0.00244357324494344
0.00432043392065646,0.00564055420665185,-0.0240975331236512,-0.00152938139314079
-0.0290578674322021,-0.060272301821307,-0.00762280802422258,-0.00623952718522097
-0.0685395456463547,-0.108639137585895,0.0130327300322286,-0.00843018525231544
-0.0947655999056001,-0.0848161672459801,0.0210651960114472,-0.00727406308096641
-0.0806513165795911,-0.028976823640156,0.0173204052529329,-0.00438400253767001
-0.0417873400275308,0.00106626918033813,0.0110048612195023,-0.00135982339454279
-0.0112825395637181,0.00810604721831086,0.0100866035223754,0.000946370639281027
-0.000612212660446865,0.0165623085226898,0.0097796450831475,0.00212451081126968
-0.0179822430752897,0.0311778720696175,0.00491884372586129,0.00241767732678574
-0.0548730500488154,0.0431606619422745,-0.000827226100822719,0.00223260271829924
-0.0795545777056276,0.0370107050869716,-0.00285681331488789,0.00189600541904941
-0.0784304199925286,0.0068765290176586,-0.00195641465171841,0.0024678420472513
-0.0643236674335847,-0.0274189581816781,-0.00131672688367052,0.00483528234826583
-0.0579122839335885,-0.0407615142420528,9.70375863973347e-05,0.00755534855877079
-0.063112600097768,-0.0340772187747526,0.00271972080466015,0.00787135171761047
-0.0452155385723277,-0.0240346039764506,0.00590924180068746,0.00501386654625545
0.00549375697079805,-0.0180943602156103,0.00711179722327377,0.000825487020457842
0.0448160297536162,-0.0133204709482499,0.00563708498021967,-0.00227623997055447
0.0522472122183676,-0.00937821868188776,0.00505738135563726,-0.00361613179583129
0.0570233871694074,-0.0106171469728658,0.00500870193910068,-0.00451975366980959
0.0753270911954562,-0.0161494306085874,0.00292585233427367,-0.00579379151653029
0.0901125111873814,-0.0203796924951039,-0.00357599271991762,-0.00664838494860693
0.0855518795775731,-0.0113534353132377,-0.0145497771753368,-0.00640096727160212
0.0499205953577074,0.0296826738222507,-0.0251871440007763,-0.00506638628699427
0.0186803766979056,0.0829847772194174,-0.0321019501545464,-0.00290895272366992
0.0307080036722074,0.0956869170529582,-0.0370513585352225,-0.000538018534709548
0.0217925963141136,0.0714195342563974,-0.0400604880441763,0.00142468218191792
-0.0593458723266356,0.0473859557804847,-0.0377938867782627,0.00270154350086224
-0.144089928031855,0.0282486311762402,-0.0313674763267067,0.00341937385184404
-0.152051203929666,0.00433423167371054,-0.0262526172624677,0.00406210025170472
-0.0993131560653553,-0.0227630084054937,-0.0235694939726586,0.00481532986783843
-0.0427658652917814,-0.0374610289544068,-0.0201972820084384,0.00520077664603838
0.00225946088831189,-0.0412651127608579,-0.0187178492141579,0.00510749123409616
0.0375541962966743,-0.0442342526799829,-0.0232155089225353,0.00480098763823616
0.0636521155304882,-0.0265402316021142,-0.0279355350726439,0.00388101178292343
0.0890277647185418,0.0115277792981745,-0.0288295158213831,0.0020336354003388
0.106417435533267,0.0225750290888014,-0.0269049944526315,-0.000161561519075011
0.0973889655192461,-0.00826903561719868,-0.0180562337003516,-0.00198487570266835
0.0835027521633964,-0.0421460128817461,-0.00868609341705949,-0.00323527795362364
0.0950212241312152,-0.0441893202890584,-0.00980594526156501,-0.00354937059321652
0.107173892140918,-0.0285696357023713,-0.014046222663706,-0.00248183202267676
0.0900848153052616,-0.0163053909251508,-0.0134440793325995,-0.000601797645154768
0.0534494962643203,0.0079750821421486,-0.00722542048975074,0.000689071273457563
0.0134200107642624,0.0382987360049846,0.00437591227254563,-0.000105344236899033
-0.0140155146601996,0.0532901005915489,0.0085026238730459,-0.00292158262944801
-0.0126011688263328,0.0576334692392435,-0.0107913165618617,-0.00527208749910775
0.00361705112707406,0.0560999557620588,-0.0408261514819429,-0.00498395125646729
-0.00264281589811325,0.0299317238799071,-0.0534973140651823,-0.00255578263157516
-0.043878097679148,-0.0184461387909945,-0.0460313613079669,0.000182252692735697
-0.0763514690642765,-0.0582280959080173,-0.0293504417867,0.00226811905673056
-0.0564125585115891,-0.0751337454251376,-0.0127997211939042,0.00356175157385299
-0.0107284799220525,-0.0582393515556123,-0.00366106263440497,0.00386059367587946
0.0157374749358516,-0.017153104225325,0.00210813488766236,0.00321920205187708
0.0183839654505377,0.018634611976826,0.00655369730708638,0.00203144916177084
0.0220992085607269,0.0349767931906563,0.00552123508459872,0.000589131735237843
0.0427653621943928,0.0276928651940302,0.00310890275019243,-0.00068017154540386
0.0558173259618342,0.00156358256103185,0.00671430181450975,-0.00108989116372644
0.0349512805912815,-0.0234434996635089,0.0136747945776051,-0.000513857815030154
-0.00135998344857414,-0.0243941155289094,0.0124843257645477,0.000191111113454176
-0.0252284864989683,-0.0069223127386507,0.00285977603606171,0.0004680235721488
-0.0357357991667447,0.00890115319384476,-0.00277417764667584,0.000838411627771861
-0.0321536202847687,0.017090945146865,0.00227280341855145,0.00146586378332165
-0.0186512897540241,0.0118345429838728,0.0138275014864527,0.00182693825250769
-0.0315312782989998,0.0110100054266382,0.0227832292517462,0.00194276220212965
-0.0613993956609649,0.0566712524429006,0.0238709143257689,0.0017812792012667
-0.03938491068314,0.123776900203377,0.0204710922813615,0.000499472367325264
0.0194279727000236,0.131769824382643,0.0235224161251469,-0.0021068315792498
0.048517762813072,0.0522110529101915,0.0313597554165397,-0.00459640553828461
0.05240771023353,-0.0549130188399658,0.0297738826109669,-0.00545089764211317
0.0454920791463653,-0.0933809174210951,0.0151349536308643,-0.00451030500829108
0.015861962957018,-0.0556601207505895,-0.00611928249879774,-0.00268691703504643
-0.0220102507054635,-0.0195399991859219,-0.0235342176783685,-0.00120959468481363
-0.0488331702764341,-0.00968250914170976,-0.0283047542342261,-0.000428371668126498
-0.0630947384924501,0.0056696503859161,-0.0225862738862361,0.000271180916308219
-0.0585319284454749,0.0185293378477927,-0.0170377846421703,0.00112780484493698
-0.0455714773626399,-0.0026132681518214,-0.0162454592287974,0.00186218968854757
-0.0445665875278564,-0.0298999375601044,-0.0175935700368322,0.00229301790225734
-0.0430036180939742,-0.0273330426534005,-0.0174957881426703,0.00243757792390011
-0.0262953715794748,-0.0185276175790912,-0.00929896836160434,0.00230507836400962
-0.00986049820510607,-0.0196956605619677,0.00535640231853427,0.00154876778212248
0.000804104125163151,-0.00712746467764297,0.0154959132522726,-0.00044675370028029
0.0322320497078172,0.0179576123147963,0.0179400830852959,-0.00364351182908508
0.0818446229627287,0.0213017422235902,0.0151265012135753,-0.00623730444786
0.108730738560259,0.00645306100454972,0.00968937349215017,-0.00592506558473079
0.0993134676807077,-0.00465558013454461,0.0129202047690504,-0.00265751899791629
0.0639089464869882,-0.00364613091636623,0.0297416343952348,0.00116937256789183
0.0337261608498097,0.0196853666168258,0.044704241005222,0.00306335872113434
0.0383289219916986,0.0444140884731818,0.0450233729462273,0.00268743857501232
0.052644862891372,0.0289067033149563,0.0355267158094223,0.00157862413441367
0.0490908837816467,-0.0271476262158679,0.0238934131176751,0.00138187380909362
0.0298977825400243,-0.071280238110803,0.0120859589800126,0.00274753920910637
0.0039572301613504,-0.068733014183718,0.00667324158015223,0.00517064888206697
-0.00594776020168038,-0.0324806708120703,0.0132901437494337,0.00819114978393482
0.00124080326892736,0.00879126492007201,0.0277262558584234,0.0110366202507076
-0.0135437515176205,0.0265354282720152,0.038074278520541,0.0108644261753852
-0.0589590621540422,0.0291757616579351,0.0353781837480822,0.0055424206345698
-0.0945994853706555,0.0423888132548393,0.0266692386102985,-0.00255774867151008
-0.0952409541338968,0.0476451381452894,0.0218264589536243,-0.00896953241539545
-0.0620074127000326,0.0274183811592952,0.0162371493052052,-0.0116894900102806
-0.011421126256311,-0.00412633078341827,0.00924599092743665,-0.0115539596324591
0.0297861506274611,-0.0525447406902294,0.0105689704218436,-0.0100548786775136
0.0542866749002191,-0.119308349460017,0.0113053929055095,-0.00801845270964238
0.0613504285790488,-0.153068030580349,-0.0013912794875897,-0.00501501866668035
0.0507713140444357,-0.112740928242881,-0.0168370185855072,-0.000669830511091454
0.0384661131364135,-0.0312345224186391,-0.0236920627791865,0.00367375174840748
0.033025222463845,0.0213953659500431,-0.0246934868409846,0.00617145692404011
0.0276285674443044,0.0108621342290232,-0.0234341495535515,0.00632683831165854
0.0132861020022169,-0.0241387099147459,-0.0202923039300964,0.00526149142943854
-0.0277342016361802,-0.00961373777082085,-0.0152997634452725,0.00464524302329693
-0.0730440403984366,0.0553224195837249,-0.00991892482498793,0.00511995005257691
-0.0618836120681089,0.0911039692823093,-0.00581423637584136,0.00578441523267018
-0.00787232520440662,0.0744379413668351,-0.00246142288752228,0.00577144749933662
0.0285387961309738,0.0453899841563868,0.00232675455088695,0.00526285743799113
0.036161304491918,0.0215823726619404,0.0109866903883322,0.00451413381301664
0.0367819416765038,0.00152230278014095,0.0213606350615899,0.00317291652533182
0.0375251695412692,-0.00739252959802597,0.0275018595697544,0.000842846892452616
0.0337122812673375,-0.000616280810612727,0.0290081141873988,-0.00164918711803111
0.0268692475304914,0.0027293784496728,0.0306677926754047,-0.00245658100436871
0.0162208548599406,-0.00973798687026474,0.0315673497502474,-0.00114985636116584
-0.00181875203064971,-0.0133901477729148,0.0266661967597292,0.000454739932898571
-0.0352793765698364,0.0160767980223152,0.0199330475943862,0.000456149755268095
-0.0660156058681728,0.0542741143058764,0.0199420312994908,-0.00137278001799607
-0.0643006620239967,0.0603835377012333,0.0231848725565543,-0.00392450075039027
-0.0582772072932588,0.0335093350094936,0.0196068636027808,-0.00601997930066505
-0.0651708333835328,-0.00540518792981476,0.0064336122367013,-0.00715226657954213
-0.0600537917856121,-0.0294415640309339,-0.0122574808088998,-0.00744337018172474
-0.0571642981657623,-0.0240730020689258,-0.030035773020597,-0.00683831544918146
-0.0759513600107189,-0.00892238852881194,-0.0386717895428683,-0.00511879987214613
-0.0844030154506741,-0.00093420724803004,-0.037136736967628,-0.00286595208722783
-0.0555967733277789,-0.0036052666533158,-0.0357797257456156,-0.00116174468411571
-0.022587497344521,-0.0133831383754816,-0.0355392911137082,-0.000275821461245327
-0.0235911596023179,-0.00801161074495547,-0.0294613598060744,0.000500349298371882
-0.0367370824173187,0.028685790390493,-0.0229831823557774,0.00165899775748429
-0.0139816801676055,0.0727579859027883,-0.0227763883773645,0.00296683411863534
0.0574608331640785,0.0909026924486884,-0.0226200403535955,0.00400801882292093
0.127885551351497,0.0838394188703609,-0.0174349401621669,0.00479991319001067
0.132832140173488,0.068398333364826,-0.0131151254104797,0.00499220829581967
0.0810440364727593,0.0475920651342243,-0.012498054531181,0.00366182595929684
0.0309080184278219,0.0135426957592981,-0.00750740927471065,0.000923865783472979
0.00570464814740906,-0.0337100273160281,0.00554308677418466,-0.00211768955255204
-0.00932121583200886,-0.0694815589785098,0.0154067284913072,-0.00461985789471495
-0.0313883295920247,-0.0672349596796391,0.0137444403845835,-0.00631069898798028
-0.0638887651036186,-0.0406832994638823,0.00650106145836219,-0.00720932328456369
-0.0923765568703485,-0.026210497255573,0.00396036554804501,-0.00743334681174717
-0.0988739320948559,-0.0351134672628312,0.00992786581650945,-0.00721130362450772
-0.0816601419500834,-0.0562315116262406,0.0187668941797669,-0.00647578085342845
-0.0568148993814646,-0.077831583260028,0.0219893002914643,-0.00482255675745572
-0.0351669310561156,-0.083761152016071,0.01329025844012,-0.0021221458268098
-0.0192511124924986,-0.0707712951097925,-0.00415326079041255,0.00110382929729801
-0.00851120776588657,-0.040643426362293,-0.0194088738421874,0.00348005592022067
0.00681230280673725,0.00420436306270904,-0.0270815682968233,0.00365040485534555
0.0396365614855237,0.0276087845223244,-0.0318779277324331,0.00229528390738854
0.0890469950402807,0.0106916507582377,-0.037400167045014,0.00207357022315536
0.110854278503964,-0.0187540634410279,-0.0359409935237822,0.00399029589783585
0.0710056187908933,-0.0394392753010541,-0.0234557551935893,0.00589924286477458
0.0111368398692972,-0.0375273484588738,-0.0084223832029118,0.00548125812721015
-0.0199236802296796,-0.00698189728152815,-0.000350361078637451,0.002465188448832
-0.0255095714609962,0.0203006156306562,-0.000905414973688141,-0.00148049262774361
-0.0275647725132849,0.014247109310267,-0.00231305745470691,-0.00427313428170782
-0.0315459171904191,-0.00989218950233822,-0.00141972549957563,-0.00525264757344225
-0.017793483204892,-0.0307508760577556,-0.00230867539935794,-0.00506817732737811
0.0298239909197045,-0.0334758038703553,-0.00115374453727624,-0.0042516393910136
0.079960970392368,-0.00562850792606349,0.00870539421586299,-0.00280026142694486
0.0938239585224474,0.0287491513602172,0.0208695463838124,-0.00104153751237555
0.0773943474151985,0.036545635714395,0.0227244648271908,0.000596427625377421
0.0640228895790619,0.017328968740128,0.016266344127306,0.00231149491538378
0.0789091530183873,-0.0104257550197671,0.0150297073452795,0.00405731103294423
0.104558307404127,-0.0250285855448297,0.0189106645348755,0.00529863726474076
0.091393568229564,-0.0259077064623437,0.0156243788490393,0.00555206283242708
0.0192845216502494,-0.027388626073094,0.00327999423213077,0.00483526280833921
-0.0553546963501598,-0.0181648256112643,-0.0117043518542311,0.00424011708943665
-0.0642632249908206,0.0110687310223952,-0.0233855558591403,0.00444274517125683
-0.0248060374049222,0.0326800946126666,-0.0315891782031177,0.00426396279048117
0.00338554516795806,0.0368075571836576,-0.0391973362985746,0.00292371880597689
-0.0122721182759961,0.0710579211919342,-0.0435814092133489,0.00146340913548718
-0.0409628213127415,0.140814698109808,-0.0414968939811563,0.000795902379278377
-0.0131527949970701,0.172796264545048,-0.0336723959561995,0.000567501090731889
0.0500844678291769,0.138747371383567,-0.0233660117127041,0.000142865307683893
0.0707258047653496,0.0678836321884055,-0.010233193858369,-0.000655914390166135
0.0498810488266753,-0.00997678750923883,0.00502642587471727,-0.00159339101699987
0.0303405983600592,-0.0595881760084724,0.0143837979804352,-0.0022084727051185
0.0238927932445823,-0.0648075393298557,0.0147287272712836,-0.00234968863667784
0.0190848907511883,-0.0469214538399629,0.0113529998119802,-0.00218497280900658
0.00258184577851836,-0.0339397670169587,0.00857285301207559,-0.00189781479226607
-0.0281725477795548,-0.0309029070001252,0.00625782070552841,-0.00150844889522692
-0.0627091553981543,-0.0262654764771387,0.00331739716181324,-0.000942563298694563
