0.003182242032788,0.049715392208917,0.00989592306111782,-0.000559466225057954
0.00863829706237566,0.0256724988636043,0.0104896423746172,-0.00127816004768434
0.0121409479946346,-0.00261749062774547,0.00798614498748887,-0.00106549896217981
0.0154180531542068,-0.0138140106597802,0.00448330546317144,-0.000374446301289549
0.015299443675906,-0.0158831744744795,0.00209978174093347,0.0001594653134858
0.0128990333487958,-0.016920538698132,0.0035610564887225,0.000207215233071444
0.00971595941637123,-0.0146518052933085,0.00540660913270964,-0.000214088204875607
0.00292547807454196,-0.0119755234704511,0.0040860194643627,-0.000714124263238274
-0.00352950305147116,-0.00911748159061904,0.0036879153636144,-0.00101826785713206
-0.00402879395735229,-0.00579208650677526,0.00486708332893596,-0.00104612711846584
-0.00227597012429294,-0.00600827613128857,0.00507225590811829,-0.000724269589902813
-0.00201533692369545,-0.00992892967296357,0.00568219399913178,-0.000213567029743302
-0.00443667148648726,-0.013948493802358,0.00797158391349909,0.000186158118589611
-0.00803858229007877,-0.0158812345921245,0.0119962241852673,0.000345383907124234
-0.0110003062692864,-0.0167946348789857,0.0149204283629135,0.000349306937774577
-0.0159294623927753,-0.0194374597317863,0.0146474416247073,0.000166811607046615
-0.0193745602404817,-0.0225158635697948,0.0138732032049113,-0.000261419138510213
-0.0184219062052103,-0.0198966237280539,0.0133349113803928,-0.0007223298934493
-0.0165435294566314,-0.00889812341387428,0.0119863790585056,-0.000870218372393072
-0.0125530252927538,0.00643766751362436,0.00905062241739426,-0.000627845429808941
-0.00641584182221896,0.0181824949213677,0.0048998807385754,3.87280561300169e-05
-0.00420708552729896,0.0199515490018018,0.00187081828776086,0.000947743447914939
-0.00671752293379799,0.0164436490792916,0.00205388537584404,0.0014622318706578
-0.00748120665601261,0.0164217525892195,0.0037999243378711,0.00125350126840951
-0.00429787456477815,0.0173820678400015,0.00348970342303768,0.000789159305699062
-0.000660583040823604,0.014532414630354,0.000901680892589059,0.000835550266224114
0.00106284802184356,0.00983627666166009,-0.0010553901344203,0.0015763064611248
0.000963300924435997,0.00138840666451338,-0.00379762494915608,0.00260776919213682
0.00263327174281585,-0.0174400621085597,-0.00969787311998358,0.00359065596896518
0.00518847263533699,-0.0441241977919762,-0.0146725110922157,0.00417651462688597
0.00400531164829716,-0.0678618747068613,-0.0155325103385622,0.00375084791035125
0.00417060547667205,-0.0837159662356991,-0.0137054420964031,0.00238896666378668
0.0100971264380615,-0.0874175477501547,-0.00920360311319162,0.000701386807417881
0.0153975824334398,-0.0807521729306669,-0.00247721654402038,-0.00107080540118328
0.0166007983393702,-0.0757507504055284,0.00222566912838579,-0.00241679224486454
0.0159898517171893,-0.0688016827033585,0.0037613434716413,-0.00278993377877088
0.0106449877496144,-0.0542924948865482,0.00482262980810611,-0.00220423114074343
-5.98539628448441e-05,-0.0402269524439352,0.00579256601282742,-0.000942350083499823
-0.00657633907348473,-0.0256899773087192,0.00506957540062212,0.000430140637742688
-0.00628749043533677,-0.00460873936997691,0.00304223404648085,0.00132711504430225
-0.00673006464489629,0.0264735408277817,0.000697606997983409,0.0017314867905029
-0.00739582932833232,0.0685773169292185,-0.00135656027945707,0.00214604384805086
-0.00317061039728304,0.113209473767387,-0.00183241954724953,0.00266766734625369
0.00305758293981825,0.143682431936686,-0.00192375108271163,0.00304587335916424
0.00791864249777096,0.140390011749198,-0.00440889331631283,0.00321207395589457
0.0141129959438066,0.0981867460151455,-0.00991234637980474,0.00292264254144424
0.0227742933982339,0.0354314685021502,-0.0166113596788748,0.00211604227487979
0.0284416801647379,-0.0216465230615314,-0.0200174475959261,0.00134713044083132
0.0253955671661879,-0.0565316693735583,-0.0190299181621459,0.000888928841963559
0.0190168518244735,-0.0674668535973738,-0.0189222322851786,0.000370480210634369
0.0158148872167095,-0.0615346312052772,-0.0196375056352668,3.91928803924872e-06
0.0129158616181393,-0.0500066600576086,-0.0127757029645597,0.000230319664543011
0.00756493990440736,-0.0414378466880877,0.00159135317365459,9.62640846201555e-05
0.00182984482886089,-0.033829351880101,0.0123085285069688,-0.00148595355618217
-0.00161483452586628,-0.0274976881787147,0.0132051521809678,-0.00355830189189171
-0.0041732716226732,-0.0214283980384273,0.0111641701644895,-0.00453695860612233
-0.00940830068719931,-0.00698929112583727,0.0119901757619152,-0.00441061292388672
-0.0168100098262476,0.0142719960039891,0.0105965311925579,-0.00380186260289609
-0.0212920030849416,0.0378646081134179,0.00674293443775636,-0.00259751193296896
-0.0216851199812373,0.0593060727988831,0.00463048570536751,-0.00042919085422205
-0.0185667217594051,0.0668033162667204,0.00197928989404921,0.00241470359151176
-0.0131238197112987,0.0604160269115128,-0.00363985796309675,0.0049988946089505
-0.011888479630233,0.0543617369971419,-0.0105742822633395,0.00632867899330681
-0.0136878338095878,0.0502338157128164,-0.0131159626640784,0.00554160666154613
-0.0135339943318605,0.0403025894037571,-0.00585182520013336,0.00262021965939569
-0.0137962869096924,0.0269388704233803,0.00660667131846248,-0.00071992360388626
-0.0137654609866284,0.0182661627190748,0.0130878680352114,-0.00235360059044794
-0.0120446873626076,0.0174072100189259,0.0110303750892936,-0.00196345402243646
-0.0102947849658423,0.0192667526016797,0.00680057729439817,-0.000808009214106303
-0.00609000323675252,0.0191701640746821,0.00530186855141867,-0.000266544419416311
-0.000512231195708753,0.0211328983415288,0.00899755293243983,-0.00163835327466098
0.000966769040943194,0.0265726117023888,0.0131183476113833,-0.00537578468176137
0.000978474075392742,0.03101812440077,0.0120808682332046,-0.00929173735618501
0.00358513854386743,0.0319476371833202,0.0088852958890807,-0.00962974183781018
0.00455330004443114,0.0294342376706091,0.00639823419894161,-0.00518496585090744
-0.000376246561188297,0.0243654477982064,0.00413554483764198,0.00134703503029247
-0.00754830210643137,0.0164866202092111,0.000474397567141801,0.00633273255163745
-0.0139693546194521,0.00865739084258647,-0.0038977856692789,0.00805060292206659
-0.0212811193425932,0.00212243011665899,-0.00484865327676054,0.00688233807114344
-0.0297370487535924,-0.00434077272386872,-0.00240926125919876,0.00441352431002295
-0.0359323347021936,-0.0058353477412321,-0.000257188780023176,0.00264392476985441
-0.0357085660073278,-0.0022528093387381,0.00184523211681144,0.00170847774712563
-0.0316719012647414,-0.00699351793407286,0.00391439473017241,-0.000208076700904398
-0.027726652382875,-0.0244925585756277,0.00434510871445095,-0.00346306905629999
-0.0221607551751759,-0.0365555265643986,0.00504137900215358,-0.00614687499194754
-0.0132439343992058,-0.0358466820467756,0.00706192328904441,-0.00605682098379383
-0.0040598555610609,-0.0346560225401035,0.00721849733613853,-0.00305832567467235
0.00443256573348273,-0.0365216282572036,0.00541245856015368,0.000635749808662198
0.0148678580760418,-0.0363383273763856,0.00317075578014054,0.00290033397543715
0.0233838026003949,-0.0354424674649342,0.000838382032647311,0.00310958876527073
0.0262087658017999,-0.0425756525696255,0.000965362180396431,0.0019480868797519
0.0253726791393048,-0.0585893839327419,0.00197986734228334,0.000534276266420087
0.0219494621989242,-0.0756941213142382,-0.000116189036719921,-0.000405701009885742
0.017837876292274,-0.0866582846523476,-0.00507154266687047,-0.000445861293169958
0.0142261077620383,-0.0876258499063083,-0.0094310104904748,0.000308208108768597
0.0104368390741956,-0.0797408986016519,-0.0113491204718048,0.00105882466211007
0.00783336141092779,-0.0626240121677895,-0.0109254790046971,0.00146592452942271
0.00584556840385288,-0.0389632472319059,-0.00816058663179593,0.00161579041835542
0.00298622642519403,-0.0199408379536851,-0.0063858562655767,0.00119902624245495
-0.00245215559912708,-0.0107485039071461,-0.00650529288460602,0.000223433521342599
-0.0131356442909793,-0.00391132153942921,-0.00459455464608203,-0.000829268577401507
-0.0221349014078671,0.00266027624003792,-0.00220446267858236,-0.00127707819566794
-0.0206232229728009,0.0105525796453261,-0.00306501922443804,-0.000553961602183796
-0.0149791414122126,0.0348043135353905,-0.00395927695132266,0.00110580894078603
-0.0154098027339776,0.0777887205906568,0.000186383664124603,0.00260594926196887
-0.0215064220520066,0.112888730610028,0.00710853095848776,0.00241949709554775
-0.0219106073220951,0.107055464104362,0.00926902666632573,0.000416799099337954
-0.00982106028758376,0.0600470905925548,0.00569172030391113,-0.00159839378223271
0.00584738364369806,0.00831932245696204,0.00236666522289891,-0.00231990835271395
0.0168415380570892,-0.0218565606018049,0.00280476856757279,-0.00213979873259041
0.023026076572864,-0.0349057335794587,0.00424654474263976,-0.0017660010756408
0.0249096671618236,-0.0400149260312532,0.00258482486900648,-0.00129068902437257
0.0261627415647793,-0.0378764822354038,-0.00160309736784588,-0.00056055875757784
0.0294537300938515,-0.0290625309127488,-0.0057302939298784,0.000469128016802157
0.0287721951079321,-0.0160573864638416,-0.00875141731802186,0.00122578129279523
0.019929512069371,0.000424487805409868,-0.00968477447844147,0.0010864209814427
0.00954417100762385,0.0161114756197229,-0.00934417787468224,0.000460116497976965
0.00363831868442283,0.0222282512478527,-0.0102453586477061,0.000289371457306227
-0.00166567130071974,0.0219575320255848,-0.01224683392822,0.00103718324584131
-0.00841523921624387,0.0229749777270182,-0.0115588858825468,0.00233021897641292
-0.0121538596891653,0.0205443971654332,-0.0063110475702539,0.00333966216059491
-0.0103872249540936,0.0167390276099184,8.20936334684601e-05,0.00350757156622679
-0.00474760739967134,0.025197819684455,0.0049239550002902,0.00287082666160808
0.000561607609443824,0.0451945992432435,0.00823613427799503,0.00176701456954073
0.00168516325800337,0.0606554683633357,0.00905365054075837,0.000226236068383319
0.000492006083182445,0.0615381225173576,0.00522122531540405,-0.00186544501611728
0.00196503407509582,0.0518714158856979,-0.00036671198557434,-0.00399296113271686
0.0054475622115599,0.0395786379362856,-0.00243897437873798,-0.00530188532112813
0.00938713402806383,0.0285027350796812,-0.000610832060477733,-0.00544007370692742
0.0122475516978078,0.0224488377003638,0.00338051192561977,-0.00485107374395841
0.00874241411164667,0.0197982881813074,0.0060686776635776,-0.00409387466333567
0.00147449716177518,0.0142474781508673,0.00361347264499688,-0.00309916903912921
-0.000967006852797745,0.00627920337110482,-0.000845401445151134,-0.00161055541245649
-0.000348819175884129,-0.000553310208067263,-0.00288277081578481,0.000334218812369756
-0.00361425756091962,-0.00287640249278582,-0.00449464385265611,0.00226594015524476
-0.00815011673812095,-0.00169505911203434,-0.00651982530994937,0.00359868389780212
-0.00478230100890547,-0.00315549913327019,-0.00893757702341689,0.00425598858171293
0.0104744520383491,-0.00974020275768989,-0.0116354444422333,0.00437989482523593
0.0299909344975216,-0.014304001438773,-0.0123572971024225,0.00410630009263045
0.0407706137291736,-0.0059129221455393,-0.0114605745366963,0.00384459789732989
0.0385876612207965,0.00831194304360946,-0.00978515227381828,0.00368835084849883
0.0339879903539233,0.0118541059096064,-0.00879539434210558,0.0029263808284694
0.0346656015508441,0.00468381537056205,-0.0112545563383006,0.00100650470124452
0.0337235406387433,-0.00783069619286287,-0.0171990753797339,-0.00125182974042652
0.0279697662499806,-0.0250264185331662,-0.0239351297134013,-0.00227650214805925
0.021692589256627,-0.0399139581980387,-0.0285495678821318,-0.00164033598447251
0.0126848679287119,-0.0412152790890354,-0.0284419336517718,-0.00037701819326479
-0.000966703606315591,-0.0276484117056876,-0.0220655071060865,0.000225509095327128
-0.00916311341049103,-0.00271756663999528,-0.0149674776525116,-0.000175994683970029
-0.00613855296425481,0.0281277476884375,-0.00968533510132084,-0.000809140736894413
0.000945549927480465,0.0415142084857671,0.000492345109074848,-0.00140079893479022
0.00302713816239524,0.0302749226527664,0.0153486030413304,-0.00264442326415054
-0.0023573183903011,0.018543336436947,0.028311108892233,-0.00431975911503258
-0.00597819211376034,0.00827518252734437,0.0342119127862236,-0.00518703899434905
-0.00166256619775251,-0.0160835569008257,0.0331726831532908,-0.00468200125522496
0.00469951772832685,-0.0464286083508057,0.0279870828632036,-0.00317494901550478
0.00518614037457383,-0.0483159551159746,0.0196638735165853,-0.00114020323148422
-0.00128529160780136,-0.0105328802461499,0.013240148983086,0.00101159478803468
-0.00753638265809249,0.0295383293885973,0.00933716493850503,0.0028928126180918
-0.00958578360228271,0.0455317802354758,0.00287016208287559,0.00427523505982292
-0.0105047104360125,0.0420879043579288,-0.00458730093345407,0.00490502303899749
-0.0099718604263429,0.0255273904110234,-0.00900480621097809,0.00472737723291001
-0.00563258981362159,0.00583303888125573,-0.00921697253806562,0.00404196883769527
0.000717176516993677,-0.0038073388390301,-0.00599515433047711,0.00299291811536526
0.00798313452185709,-0.00337157405811383,-0.00218197694567879,0.00155884090358433
0.0149482789850509,-0.000973915437684957,-0.00060621032382302,-9.91183358265762e-05
0.0160592971979906,0.00295644980637193,-0.000797901759883701,-0.00174569939305174
0.00857860434198385,0.00853221549662137,-0.000650818768416755,-0.00314059048187368
-0.0011030304561761,0.0124605158772557,0.00110073607664348,-0.00427267242028295
-0.00740648140408646,0.0160231194984961,0.00431129012084032,-0.00531213765826457
-0.0103874769908668,0.020068645167908,0.00796001282819279,-0.00596566109393897
-0.0111496491470987,0.0246351132828673,0.0115735385008193,-0.00579981080483702
-0.0140936179974591,0.0285065915479205,0.0155825222430463,-0.00494208569251301
-0.0196114731280196,0.0295032442968635,0.0199735795265772,-0.00377900165030782
-0.0230228755474359,0.03261297771691,0.0224042286805076,-0.00262964632916254
-0.02502544472666,0.0400975425543515,0.0238799132262661,-0.00154415156020886
-0.0259368452452647,0.0470525351062782,0.0278781243443932,-0.000313518470705077
-0.0226288453360536,0.049755088996603,0.0313214859688293,0.00087759370719761
-0.0141902955185747,0.0431980278762832,0.0303933557776097,0.00151045795302906
-0.00290463170150021,0.0297396119461455,0.0263207214939162,0.00154811693936889
0.00954816687363641,0.0198057332399098,0.021586840920286,0.00151928344104929
0.0210087946408964,0.0164505094209277,0.0171807910635532,0.00163613052282328
0.0255796374895846,0.0191871218600378,0.0135055439445717,0.0015710152568235
0.0224472884658112,0.025774946405038,0.0115627738967242,0.00125433655443706
0.0168275725894723,0.0274096971487447,0.00954303616697875,0.000960374281738242
0.0128591659694451,0.019542398454623,0.0053215691707442,0.000717813409831753
0.0100097307390242,0.0111482804593699,0.00199949483535018,0.000245604096101448
0.00587280937510896,0.00882468632403543,0.00193194727769918,-0.000412889908417991
0.00188017352877636,0.00725687727949237,0.00213757593181556,-0.000680358973629476
-0.00137097479490685,0.00427652493283693,0.00139332648384309,-0.000208637172800548
-0.00728456782821086,0.00106697281719049,0.000511727503025848,0.000622487771931567
-0.0152681847757098,-0.0021122599337513,0.000119110629431469,0.00110734289273449
-0.0189446321431222,-0.0059807107168407,0.000670335425098873,0.000854236513690908
-0.0167346863581427,-0.0100442694624806,0.000505676830406066,0.00017738574912693
-0.0118034248191125,-0.01333611649049,-0.000268895726015307,-0.000204011019635306
-0.00583217264059944,-0.0164021574721189,0.00116629049407291,-0.000212679906579023
-0.00247811860349042,-0.0171034557016562,0.00486123127268652,-0.000357783923948866
-0.00321217793763595,-0.0178632238434989,0.00982070061297251,-0.000648972529407785
-0.00196207303608471,-0.0190239697789693,0.0153758053155119,-0.000669760408453807
0.00502151624062937,-0.0145765560419851,0.0169019847526264,-0.00022753813585928
0.014960574269279,-0.00528686816369524,0.012092221065076,0.000518610386185221
0.0229256641577288,0.0014821855496999,0.00539033458823985,0.00129908480820177
0.0243064137202718,0.00208508528384206,-0.000422286441736097,0.00202801242280844
0.0177222096186857,8.04848614801533e-05,-0.00438462755190055,0.00257859319195572
0.00697994551453962,-0.00090087600291803,-0.00441570436701947,0.00266097420651045
-7.46638051188412e-05,-0.00124832642636943,-0.000292897845716649,0.00221026471541262
-0.000548887154442958,-0.00123418731722825,0.00334408871668132,0.00161619615800095
0.000343456405219506,-0.00320365124695913,0.00132583102873436,0.00158408925536518
-0.00121292165444934,-0.00862992111526869,-0.00392301831636373,0.00229765653309025
-0.0049590660219792,-0.0132995001020047,-0.00794355590897677,0.00286095652544093
-0.0087184990782187,-0.015760578872122,-0.0084310347408481,0.00259759133100712
-0.00922028994839852,-0.0156726502560761,-0.00725991777869019,0.00186372035627143
-0.00735975969854617,-0.0101183738752805,-0.00715696626457328,0.0010276295494248
-0.00741833351564892,0.00126410299815522,-0.0047475991692848,7.388642566296e-05
-0.00783552600631774,0.0124296970424062,-0.000703855197978141,-0.000860943002918241
-0.00776549239258684,0.0159304695667858,0.00181198991699172,-0.0012827952714523
-0.0100058915857799,0.0141391124139358,0.00364377836867778,-0.000808491567256306
-0.0106650265871764,0.0125891103769137,0.00382666752582627,0.000486172312924338
-0.00688374349861223,0.00844353753047046,0.0029397643169707,0.00237919399376263
-0.00333541693108625,0.000354715837833933,0.00364788875382456,0.00418285398807336
-0.00344065733422666,-0.00433036827017097,0.00474446332586534,0.00429128201990844
-0.00407969810890989,-0.00264260335514314,0.00288547464020053,0.00145831848166889
-0.00264688504926168,-0.000890559114840914,5.62435500631742e-05,-0.00361683936499042
-0.00250557226761407,-0.00332594799229632,-0.000700612107710104,-0.00840342912244588
-0.00548244618064056,-0.0122460029599902,-0.00103163160923762,-0.0102820636772654
-0.00748371758162451,-0.0279518535046074,-0.000175469791372947,-0.00848512271430994
-0.00797907466742983,-0.0440530671211708,0.00313741298631747,-0.00460412076020228
-0.0104566971091358,-0.0498082757228325,0.00632245818686212,-0.00103715108151618
-0.0155417895221185,-0.0395070216138811,0.00564686459921788,0.000935640953214511
-0.0210467826115778,-0.0223089062164727,2.63374106628479e-05,0.00134701999731211
-0.0233457225402377,-0.00939181765643564,-0.00600414787907094,0.00101658778423467
-0.0199844489524008,-0.00222963217978382,-0.00885568575518048,0.00102224713122746
-0.01285002767984,0.00174002007465387,-0.00894770298180591,0.00188569636082731
-0.00932336999587824,0.00148542473763588,-0.00817378856199486,0.00291103261518255
-0.00847656683779079,-0.00511187955406112,-0.00729287326472214,0.00325745323890463
-0.00392674249534994,-0.0139970545334889,-0.00397082749858573,0.00324121004136186
0.00197590342152983,-0.0212328345477885,-0.000170247306666802,0.00309161546130359
0.00714673006625046,-0.023720468860861,-0.000161330913063949,0.00258006260932396
0.0113525520893423,-0.0186538474199057,-0.0034622187981371,0.00152048753979594
0.0131353760699766,-0.0107954896925477,-0.00757175255070766,-0.000665379126825948
0.0107990015226091,-0.00373002394908249,-0.0105264175837956,-0.00381063212202907
0.00603125489121619,0.00851192283298796,-0.01220721199079,-0.00607310896222568
0.0048349314447077,0.0280170244598541,-0.0121785429925021,-0.0060403783947263
0.00921666314622923,0.0456943327184425,-0.00867774389708261,-0.00439722534423622
0.015952205526649,0.0509977185203941,-0.00201596913828676,-0.00276763403319792
0.0199159643919549,0.0397625483726674,0.0014948151717827,-0.0021060252792623
0.0177668360610886,0.0115232470111979,-0.0041513356456951,-0.00187719371002817
0.0104272237799069,-0.0274596429366531,-0.0120027786844587,-0.000880176039339775
0.00547244261426723,-0.0602690412965296,-0.0136709642395674,0.00108675921257879
0.00716985717926052,-0.0751447874555298,-0.0138173465525065,0.0030814447039092
0.0105849820035941,-0.0732193314555689,-0.0176914244247918,0.0039686903909214
0.0127523937744583,-0.06910112602872,-0.0208735724407867,0.00324518800757695
0.0147795763053343,-0.0748908080406011,-0.0178915558680369,0.0017045823698173
0.0184558026222365,-0.0874594356419079,-0.00864794588433267,0.00083616099719016
0.024493138207857,-0.104146496801856,0.00204602720391895,0.00101541681907625
0.029238866163742,-0.115195834868833,0.00654116062776052,0.00183570443425873
0.0274907202443315,-0.100633721076301,0.00441744006858755,0.00318649336337923
0.0220394254625208,-0.0617640214461948,0.0012291171701003,0.00460823537393255
0.0146773044992422,-0.0174165027309926,0.00109286112569638,0.00551795629892232
0.00245803195279964,0.0296592280005455,0.00585338933361249,0.0052513973432668
-0.0102961971453479,0.0802400852688407,0.0107386900077667,0.00312898757334223
-0.0188543592605997,0.117070943231432,0.0107319840439049,9.07184033528425e-06
-0.0214708032734493,0.118743283513795,0.00495394102031485,-0.0023914400973049
-0.0160267122832893,0.0828074663803682,-0.00337835327175963,-0.00297650131704127
-0.00499237769105267,0.0279605516438928,-0.00880373874728341,-0.00134239722098725
0.00511884897837894,-0.0216472527516245,-0.0104288956007148,0.00142260299767081
0.0101292325535951,-0.0500805663008932,-0.00900632976807002,0.00335063319870233
0.0125356094616488,-0.0520437179457589,-0.00710555044012261,0.00370721464641635
0.0163882156198802,-0.0311184172820544,-0.0059737368870075,0.00289021005239909
0.0215401257954741,-0.00732127782705871,-0.00427590398151987,0.00140984923827803
0.0246182216151556,-0.00158082806330772,-0.00351537010627134,-0.000480280112123431
0.024354732328973,-0.0108612554521497,-0.00281476288695696,-0.00243802433610287
0.0229097724170485,-0.0190112055115757,-1.09727773978871e-05,-0.00333409278159734
0.0193056061414074,-0.0173258841643437,0.0037921468296829,-0.00233724152981487
0.0119441463959572,-0.00945703879584601,0.00685736297263577,-0.000542984109003718
0.00620394757202589,0.00117716289653349,0.00939113894683837,-7.54248196263834e-05
0.00399197396196308,0.0163691201004296,0.0116353250916778,-0.00141046707188611
0.0011403934301886,0.0281765661962466,0.0125350566605454,-0.00276426066105533
0.000504214393175881,0.0248595788099732,0.0107165160754242,-0.00237741904217121
0.00273800191640155,0.0117200962127225,0.00640364587586478,-0.000305349915283917
0.0022936933077811,0.0037381973888488,0.00372065000813898,0.00213015354516223
-0.00171840825515501,0.00349288207936161,0.00447057871953993,0.00401158277017773
-0.00530747349026204,0.00463995996720736,0.00512616438499165,0.00504812537093786
-0.00587889637613215,0.00806933747296119,0.00490699399647485,0.00472976017523674
-0.00701683016114298,0.012529888597554,0.00722452751304623,0.00288528284132748
-0.0105356070997714,0.00633284411721879,0.0108685859044323,0.000158612119656932
-0.0122213616117621,-0.00614149774941517,0.00987756945905479,-0.00254989557543644
-0.0113183022715712,-0.010797941237708,0.00564362903051801,-0.00438675204125528
-0.010572559438419,-0.0112690722325826,0.00551507996658121,-0.00504157118611284
-0.0118118514660191,-0.0119793980682397,0.00755982859704589,-0.00502160800727366
-0.0170528562177688,-0.0141372695740177,0.00688839396263028,-0.00477070718146774
-0.0224900650467827,-0.0216082370734484,0.00351463816682445,-0.00395775329516789
-0.0220099569153572,-0.0276094013840636,-0.00313105647062141,-0.00238618789124255
-0.0176223685105241,-0.0212205280981228,-0.00931089036309408,-0.000667100173011926
-0.0117650340981798,-0.00224784594113484,-0.00886931190273168,0.00054322843625657
-0.0044253839820376,0.016391315314738,-0.00323305697564068,0.000999944276926346
0.00324639635381667,0.0220867696825049,0.00227126110501749,0.00102133996900402
0.011527315396583,0.0208475223375576,0.00622243338719106,0.00123455324293006
0.0174401672061988,0.0241544882069703,0.0102170461036075,0.00191054216803712
0.0157852574247895,0.0242927576508951,0.014027271591937,0.00263983215956103
0.0101040879440712,0.00694755533975862,0.0156146269533915,0.00255105405185639
0.00653741358063621,-0.0181444853523779,0.0134021406685568,0.00127347511946069
0.00368505489049241,-0.0274289293591089,0.00911005939290612,-0.00100158954630352
-0.00362688508901622,-0.014058355059686,0.00636707746104651,-0.00393342770107047
-0.0158259330522928,0.0117694551337495,0.00496335542693364,-0.00626586330197374
-0.0262126513636657,0.0331563422788766,0.00293804899839024,-0.00641929372259299
-0.0294950419092078,0.0336156345312052,0.0019015240432214,-0.00448365593985017
-0.0269406778239447,0.0136039875296322,0.00447363377208329,-0.00186132275105582
-0.020653295140203,-0.011388141384756,0.00686032387283913,0.000274785454450266
-0.0121586152912113,-0.0296125464591529,0.00411450679459204,0.0014275595075259
-0.00688043210948625,-0.0365073424187113,0.000184646812784798,0.0020125223793574
-0.0073854853928812,-0.0344143242875363,0.000138881625923308,0.00263024711466798
-0.0102340666542193,-0.0275992922159361,0.00139313548090864,0.00307155892680354
-0.0129546323376759,-0.0206738780929058,0.000489676254640492,0.00304088775709292
-0.0140271331724299,-0.0166222979066775,-0.0019168128501725,0.00274487362443687
-0.0111324019618211,-0.0116121478669372,-0.00358711891081473,0.00237863899902273
-0.0056856580245268,-0.00317056978421768,-0.00359745699300763,0.00194556439711862
0.00145300356968716,0.0034507662355563,-0.00287081953119234,0.00152572047426372
0.00901369719923254,0.00646404347283838,-0.00259439351214634,0.000965716936812871
0.00951671631961478,0.0110590464210876,-0.000434733376813415,4.02493287715768e-05
0.00439055658095641,0.014984830944884,0.0034166069679768,-0.000747684826559147
0.00160464871383165,0.0166231064094575,0.00471280472705172,-0.00104731527752769
0.000258988124349635,0.0166689413525736,0.00307991433667789,-0.00126242278257765
-0.00337745208888484,0.0145217029043206,-0.000504100529297035,-0.00163925850589898
-0.00752982710550683,0.0156491730486061,-0.00330027095251184,-0.00202002935612
-0.00776494861142684,0.0195718662643101,-0.00349144040663737,-0.00220854549375194
-0.00681968302984987,0.0267569219455704,-0.00325636574694197,-0.00210520605824721
-0.00676442468346198,0.0419189194771069,-0.00392188605121413,-0.00172117368168897
-0.00462663046721193,0.0560023364415261,-0.00464348368420148,-0.00146479643104212
-0.00477605200640442,0.0575643070344322,-0.0046299387106868,-0.00165944791936829
-0.00962123980299651,0.0492681857607184,-0.00568090824341669,-0.00217679213263955
-0.0141828977070627,0.0385528162742949,-0.00791195946853013,-0.00307552045761568
-0.016175764816566,0.0264987785285544,-0.00763034327307589,-0.0042269432916036
-0.0162276799366805,0.0152990192046545,-0.00297387729222404,-0.00459470629749488
-0.0152996866914373,0.00811147079930327,0.00245716289275727,-0.00326483698249719
-0.0145902785695858,0.00394017221121268,0.00539133402116876,-0.000618938629513272
-0.0120767234427772,0.00504654818834934,0.00679384192858993,0.00228167614216618
-0.00477196581918739,0.0103056528806064,0.00474981489275011,0.004510704199595
0.00200965064234906,0.0102867100921367,-0.00148312263226626,0.00584488484393468
0.00346839008145911,0.00363160306707793,-0.00549790870780653,0.00636297168234758
0.00385467150704651,-0.0016190004494886,-0.00563515869198146,0.00547173738156374
0.00540679878909818,-0.00217299994187241,-0.00608164600108289,0.00288179631469304
0.00449080314142419,0.00157292131549681,-0.0056961945957297,-0.000305928793521314
0.000523450703194231,0.00847652777566732,-0.00389274839599577,-0.00255945476171974
-0.00258892159771738,0.0152670632425653,-0.00418229122189823,-0.00317116225940039
-0.00365011936353078,0.0211047160208149,-0.00681211955278446,-0.00248879696216323
-0.00127594429539185,0.0239199271850057,-0.00852087665809542,-0.00161586436354129
0.00308638177222526,0.0197314950562383,-0.00878176638579847,-0.00131638180745848
0.00562577786787311,0.0126138885061807,-0.0104708031406125,-0.00143319152640776
0.00870511652094287,0.00849467272767561,-0.0122628426161631,-0.00161639230994006
0.0122983548734708,0.00538434551459263,-0.0103644668405868,-0.00171166738649925
0.014217121361704,0.000354533048545202,-0.00578744213344533,-0.00162983196230584
0.0152054859733262,-0.00499206581860137,-0.0012360087682058,-0.00119289016449194
0.0154459818342593,-0.0113292615634334,0.00241210448018175,-0.000574762890957107
0.0136701004969676,-0.0193580247641629,0.00606847098379792,-0.000266242404244822
0.00971261893477194,-0.0248311032401436,0.00781233174384632,-0.000210287974624806
0.00703104169721424,-0.0259287374338826,0.00388755276704785,0.000111496683408721
0.00637081835250452,-0.0242806360021071,-0.000827960417344951,0.00138069501469609
0.00418994923818373,-0.0193224000255489,-0.00206211902068563,0.00343091474003061
-0.000889079129624354,-0.0111872661370334,-0.00247597999568085,0.00493660508764536
-0.0066147671166468,-0.00677462379482309,-0.00286098195639451,0.00525250796509083
-0.011486090191302,-0.00621277070590123,-0.0024876626711821,0.00462504133370265
-0.0140441902125904,0.001016324101642,-0.00156889356902113,0.00359535834516972
-0.00885542441505623,0.0111868899360219,-0.00265115811017589,0.0026450476380352
0.000932687417583499,0.0128358465623218,-0.00517286316711672,0.00186997902551776
0.00672284191998694,0.00702462281811761,-0.00497749394959132,0.00134105801277795
0.00891277881647242,-0.00136062980374655,-0.0028307360435161,0.00100192165415495
0.0116752954153846,-0.00654207952265037,0.000570415953380659,0.000721656871357194
0.0180351371297415,-0.00670398042928838,0.0061167442765729,0.00024427046376562
0.0245466493227226,-0.00958821520043605,0.00990376287184187,-0.000549471383224845
0.0249114141057532,-0.0180443214197056,0.00885327809301201,-0.00140798050970947
0.019271095271735,-0.0256660900446106,0.00580789610829668,-0.0020581895347974
0.00974272740082031,-0.024150801147659,0.00262839651348661,-0.00225357886775189
-0.00021285423717082,-0.0150007399679399,-0.00129167322675543,-0.00196588527632499
-0.00627055473053051,-0.0123766038605296,-0.00449350921672211,-0.00109393862375225
-0.00932760482905995,-0.0193449659095064,-0.00384480730283195,0.000478043899819288
-0.00803265502043553,-0.0203345508654412,0.00135962730149906,0.00226293771791092
-0.000831929378354471,-0.0113222801996314,0.00563509605254771,0.0034452525094451
0.00796143414986036,-0.00625613873562238,0.00638014105011924,0.00337090495129755
0.0159239036745926,-0.00801119184033549,0.00912100194316433,0.00206392235285527
0.0199809177882721,-0.0108331707547782,0.0128926575972111,0.000200132540439262
0.0219956868460692,-0.0121540192886712,0.0100019923555504,-0.00150870028449312
0.0271790248231537,-0.00795407454729238,0.00327489465370008,-0.00250351748125447
0.027909482273535,0.00156323591047121,0.00108431031043094,-0.00251311672837231
0.0215649519078294,0.0097633165615474,0.00323530993961635,-0.00172011918801846
0.0155647376451512,0.0127288469286923,0.0039206908492702,-0.000819333223887061
0.0073327267871776,0.0142356538023195,0.00304136538797977,-0.000400977731483012
-0.00613315949996435,0.00881893288141525,0.00369100424941047,-0.000451141742787973
-0.0188178697076944,-0.0125568977375968,0.00459626261481363,-0.000707214175096242
-0.0262616044802015,-0.0353849355868525,0.00586510300025636,-0.000953186226284806
-0.0274091987967273,-0.0461064531167488,0.0102125225799829,-0.00121551698376943
-0.022970775202249,-0.0530121105274324,0.0174060014163648,-0.00176217280106928
-0.0179433543259273,-0.0541568908316119,0.0235277317421049,-0.00270019580931023
-0.0137635154320902,-0.0444347989434408,0.0250156203781587,-0.00391439743046473
-0.00683943337036319,-0.0334199538359568,0.020949847022267,-0.00483969145748661
0.00111864019592592,-0.023201270766319,0.0143133227715439,-0.00438796697152901
0.00461467269088051,-0.0121982853818845,0.00756397939551796,-0.00230972429238411
0.00351641203952064,0.00257735132556538,0.00266011877038052,0.000348627173993749
0.00221639580982246,0.0218011778866804,0.00178420982092213,0.00209339068656141
0.00125766732271438,0.036559147573933,0.00412091340989926,0.00206600347885022
-0.00237524659303548,0.0494011064328836,0.00945192860189425,0.000894899268364564
-0.00942806235868276,0.0683429139479233,0.0160772647884131,-0.000383926241000228
-0.0177982784599995,0.0844097700035401,0.0208717596018929,-0.00130195022847579
-0.0217036041123267,0.0802351145558785,0.0221671669235025,-0.00188855463177202
-0.016399269221797,0.0498135691619317,0.0205287785427353,-0.00251558921534398
-0.00658736603647829,0.00836462864911233,0.0186618617586142,-0.00285205047067935
-0.000517995275556123,-0.0219646802332718,0.0175923208558328,-0.00215637638021182
0.000128402079436566,-0.0379666125443602,0.0178740974976489,-0.000906833504724205
-0.00289755117472482,-0.0499943862055478,0.0196049070671661,-0.000238869117664535
-0.00835188407455392,-0.0594579943965833,0.0204598351251676,-0.000335713398703425
-0.0133578037543077,-0.056227420399035,0.0190594084089788,-0.000729504538537884
-0.0168024691222803,-0.0366167413170538,0.0173779540080985,-0.00124215565352254
-0.0185852529312222,-0.0144521508381895,0.0176249750069679,-0.00175064906901312
-0.0166998125268433,-0.00125353134317036,0.0164332294277606,-0.00203611684696304
-0.0154937726434668,0.00674109600850962,0.0119617990713759,-0.00191410244766453
-0.0180284996068614,0.0148675945872786,0.00856790486336452,-0.00100677106036888
-0.0189395018562678,0.0212401508555346,0.00790858972532591,0.000508219060835773
-0.0175428909452636,0.0187913979152241,0.00731008104809823,0.00179007824512092
-0.0133231340896657,0.00939419277058907,0.00528355633895104,0.00263613726782471
-0.00544832867804602,0.00475905821131305,0.00406714677607558,0.00357542024825993
0.000396951492350401,0.00832176361439679,0.00564376734644174,0.00488652069743849
0.00245234744324149,0.0140692801101633,0.0081991039483282,0.00603042246129512
0.00348042879570361,0.0161154167536002,0.00839977068030806,0.00626178331031658
0.00405820402120745,0.0117576844103962,0.00587332015328599,0.0052591584644843
0.00230591290581801,0.00146279077674398,0.000794208950825368,0.00305285359210947
-0.000672880712278863,-0.00679075306014767,-0.00710377474174533,0.000352041418739552
-0.000610449984835785,-0.00993409782754791,-0.012641826683768,-0.00132643398664092
0.000906537512587588,-0.0136927599943436,-0.0116109009619634,-0.00141926497846551
-0.00139574295279231,-0.0146946186645113,-0.00660985063437899,-0.00126554944285135
-0.00809228308171089,-0.00739429941188261,-0.000940222666029302,-0.00162282783768222
-0.017440311990526,0.0042289344310028,0.00214847645364144,-0.00166808234693004
-0.0254698275748243,0.0136251331467722,0.00188700206130261,-0.000942265233982027
-0.0250236587153106,0.0264441649241347,0.00184333256944577,3.10572477434216e-05
-0.015027498934486,0.0486628721593473,0.00336662745502273,0.00052732719378301
-0.00231532819324853,0.0648089982900801,0.00506718463087215,0.000264798690096413
0.0057226988879337,0.0573207676366967,0.00681281040881229,-0.00069263142664018
0.00797532286269073,0.024552320911358,0.00778807115837788,-0.00152504251462245
0.00761954099068306,-0.0149573926620695,0.00599911324610124,-0.000615901610310855
0.00573138406115022,-0.0363267334460383,0.00245217427800415,0.00267733088789004
0.0014538622128755,-0.0376062465700192,0.000834862782947908,0.00701169284442713
-0.00270267945042006,-0.0281919845527647,0.000148693457640375,0.00951193649551722
-0.00344633844778143,-0.0168011325037246,-0.00471183278781004,0.0085271918284549
-0.00408656423379104,-0.0136802665275313,-0.0115803413520056,0.005537530683743
-0.00825133269470258,-0.0204149986366917,-0.0174425094973346,0.00263953955612974
-0.00989527159006712,-0.0318239644521216,-0.0208317077241841,0.000432268929796011
-0.000632728545188043,-0.0431536319531795,-0.0170729562876717,-0.000988186417165231
0.0121028008476903,-0.052083804224297,-0.0107187173128872,-0.00119117061797323
0.0152424296365938,-0.0577016819890723,-0.00887213011170755,-0.000576803960008599
0.012777951603812,-0.0578574853141728,-0.00837456139805288,-0.00077390914992137
0.0138432424419327,-0.0498705224433418,-0.00740490219658836,-0.0025206380857215
0.016219696120479,-0.0346959401579554,-0.00853698520590129,-0.00432588197340509
0.015178710239629,-0.0187449830678617,-0.00959317008223714,-0.00415411087906519
0.0115821483564391,-0.00683571636804724,-0.00797164205917232,-0.00190423754213741
0.00688638445619645,0.000604175016442124,-0.00511457856365864,0.0004017283927007
-0.000334922497642578,0.0101023132572423,-0.000717355397781432,0.00110849928691407
-0.00969951032566123,0.0284522939915611,0.00552995767207788,0.00076211569585243
-0.0156310115594722,0.0466870503789297,0.00905264876425919,0.000639494645408342
-0.0157555343597772,0.0497179358879014,0.0069486748125679,0.000822761809051172
-0.0125588914445579,0.0305905661113567,0.00215549259104476,0.000912721425587743
-0.0051246559887624,-0.00136120496335653,-0.000731009904599324,0.000909943059565685
0.00471165894484049,-0.0201452861764369,-0.00109984901875313,0.00089615666706093
0.0104917617696455,-0.0141333107386139,-0.000872551875698938,0.000801067876208651
0.00992468887043486,0.0017584403650914,-0.00102699395776328,0.000470515966676249
0.00607119971192182,0.0129075242347537,-0.00229475046640836,-0.000118418125220949
0.0037536395191503,0.0176559552416535,-0.00211777173195898,-0.000641369273624824
0.00343310029500797,0.0215768039156016,0.000307066232602943,-0.000847667868179908
0.00189764775078206,0.0262944353259783,0.00329848096201648,-0.000917354299089784
2.25904206815676e-05,0.0229503815716133,0.00617531840886945,-0.000999140120598127
0.00201889436800068,0.00580853340918044,0.00394219406823685,-0.00115156293629421
0.00758717714722275,-0.0142600553399408,-0.00416002477138057,-0.00134261117610829
0.0129308443427304,-0.0241954485078253,-0.0101369176165538,-0.0014756795293121
0.0157145043260577,-0.0253985582595526,-0.00948058249714534,-0.00148496375882459
0.0142915613362198,-0.0229329482839073,-0.00592151327840699,-0.00100046962093426
0.00822968896378143,-0.0113540203895996,-0.00270818218966677,0.000124687021641917
0.000402483708690858,0.0110721958102845,0.00119496488270587,0.000894117394174474
-0.00384863301277871,0.0333138128536833,0.00504581369573049,0.00026113932039789
-0.00375993881352017,0.0463646930150121,0.00603950452496968,-0.001304531394009
-0.00397609108639767,0.0522997602427164,0.00335737162888916,-0.00296353359736089
-0.003404159616209,0.057470704439711,-0.000756031267834236,-0.00457719785477487
0.0027236080746679,0.0622936102351215,-0.00419686878163897,-0.00537448072967601
0.010568446016022,0.0648717085993064,-0.00695119920736966,-0.00413011443478142
0.0134131960326862,0.0629194112525922,-0.00791211733108045,-0.000840527573069944
0.0112038064299699,0.0523006433926809,-0.00709842632703419,0.00300470107934804
0.00763777288745715,0.0331240213421357,-0.00709750553992456,0.00552624621270111
0.00674230165601729,0.0130478506395318,-0.00777427971555231,0.00608186304379401
0.00819810270914979,-0.00179879495792518,-0.00971858625102778,0.00524215637777015
0.00657047282843577,-0.0143185197754428,-0.0134028962324546,0.0036604095781162
0.00262823527480735,-0.0244194554837875,-0.0138536682190786,0.00177515035470849
-0.00161101578989704,-0.0249678659339929,-0.00635459338157854,-0.000164304356527641
-0.00751560587953273,-0.0180236610213912,0.00399243915369091,-0.00193931095772279
-0.0100031251130129,-0.00791735042239497,0.00826119590465848,-0.00343875058968382
-0.00711766873096719,0.0116689626841864,0.00895301630882342,-0.00466333419655603
-0.00380510311235997,0.0393020475093908,0.0093181944995689,-0.00544637909623188
-0.0015893000750951,0.0595525634147559,0.00620093325815567,-0.00555843626381887
0.00152687742811424,0.0614826036059799,-0.000188858265778238,-0.00484250518012683
0.0064468234331955,0.0496078265911772,-0.00621285895831543,-0.00335006483542769
0.0107536403407822,0.0355702770757472,-0.00925833820601618,-0.00144557513558966
0.0117594316561539,0.0221828329887101,-0.0116172581124696,0.000602434406376577
0.0101616367311063,0.00690482651137039,-0.0143319944518123,0.00263236529469184
0.00773508068005623,-0.00631170000467588,-0.015063328393465,0.00393853188594126
0.00562134391545692,-0.0140287538414107,-0.0144836766951215,0.00376717153737031
0.00439714383824671,-0.0170060614007424,-0.0122402214643329,0.00233342423855212
0.00409920359068817,-0.0149533307676889,-0.0069375592806793,0.000587067822253103
0.00374653356503994,-0.0100585341215241,-0.00412470921073855,-0.000497494474082176
0.00316287182107327,-0.0063566898533447,-0.0095930867449551,-0.000490221803634603
0.00630342490985409,-0.0083418034336442,-0.017255418175304,0.000193358875109037
0.0129912000857092,-0.0142030669133143,-0.0193784965828984,0.000777493298255867
0.0158993327931082,-0.0163289220076189,-0.0181266477860561,0.000829921159316836
0.0137864230964782,-0.0132702831484986,-0.0171729718121335,0.000639053130068478
0.00964801330741817,-0.00250427331194292,-0.0172895987313596,0.000819511629162345
0.00334346579679085,0.016777662980149,-0.016666466238755,0.000952707093891344
-0.00349065779260018,0.0361048500169994,-0.013936322097829,0.000132933314218634
-0.00619097205849461,0.0478563602434175,-0.0107508354389298,-0.00108837551443921
-0.000787477241901099,0.0464813493380305,-0.010173873804558,-0.00150196185889049
0.00929496278252937,0.034374819434701,-0.0116435823277437,-0.00106516756203268
0.0142159376252436,0.0186489392991192,-0.0107816341143758,-0.000776480315629907
0.0118623283963197,0.00341526493254003,-0.00864428561025906,-0.00114058389394569
0.00817168549849774,-0.00622875765222887,-0.0074332792249587,-0.00158121967852312
0.00534045387509755,-0.0133534622406453,-0.00587229251153606,-0.00142844746384324
0.00592479561822097,-0.0216324384613723,-0.00397107516226487,-0.00070553709191138
0.0108817563727001,-0.0291770276375484,-0.00373761645237257,0.000125358013239133
0.0135863089507505,-0.0397784686861543,-0.00640735692782708,0.000780097368646971
0.0129855098371349,-0.0532454271900697,-0.0101210956813416,0.00118262171113079
0.0137523794418736,-0.0513379380496306,-0.0118489174652093,0.00117351441528823
0.0170595169331129,-0.027420573187475,-0.0135052822167617,0.000676993907298658
0.020971397510911,-0.00547925669575049,-0.017445883219372,5.77900894281254e-05
0.020416141089316,0.00460029995665088,-0.0214426521003018,-0.000225795218510806
0.0149550978059613,0.0138275050420799,-0.02278401876329,-0.000194146786817307
0.0099873730830696,0.023591309323094,-0.0183058107005098,-0.000138016801919756
0.00616147941727784,0.0255936913791141,-0.00683975563885212,-0.000395350063021449
0.00210966639185014,0.0158788673370036,0.00440158742849746,-0.00128299458678904
0.00061245743404073,0.00299002528192193,0.00598820021374838,-0.00231136606498003
0.00224961135440497,-0.00618566562058868,-0.00301338075888237,-0.00249386446167158
0.00411403549318087,-0.0100713571002722,-0.0144119090929633,-0.00163149685008281
0.00391254102798222,-0.00765049627941587,-0.020278129991662,-0.000233123704409536
0.00113819729164654,-0.00367378593965084,-0.0206547018173236,0.00105715152694924
-0.0012893710367892,-0.000806242475798725,-0.0180984667832323,0.00182205542991602
5.22369586653227e-05,0.00259093673129197,-0.0140326719655909,0.00192071833917487
0.00473447634716629,0.00515632501848049,-0.00872560494817593,0.00138384040808215
0.00960848159034192,0.00299369650976501,-0.00415506901336271,0.000532059478787184
0.0102463191192943,-0.00984802346098982,-0.00211321952372591,-0.000310645618722329
0.00640431869210922,-0.0299770516602317,-8.70572891926401e-05,-0.000926961093788088
0.00353228628982726,-0.0420674231608917,0.00184516633978631,-0.00123077328317229
0.00173395822595588,-0.0431807495277856,0.000399051374921882,-0.00122666952112324
-0.000945801710559767,-0.0406101669106649,-0.00244004130256147,-0.00090489679082457
-0.00316875850435914,-0.0376375280540101,-0.00290521329182883,-0.000573696421157643
-0.00593423309751767,-0.0305834884528389,-0.00104917824039884,-0.000656840817015954
-0.00796895571352107,-0.00931246454294114,0.000829273611132316,-0.00120725521677447
-0.00564099603302667,0.0226458116261909,-0.00060811662524893,-0.0018306815109458
-0.00186171547900347,0.0424928431331744,-0.00382183489443697,-0.00200522196355166
-0.000481336854841988,0.0376149731121323,-0.00572747671757951,-0.00161892097609451
-0.00253200620785453,0.0178670664823363,-0.00753582769341738,-0.000859211356341642
-0.00640443854937434,-0.00140638151326682,-0.00811762498815323,9.00978726180233e-06
-0.00907577563443982,-0.0107864133628446,-0.00572733911800295,0.000650807243264666
-0.00894445578591569,-0.0130750670921448,-0.00329907317098414,0.00121834371106212
-0.00447840408132164,-0.0139739051767425,-0.0019413954984509,0.00186136588059191
0.00313297167163224,-0.0155770491429111,-0.00181824137691478,0.00214176715664096
0.00762707197661142,-0.0186938539010717,-0.00214047705127254,0.00193869718306945
0.0042252584909146,-0.0255632043050909,0.000494257978184442,0.00149570523077739
-0.00119592892434756,-0.0450584784972346,0.00516144475510104,0.000892253355328902
-0.00380390114947462,-0.0733768529457682,0.00841204024982914,-2.975286762163e-05
-0.00651737482025715,-0.0890817742192673,0.00819196412907821,-0.00138353102266498
-0.00882429473553959,-0.0809019860120614,0.00637729191023799,-0.00265493527578052
-0.0108418613734731,-0.0615920255667496,0.00448185687906322,-0.00284947011086835
-0.0154834917537962,-0.0449436213364249,0.00175767178104447,-0.00149334914571779
-0.0156722985669451,-0.0284465087682935,0.000123689761994684,0.000560517747826376
-0.00585671032339223,-0.00986954463102653,-0.00151800325859422,0.00217092816529534
0.00719769361155829,0.00657594854879262,-0.0036291428970612,0.00309738967683981
0.0166903262610949,0.0191056044868014,-0.00556809390251771,0.00330197720368212
0.0227099379777425,0.0254195963228382,-0.00893734271077769,0.00271868594576874
0.0248313591596725,0.0220952848027622,-0.0110796415688507,0.00159557447149827
0.017560914141961,0.013959677555754,-0.011062749332337,0.000309366046766296
0.00239929327743042,0.0141195396420888,-0.009461074099016,-0.000552746954245177
-0.0109096734966009,0.0287668052269112,-0.00358689648425624,-0.000534782987122217
-0.0165567456043179,0.0442261107826852,0.00428303841583033,3.63372586492396e-05
-0.018837620724582,0.0393665423418664,0.00737696188939252,0.000481172481605262
-0.0230384090357723,0.00238903487818121,0.00437300448910569,0.000272240012928842
-0.0277702602078128,-0.0485480720126528,-0.00218409080417328,-0.000795573789440294
-0.0281627620635968,-0.0695290274813048,-0.00852885731070001,-0.00216194285259683
-0.0224792038885604,-0.0483083764160361,-0.00953278515038239,-0.00315569331843686
-0.0136057579146105,-0.0132032002537721,-0.00498939930316115,-0.00351025687355774
-0.00534331270517729,0.0140881143255993,0.00139499509679058,-0.00271429286755884
-0.00148097510898779,0.0317219946687629,0.00837968597590564,-0.0005389674793737
-0.00366938226328121,0.0424303646578374,0.0132376480360268,0.00201082086265722
-0.00978100037673055,0.0451234363928212,0.0120096779512012,0.00356314870561937
-0.0119664741581063,0.036153357984008,0.00695456245656774,0.00384437546991395
-0.00468450695321053,0.0146995274891777,0.00189558165864649,0.003383182708097
0.00712171147152858,-0.0140823511276983,-0.000776338592011476,0.00255921607374791
0.0146852176433021,-0.0385748897088735,-0.000402099693109703,0.00156120926671877
0.0127865405144098,-0.0498915555450107,-3.03869260381406e-06,0.000555892026960544
0.00414445866487679,-0.0495576845936161,-0.0010628851254432,-0.000216940183188604
-0.00570020844341547,-0.0445598120565041,-0.00208173701239023,-0.000890945664763625
-0.0161313465011573,-0.0358969019598404,-0.0018290351780337,-0.00176312893748121
-0.0291911566312591,-0.0220500188114517,-0.00155955867027121,-0.00253610009693977
-0.042409350266262,-0.00683259749236773,0.000464163560399433,-0.00285197419674987
-0.0434961297199703,0.00858721669567331,0.00689887806911223,-0.00242769252962817
-0.0285391349899283,0.0263812998425868,0.0128437628812826,-0.00129472431430094
-0.0112238385144647,0.0474345416651955,0.0136043331049745,-0.00037900432124747
0.000270009339097682,0.0636690509644988,0.0110117452588162,-0.000486904407397763
0.00601566088373115,0.0659779863716648,0.010888808516,-0.00106764357161866
0.00656069257445286,0.0548456905776458,0.0130874826716942,-0.000998104605388943
0.00425373673564575,0.038439091636584,0.0127233932007917,-0.00012530091882975
-0.00097769676820407,0.0248186589834021,0.0111684443546427,0.000908394461975769
-0.0100123759041403,0.015984980413238,0.00931514830212546,0.00137529611511798
-0.020712217472306,0.0129361887232149,0.00622795230910727,0.000885697036151794
-0.027744980525059,0.0130113492858911,0.00435574292048969,-2.98993129000402e-05
-0.0303168110025037,0.0121136957380321,0.00331051169847294,-0.000145872434910391
-0.0339127950893509,0.0123361857269531,0.00269256573457922,0.000837702624041874
-0.036859575760802,0.018698620721327,0.00355933801212586,0.00196912181843699
-0.0316491014646876,0.0274799032359183,0.00442257632404127,0.00282504411300571
-0.0190936393644417,0.0279806042336108,0.00470282555355086,0.00383527213107666
-0.00772457099851869,0.0182348578592767,0.00408067074636034,0.00488820277164359
-0.00120531062662691,0.0047296434467258,0.00349196134115526,0.00510376135270946
0.00412577041134498,-0.00701564242356072,0.00508649102839165,0.00391332113746663
0.0116708842634395,-0.0146476875702498,0.00619203137337247,0.00147042338533206
0.0220800655108405,-0.0223352237927899,0.00402371093776656,-0.00163654114764065
0.0325855883284531,-0.0366544567101063,6.78203604305497e-05,-0.00478679455270153
0.0372705044854207,-0.0541222813165868,-0.00515455564888719,-0.0069799673617127
0.0360649225740148,-0.0669971495152256,-0.0109626414228355,-0.00684403074214652
0.0338986000478481,-0.0704926710037487,-0.0124924064647528,-0.00390326371289706
0.0293785681241064,-0.0643602878736986,-0.00459159655300878,0.000583566045840952
0.0181751727486561,-0.0533709634591427,0.0103951098072626,0.00429156771821581
0.00390276910942561,-0.0348573546514711,0.0235399432271596,0.00615229364749044
-0.00870021091243631,-0.00592879061513649,0.0271899767631671,0.00673937329259713
-0.0173987972613203,0.0265781202148949,0.0229398813559903,0.00614967125944767
-0.0190579333562139,0.059021534005668,0.0186763809800255,0.00397491207949695
-0.0142745414797906,0.0845283560991343,0.014787822246549,0.0013360798915583
-0.00265854048250919,0.0802003606008734,0.00579345313522632,0.000232471163602497
0.010506714034286,0.0446172469737072,-0.00511153785828612,0.000597800836004525
0.0112527921112185,0.009523089284092,-0.00995019457665078,0.000629466678344582
0.000651134389872892,-0.00348968210996406,-0.00852476310713292,-0.000307956973430571
-0.00725821365048996,-0.00333511743288284,-0.00612802154854683,-0.00105173528074354
-0.00721207967675588,-0.0172261199799147,-0.00444807424397018,-0.000536358560619264
-0.00176730106387583,-0.0488151057167402,-0.000765270313747358,0.000604783216554168
0.00582990289315733,-0.0673371719818969,0.00598361938653997,0.000597078971951966
0.0130972582724518,-0.0564950263924536,0.0124572773970814,-0.000874300515160201
0.0173723702744059,-0.0397670390214103,0.0137108107110511,-0.00188829625040684
0.0198027960685544,-0.0401945708767259,0.0101327456942064,-0.000961286213281861
0.0234589921252894,-0.0471108844744786,0.00693539533731542,0.00129151924280378
0.0249507410503346,-0.041756673133845,0.00506239061908925,0.00339411981983039
0.0214477119768872,-0.025595782344784,0.0029693679899347,0.00435687280816305
0.0136042326601736,-0.0100745441290275,0.00140940755968548,0.00393774340837799
0.000913071732829064,0.00166509711702039,0.00106586309209892,0.00272018509123912
-0.0138845572837599,0.0164333142661752,0.00173376958573077,0.00150342466288071
-0.0227743275139666,0.0314924574838975,0.00199242640887533,0.000653650150476603
-0.0212136814034839,0.0332461032219045,0.00111197122027319,0.000336297655408328
-0.013321075804597,0.0246469507349342,0.00107279348990977,0.000326250841255907
-0.00652337506925416,0.0181729768769843,0.00279065050985275,-0.000199800092588814
-0.00162691687210349,0.0162896846522788,0.00543655423851878,-0.00162285577788042
0.0036244856771378,0.0157905419659068,0.00795770733428273,-0.00325253024017281
0.00489058857914766,0.0146071372381528,0.00861169906589679,-0.00407802048451303
0.00119012733385248,0.0134630667518515,0.00815184471620045,-0.00384516095045077
-0.00204611418957287,0.0119479370012385,0.00753083268808821,-0.00324166432829871
-0.00328162361919967,0.00945508033663002,0.00651690677011104,-0.00282436840968438
-0.00485953044313383,0.00843069880764311,0.00552222534070996,-0.00241068431848186
-0.00856191041066027,0.00980228561591497,0.00474263046122706,-0.0015209106675429
-0.0139555430892415,0.0112860104876289,0.00522442815981035,-0.000108852391299555
-0.0181857176499702,0.0164925882146505,0.0063939354889307,0.00115615763323543
-0.0197991965921666,0.0309288102300178,0.00795504212653548,0.00186429428175481
-0.0197600354330199,0.0466136533790755,0.0100002380714224,0.00237562867992052
-0.0172594929130978,0.04928048941083,0.00963565321653861,0.00280688599713193
-0.0117548992714258,0.0392356003332475,0.00694253782020025,0.00272945717236671
-0.00594338625771537,0.02766342584384,0.0039825190882263,0.00190240492621016
-0.00171699784631573,0.0171997532679318,0.00204735334983623,0.000708253787963312
6.53518943643037e-05,0.00943906856585938,0.00285016000115288,-0.000309163986175536
-0.00250680261432231,0.00853017565310063,0.00468933575291488,-0.00120984113213603
-0.00581318726009895,0.0126612024525703,0.00439425612399658,-0.00225113883052635
-0.00400805140301305,0.0156252738718842,0.00264720296145393,-0.00290871871611273
0.00064901493799736,0.0133864745060604,0.000483600374309035,-0.00271453436247012
0.00381411506989054,0.0132238090109806,-0.00303708475401117,-0.0022289938699434
0.00579821609310742,0.0192918170823601,-0.00608278987669659,-0.00209100917897139
0.00573492632409453,0.0242921634947773,-0.00699246389298015,-0.00234258190403425
0.00248007028089492,0.0245248200706787,-0.00582791551708822,-0.00266093415307027
-0.000544849613196547,0.020982639322868,-0.00349413591180033,-0.00286120755956294
-0.00132223133093255,0.0163934968151689,-0.00197693564757292,-0.00285138749794955
-0.00204794124067801,0.0134009306115101,-0.000897928913107417,-0.00245900922646696
-0.00450310105787159,0.0111720087688709,0.000111437505291924,-0.00185750360520875
-0.00615430846223907,0.0100063684499294,-0.000379245525186417,-0.00137076348119172
-0.00465865301402722,0.010589164171035,-0.00373250762957515,-0.000802238192416878
-0.0038410335285433,0.010781014281214,-0.00701540320935503,0.000127748541476905
-0.00447315630928313,0.0116811766252278,-0.00587306984577157,0.00100181625484287
-0.000300384341481842,0.0173890090960472,-0.00148033949615845,0.0012918375068614
0.00889417110151307,0.0264180319447901,0.00189974774615839,0.000918963759721174
0.0157257703857661,0.0350399452978413,0.00285506859504055,1.5234673056861e-05
0.0169685171766571,0.0420903961968625,0.00307980325161599,-0.0012066575211643
0.0135574372742477,0.0459215702055119,0.00158060346933692,-0.00235921807654095
0.00734850439822221,0.0420786548800892,-0.00320476528606426,-0.003058804218401
0.00484604915804306,0.0297777529408427,-0.00872462314303001,-0.0030263102490085
0.00545902808415216,0.0193101458227512,-0.0127347392438803,-0.00204350395746531
0.0016803604411253,0.0166829637946329,-0.0152716630423322,-0.000579272610374464
-0.00262914234338823,0.0144112809024728,-0.016403530278648,0.000240893860716629
-0.00223485996942671,0.00550926923215016,-0.0157087582387777,-0.000324574477032039
-0.00107967399223226,-0.00619151333549126,-0.011605835919209,-0.00194471372604086
-0.00190600592831947,-0.0130559179873509,-0.00408519189548718,-0.00347474124775737
-0.0057416202452399,-0.0197627682691995,0.00543373190508809,-0.00428993909749825
-0.0121459342645424,-0.0294639824921306,0.01675606458381,-0.00451578308283973
-0.0167950449894676,-0.0260432850412423,0.0242638643105471,-0.00404139331696075
-0.016075539532791,-0.00851542081762365,0.0218341018529972,-0.00291205207361536
-0.00963757587877459,-0.0023215001817004,0.0122209551958673,-0.00153037210825367
-0.00342714279162945,-0.0111027709481057,-0.000540376457975899,4.03937795150858e-05
-0.00242633662668206,-0.019081342695323,-0.0133021806682723,0.00197930910708381
-0.00256372627495642,-0.0246215567127527,-0.0209917651977925,0.00423166563442337
0.000566159030196394,-0.0331198513806095,-0.0234106941372127,0.00614599249819661
0.00587886400293525,-0.0457994562003532,-0.0266004264258032,0.00681262160098324
0.0114907907969764,-0.0569592611779955,-0.0301864497853225,0.00599466372370627
0.0187991611233678,-0.0619336630725158,-0.0293687900238824,0.00405410900559804
0.0262115046668907,-0.0618572972543667,-0.0245307753959038,0.00103885390486877
0.0287211823623777,-0.0568478180828778,-0.0165213424504207,-0.00311362286995521
0.0249486323703794,-0.0458785339834031,-0.00946536662733413,-0.00727603205628267
0.0147196200806138,-0.0324575621875601,-0.00693211363949423,-0.00919527966345909
-5.44630192430146e-05,-0.0230829049057514,-0.00431025264705703,-0.00737672978139134
-0.0114199649672533,-0.0187375883818877,0.00197073431922015,-0.00302680795866262
-0.0153631809915987,-0.0128250164792166,0.0099216588857375,0.000942562577960239
-0.0169027414816714,-0.00693074033544906,0.0145959039464469,0.0029409859819973
-0.0169540568572962,-0.0040051090734515,0.0142270231924382,0.00304869437387878
-0.0134808112726227,0.00541135491875896,0.0121150227922122,0.00193933517001731
-0.00978802862507121,0.019442486453868,0.00955649429954883,0.000596271964849332
-0.0108371198195114,0.0259043544479363,0.00402574554316932,6.45199153173346e-05
-0.014737050969984,0.0149549470215459,-0.00282070028643306,0.000812852051134179
-0.0136257012102957,-0.0174744859901196,-0.00711807289287369,0.00237129802429689
-0.00698338173930646,-0.0551851024860048,-0.00869611675478633,0.0036795717416077
-0.00184874996981707,-0.0752280247600506,-0.00909980003095555,0.00392303744549892
-0.000253481120367056,-0.0755875077776289,-0.0101842827284771,0.00344414805568941
3.95556698332983e-05,-0.0667664927565621,-0.0115856496087779,0.0029304568220003
1.54442879488018e-05,-0.0505073004210459,-0.0111138109566434,0.00245315552557712
-0.000571479445472414,-0.0261326892229178,-0.00900457373767643,0.00200145551665307
-0.00184430457496576,0.00490212555650372,-0.00619778216909392,0.00156848942232301
-0.00166344661417715,0.0379455228654842,-0.00222447445923907,0.000994217903727904
0.00150340729203597,0.0557666884894637,-0.000333328234238575,6.02856947105701e-05
0.00609887788130796,0.0472964618861473,-0.00311300823721556,-0.0011458874479505
0.0102258896870591,0.0269756881371585,-0.0050401753418787,-0.00213059825617933
0.0120718472709001,0.0152213803250796,-0.00218417673398042,-0.00253286038472165
0.0090202262608322,0.0110809212268951,0.00109782007627829,-0.00212834966653805
0.0040270774719059,0.00452579540851186,0.00219027467416939,-0.000970233673426701
0.00278395228650257,-0.000292512908778825,0.000805196483205335,0.000172187394842089
0.00332558486022185,0.00365860259336669,-0.00190501193489915,0.000701239504702039
0.000576318315780608,0.0125840837919111,-0.00292235628121849,0.00106730035910741
-0.00380074494696706,0.0140672374361552,-0.00193754937493842,0.00188902502323519
-0.00669283085949036,0.00235498739927366,0.00218181456766817,0.00311344849958106
-0.00907553215828934,-0.00846606228715907,0.00748374822878349,0.00408470151047969
-0.0119983016830137,-0.00106017789631117,0.00826762627523199,0.0041121588895366
-0.0150881405033296,0.0242852765129391,0.00529577729670017,0.00322133559120363
-0.0160458173135668,0.0507151723672709,0.00278838811521891,0.00203471486652272
-0.0144983392961179,0.0648767132685334,0.00168343234208673,0.000967623772961552
-0.0148352667461882,0.0701471282943376,0.00263604622368689,1.38570072273155e-05
-0.0171808639529015,0.0712940407827756,0.00499188374522175,-0.000900754248566222
-0.0145229348066298,0.0634845937115713,0.00625941391005838,-0.00170061015624315
-0.00375471496959306,0.0434631786493759,0.00760482566040007,-0.00223364053008352
0.00928346832140867,0.0161862547260132,0.00935788058598193,-0.00240093596692939
0.017017299467541,-0.00642195476960325,0.0103405786139123,-0.00238465586307234
0.0168313736993506,-0.0157968717230778,0.0091114384218718,-0.00241605312993894
0.0122962908858687,-0.0144046048295801,0.00340793317422002,-0.00190559205461479
0.00889298661603646,-0.00649344891622947,-0.00456611660717149,-0.000265710056856783
0.00774689261628502,0.00209921275206643,-0.0107575442916782,0.00171346429277899
0.00705992295684301,0.00494333176868213,-0.0139097968494625,0.00286911818011735
0.0050096860831755,0.00212161843150661,-0.0149443485885197,0.00311395222605689
0.00111001222255538,-0.00401093449152199,-0.0137169271953299,0.0029604464110577
-0.00262234763103439,-0.00943942130428076,-0.0103579084795369,0.00268907772146752
-0.00494332394549053,-0.00782969174648857,-0.00669401678238441,0.00235307433492578
-0.00705231810186205,-0.000390103729945808,-0.00419913927397467,0.00193990941596563
-0.00808759782006365,0.00916201885938605,-0.00510565269557904,0.00155087776025956
-0.00351632208627034,0.0245310933790003,-0.00938402563555101,0.00136030690883723
0.0069183949369818,0.0450595475844064,-0.0132217518434225,0.00149217074412002
0.0141741850831337,0.0582739125289119,-0.0140924345655341,0.00186840601279573
0.0142062506710819,0.0500611353041236,-0.0108732848652506,0.00201628173719475
0.0112445219434029,0.0198581594236402,-0.0048949932841521,0.00140805418504432
0.00594058036160523,-0.0126478060918725,-0.0016795218934211,7.45494886725696e-07
-0.000170756271854238,-0.026223341811309,-0.0023886187809986,-0.00164692848166454
-0.00598420977415687,-0.0225615848605547,-0.000651051861023207,-0.00297784498799515
-0.0133107595828081,-0.0186922436410419,0.00679870843171567,-0.00388190539726003
-0.0196387341779873,-0.0234288728494545,0.0144713203179541,-0.00437171108609285
-0.0222660950837617,-0.0318032175445575,0.0143091889643243,-0.00448436270000643
-0.0203096815483068,-0.0384964384679984,0.00758761787496438,-0.00407231801529568
-0.015365439822878,-0.0477070399891133,0.00344492745179532,-0.00292702507499156
-0.0130372044809965,-0.0585988756387199,0.00337149797521603,-0.00139550942669836
-0.0134016455911682,-0.0565835904218181,0.0025336907262392,-2.34016371807606e-05
-0.0113401748680518,-0.0374176744532435,0.000886919841558378,0.0010765467618805
-0.00720594717254527,-0.0196429650627591,-0.00082176551704,0.00186248125163942
-0.00454144837773874,-0.0184861778806816,-0.00414306334818526,0.00224873212628809
-0.00392692480403218,-0.0248437006896465,-0.00789830256470501,0.00248972277179277
-0.00329637366922353,-0.0243070213159527,-0.00903003842301764,0.00281178263341889
0.00163804977687523,-0.0152171324727061,-0.00658321435018768,0.00302380970728277
0.0115733062636613,-0.00127873876670345,-0.00284236361240057,0.00296700436404758
0.0219995078910968,0.00934517785614179,-0.000515106347946253,0.00265830123956486
0.0262390107829567,0.0109418634081858,-0.0002658895914995,0.00178481430358675
0.0189790644315462,0.00771686956734597,-0.00111497271560306,0.000223239892353791
0.00549781819779804,0.00230248643528703,-0.00210917045385186,-0.00133815517259475
-0.00443911066013455,-0.0019973075964099,-0.00362333114878826,-0.00219034323517238
-0.00898095258105168,-0.00063156348573719,-0.00304973229614672,-0.0022946478083243
-0.0109185266363671,0.00459190812653748,0.00107831593524667,-0.00222240698237261
-0.0136781415422673,0.0138267544039779,0.00652849824634357,-0.002523833680011
-0.0164583306358413,0.0270303914692185,0.0120588865741221,-0.00298316874126328
-0.0122825297229353,0.0323512559165907,0.0132265046624485,-0.0030821759967931
-0.00147674570944062,0.0173460836272701,0.0103388178799932,-0.00291682388640811
0.00696838827267235,-0.00975324851521069,0.00958154902137262,-0.002791345633058
0.0107979305504275,-0.0269907854956068,0.0115768470725009,-0.00278797252391585
0.0137464117209237,-0.0293271031971312,0.0109880617459613,-0.00301906665218046
0.0169786419236335,-0.0309037683372226,0.00332456145672791,-0.00336187964155383
0.0175583362197535,-0.038359953055846,-0.00505405480208786,-0.00329682596930887
0.0138648657376196,-0.0478177556751605,-0.00696213205082365,-0.00210009193586676
0.00922999336599934,-0.0525403936029668,-0.004311187557671,0.000351166078149877
0.00586622847604108,-0.0493879669770658,0.000718308289942128,0.00288331635793063
0.00528367947244909,-0.0431835574842704,0.00692622656612833,0.0041155253575015
0.00865098623801099,-0.0372115663450317,0.0109682385840076,0.00361688513564969
0.0133765320408567,-0.0332522204054162,0.00858004057185453,0.0018433048690288
0.0126374253697089,-0.0262522532486977,0.00318962307029769,0.000120627251170983
0.00578798616639713,-0.00212908408580416,0.00111868169017057,-0.00017748295825437
0.00211154868587364,0.0398641470284128,0.0024212634542522,0.00102525603406032
0.0056080256392357,0.0800430453454605,0.00580295996759599,0.00243048614437795
0.0127509068443508,0.0956455239508606,0.00739052933285836,0.00240059882409635
0.0189470886486194,0.0782964565455882,0.00410934616238173,0.000379773702492026
0.0235313545600568,0.0434490296330786,-0.000213669410552766,-0.00252360612934938
0.0262637923864869,0.0116201579204956,-0.00233036643760637,-0.00454428103123648
0.0246292222509447,-0.00532001467825545,-0.00383493360401298,-0.00465265755585024
0.0208462179907872,-0.00407641474635922,-0.00501282457085184,-0.00304609733154372
0.0157836782653695,0.000349364699014462,-0.00414307874089474,-0.000967049077419719
0.0060662573753946,-0.00841712588610369,-0.00210710569146425,0.00048373087627329
-0.00292777783516171,-0.0297113398234858,-0.00260138697421156,0.00131613683818828
-0.00332266407670852,-0.046860448060212,-0.004455869313378,0.0019660855159031
0.00141244741421151,-0.0497122908539004,-0.00569240780936994,0.00264347851787054
0.00721586878437769,-0.0528941519912311,-0.00908280334126854,0.00345406920169794
0.0127599863186573,-0.0609708962939478,-0.0122805047083113,0.00402384114854488
0.0142936310700118,-0.0581580598327653,-0.0106108547288281,0.0038097618146166
0.0109054527542772,-0.0466341922517926,-0.00409968705883923,0.00317835197943246
0.00600150621815933,-0.0339514702781646,0.00315570134033441,0.00272145613203538
0.00139485811238186,-0.0102902879337021,0.00571884705892359,0.00197061169241322
-0.00622172553151353,0.0229404936379354,0.00330304717813484,-9.09347489555139e-05
-0.0163290784779023,0.0578061569143753,0.00193835555539378,-0.00324858693032053
-0.0235891701507417,0.099316367795605,0.00396494183333351,-0.0058291661162483
-0.0277482071176435,0.134944099128969,0.00435411906215676,-0.00613793614123694
-0.0297121306990364,0.138489813486048,0.00158513707856168,-0.00376664343014082
-0.0297831630412419,0.108350035075793,-0.00129738641433577,-0.00048203802245842
-0.0287693480872759,0.060822507780193,-0.00312036630035477,0.0010231483316961
-0.0251263878021545,0.0134577240676636,-0.00332936503022077,0.000267397374784999
-0.0218056701779758,-0.0178469937910732,-0.0031253057257588,-0.000882116449976313
-0.0225334190880372,-0.0280092381712135,-0.00311842227268522,-0.000919490448134953
-0.022535277012743,-0.0260737794458459,-0.00157002790870425,0.000448887942441094
-0.0162809272556337,-0.0226699856451985,0.000194807536356167,0.00273944772155601
-0.00672469387843889,-0.0215133184746073,0.00183260675195786,0.00473415154368944
-0.00231118404325672,-0.0240652382297488,0.00411011905727906,0.00513999454484359
-0.00555294645938496,-0.0295023372590335,0.00598313939639744,0.00392931110745376
-0.0108459233423326,-0.0317056814500592,0.00681549136238229,0.00203482667316837
-0.0164925652579444,-0.0241473187672514,0.00522369042005727,-2.69062341433815e-05
-0.0223231483067811,-0.0084027083430204,0.00132825938253846,-0.00207541814615098
-0.0226214592392606,0.00692375994530171,-0.00126563917200643,-0.00384083693758659
-0.01792128367915,0.0183590620348382,0.000548005534509737,-0.00457195672563471
-0.0144782869167284,0.0265350046085936,0.00333553760176232,-0.0035070405028141
-0.0132424039150881,0.0300997114431489,0.00404653692047582,-0.00125448850239415
-0.0144959755624894,0.0315614579508822,0.0055187863945917,0.000670425793132089
-0.0183859701168458,0.0348580981271189,0.00573024343137547,0.00154968207002536
-0.0194736807174722,0.0365371101460873,0.00166532564824907,0.00162025359693246
-0.0155503438946908,0.0336775277599783,-0.00261542179255703,0.000992020371028962
-0.0117314718145028,0.0302714284585121,-0.0030106266152505,-0.000302109942601127
-0.0117306817292365,0.0269657971353248,-0.000846839318337042,-0.00156447481134871
-0.0122071553875152,0.0209878063189225,9.72033092882718e-05,-0.00204273993005886
-0.0108835690249244,0.0112201630256078,-0.000629155747409099,-0.00180339910207105
-0.0107462287113706,0.00130539463171534,-0.00211744626235044,-0.00118144518828378
-0.0119138473522688,-0.00447035193353248,-0.00275747595926954,-0.000421141515888355
-0.0126733525257739,-0.00965995590560935,0.000132333846077861,0.000158160553979069
-0.0115232739823503,-0.0152562342842675,0.0036434615138271,0.000531837531156901
-0.0072886142075889,-0.0180984578326056,0.00504579332206326,0.000947371073897615
-0.00196064685672366,-0.0204147952481345,0.00615659313948689,0.00140762064327146
0.00109283889818483,-0.0227110917935068,0.00683680299395029,0.00137861884634613
-7.51266625081265e-06,-0.0213007729278997,0.00677065761662096,0.000369199359400842
-0.00373840981921555,-0.0153908766279362,0.00729850361797979,-0.00103626564243247
-0.00628077675470138,-0.00772200934773973,0.00629848047092384,-0.00185267124706051
-0.00474097530494766,-0.00196946389686836,0.00230191232632485,-0.00167918759460171
0.000551331999703855,0.000157301474246575,-0.000114609114145597,-0.000763200827471567
0.00625323970449482,-0.00167261125833654,-0.00137416490274598,0.000185182536784238
0.0108775977672264,-0.0136782545117813,-0.00496890946029566,0.000920415056104628
0.0135673482740004,-0.0357316528845614,-0.00907823466407905,0.00165515925745906
0.0144730476451153,-0.0524590873215197,-0.0120672911066926,0.00234697620227159
0.0167069183273427,-0.0574922877052595,-0.0124989122259197,0.00281033573213653
0.0196963843609497,-0.0577942447173446,-0.0110947070190194,0.00284943673090905
0.0202479735631382,-0.0561412406771613,-0.0104457418331452,0.00232922704518209
0.01641583733825,-0.0508708691295736,-0.00967946835553466,0.00139118634805961
0.0102459335462283,-0.0417645683821255,-0.00772289333656367,0.000393608883853537
0.00634924786681626,-0.0301173637015525,-0.00583566583399195,-0.00032907677671593
0.00169417878019813,-0.0218504417096402,-0.00602135126456747,-0.00062514308322307
-0.00529348151566785,-0.0178252277386157,-0.00768605256657169,-0.000378110460542933
-0.00886699183705535,-0.0137767587528873,-0.00794995825478317,0.000364250404138587
-0.00991436234386048,-0.0106575835949238,-0.00471481862304718,0.000989059173080783
-0.0131978177177988,-0.0032822738076577,0.00188714926362719,0.00101105107171688
-0.0171378681476125,0.0142108976110041,0.00795415792062219,0.000617760830723807
-0.0168673599355977,0.0344807883501674,0.0088528723725279,0.000290504540541915
-0.0117473247607152,0.0420014988642988,0.00500072766479342,0.000247110553742071
-0.00111697161555535,0.0237633008102693,-0.000295767325362819,0.000202786243534218
0.0155223512070163,-0.0114854990536404,-0.00739125141334997,-4.91460074151351e-05
0.0312244251256479,-0.0390909503276743,-0.0142355804853099,-0.00043727010842779
0.0396897728387369,-0.0513899075764902,-0.0172981531519714,-0.000743624366301896
0.0378985562585002,-0.0516723941980602,-0.0168531916442209,-0.000664889563305246
0.0274925376917381,-0.0393625210037463,-0.012072111823687,-0.000221763644582224
0.0179268616807121,-0.0189517615071531,-0.00664090041119917,5.59601977929897e-05
0.0129197583119396,-0.000352415101158947,-0.00446742705552402,-0.000225246879073249
0.00603464355701242,0.0098648765255755,-0.00312672198919742,-0.000893848665956717
-0.00389466518249692,0.0104388845190902,-0.000356256185924257,-0.00124010701325388
-0.0114043998707622,-0.000509170848978974,0.00296215015173427,-0.000594054420169928
-0.0137661621505607,-0.0177186647002607,0.00368338482969289,0.000603701317660283
-0.0111627385962591,-0.024718225588202,0.00302998244464048,0.00164565556548086
-0.00772637857295577,-0.0165392520744362,0.0049011576917674,0.00228089964827656
-0.0070687727416969,-0.0112494931782533,0.00926703019260373,0.00228137018371926
-0.00684581942043726,-0.0153828598403147,0.0123301725165767,0.00164869103345771
-0.00400390028236209,-0.0149918571126435,0.00985255939201873,0.000471537528369015
0.000546779737917872,-0.00375128840667964,0.00493742016354543,-0.000963726580605648
0.00266843550305212,0.0190659736569452,0.00215731275364936,-0.00210859397355015
0.00140212004200638,0.0462406110443216,0.000317798025677711,-0.00262917717266237
0.000395453016506425,0.0623579889977437,-0.00267694113171404,-0.00255167233832159
0.00104210777072148,0.0640414039725368,-0.00658723459471689,-0.00204502879938444
0.0044825425997207,0.0643684243812147,-0.00735416890932597,-0.00128201200277017
0.0106446149997536,0.0682567045739803,-0.00588720081226376,-0.000791298186624973
0.0147296254015123,0.0645661258689531,-0.0051795389749437,-0.000924753726987048
0.0109641324464816,0.049881687028831,-0.0028976100662607,-0.00125203429274206
0.00045002483630984,0.0316714837806304,0.000420172855269162,-0.00126455361454284
-0.00738512147691134,0.0184794199052521,0.00153388421867427,-0.000990524105670321
-0.00743084024979694,0.00977381545885354,0.00129334829673181,-0.000889513070093708
-0.00305977246844773,-0.0011822914732758,0.00450454153160627,-0.00134899121459432
0.00189593280596865,-0.014416782302587,0.0112962083835178,-0.00253491108740194
0.00916092052464194,-0.0239333751545176,0.0181335188765844,-0.0042576577103126
0.0195467066589019,-0.0205864823661184,0.0202966192959667,-0.00565089655457425
0.0263543231480482,-0.00463689526718306,0.014419795262077,-0.00523319719682021
0.0278269119439735,0.00968487886197725,0.00753041608273937,-0.00222312079932513
0.0314216011490723,0.0112304708934361,0.00432848467959625,0.0022603020657855
0.0361628052840952,-0.00044911739588172,0.00014486528180655,0.00605635930011571
0.0349605642505506,-0.0172046260973843,-0.00701307664368163,0.00759845949355931
0.0296182184328479,-0.0260478943660497,-0.0134980533994969,0.00703645346458744
0.0233681122793381,-0.0205049224217894,-0.0153858264910742,0.00545088850012872
0.0147717936811829,-0.0107760153863169,-0.0136983509165691,0.00349753297055594
0.0052465050681567,-0.00920796256282534,-0.00986444691156616,0.00139250055841068
-0.00156031317346701,-0.00821802922770225,-0.00253586576532571,-0.000649524658944982
-0.00770032253713601,-0.00331720657594389,0.00722918529807083,-0.00256687146094175
-0.0142128416205833,-0.00526645821963857,0.0163355111054334,-0.00432521079232757
-0.0155621067690609,-0.0109642195314473,0.0195811063629812,-0.00531307779437692
-0.0118759246849827,-0.0058730758412938,0.0140317940817887,-0.00486386494228894
-0.00979643796511729,0.00934228215087061,0.00657369309196672,-0.00318544332855123
-0.00979318092532196,0.0207096101354413,0.00279754301699926,-0.00130156104131356
-0.00858787760491145,0.0265279986619306,0.00230589414066202,6.65244366616453e-05
-0.0052894768816273,0.0293030310805697,0.00518226467320051,0.000878377495160209
0.000229629958388031,0.0222539178810867,0.00628459586366844,0.00124778391892599
0.00841473106298782,0.00580184934240487,0.00272411881458884,0.00150656649848898
0.018382921543206,-0.0124449520070753,-0.00193222808523399,0.00207387870407214
0.0265160702375434,-0.0268172306642156,-0.00651562395903502,0.00285144175385766
0.0329360058515505,-0.0336584851564937,-0.00855430309594815,0.00357151980405099
0.0355091517772267,-0.0363585503610253,-0.00783077465624759,0.00409090918034658
0.0290169128317975,-0.0381199247903672,-0.00796542917507913,0.0040796243596269
0.0175608668520156,-0.0353094402378523,-0.00814813741422074,0.0035795673318979
0.00950946718511844,-0.0273235465917519,-0.00541670049488382,0.00299129198391448
0.00767207779874249,-0.0154138173984019,-0.000665729577023332,0.00226614253369316
0.00802499112536777,-0.00159929926801564,0.00341160879930124,0.00138074865668647
0.00627013584322724,0.00611781120660664,0.00679742116973256,0.00054226158964606
0.00425319109200924,0.000853140255631702,0.0093351717210706,-0.000739046217504237
0.00440937619158423,-0.0129244874106609,0.00839637121455131,-0.00266887364566835
0.00381479405972822,-0.0260425218425014,0.00526861127994759,-0.0038345079857471
3.44161211141697e-05,-0.0305906845715771,0.00473889628872265,-0.00285262749307181
-0.00582403146695794,-0.0220270921238677,0.00544445008578179,-7.63706423036782e-05
-0.0117030166243724,-0.0081293469742757,0.00298207734722386,0.00285222496961571
-0.0142341839677077,0.00200734035525495,-0.00106006006426845,0.00433642363533284
-0.0122234544131104,0.00813683234933968,-0.00570321540116489,0.00402397961097713
-0.00940830571976738,0.0104606278543743,-0.00997931653519651,0.00298152527091585
-0.00568866697200092,0.00989031177196196,-0.00959388309308062,0.00242757259102327
0.00098003122525541,0.00869701669472464,-0.00510495538666102,0.00240739091223217
0.0062672189224498,0.0048041862939692,-0.00135405565790815,0.00240858535316411
0.0076336680131544,-0.0064029725326876,-0.000595489888388879,0.00216904042043184
0.00672134890737834,-0.0185924519148607,-0.000908884881499742,0.00131794113471325
0.00571158816266949,-0.0196184860268788,-0.00131161325326954,-0.000237411798198494
0.00815790692023861,-0.0144133990495874,-0.00261083590504588,-0.00189486078423582
0.0132742837267825,-0.0143589497133188,-0.00405660061739662,-0.00311203864803195
0.0160895766821131,-0.0187373101708634,-0.00515145510354681,-0.00388734871160921
0.0158948113179497,-0.0232303781606552,-0.00687183235412033,-0.00415044164401365
0.0152251199093123,-0.0226217888233115,-0.00837067123869704,-0.00344183521718985
0.0122459697359454,-0.0108207872178558,-0.00788340502975047,-0.00172010769154508
0.00504849607580461,0.0115746588195401,-0.00405994626855549,7.99662932433262e-05
-0.00172131933408474,0.0381475059988817,0.00191607517651823,0.00075051323596865
-0.00513155556594934,0.0604953697608224,0.00704037962085752,-5.0331267323987e-05
-0.0085111253684967,0.0764169539779452,0.0112733500273079,-0.00170801625844848
-0.0118791352443817,0.0851977637559863,0.014706136992673,-0.00316582208185979
-0.00911659074871729,0.0800106514999012,0.0154553187336823,-0.00345251572303812
-0.00167348850288409,0.0624797812321237,0.0135020183948285,-0.0026747551812647
0.00343190657219008,0.0380647147835478,0.010813198391511,-0.00159488082919542
0.00681627502329229,0.00894212716871934,0.00670886957091017,-3.42439238107074e-05
0.0114117580621393,-0.0137162579959957,-0.000963183811838113,0.00211225642883696
0.0152193283449536,-0.0212216237051118,-0.00804899098316881,0.00348744782500078
0.0142970802076954,-0.0214338670752834,-0.00871324554557953,0.00297492888713508
0.00942307444773136,-0.0226313830841882,-0.00685338763199198,0.00129242120454664
0.00443901656916762,-0.0228818646842045,-0.0068945045615692,-5.93804409057997e-05
0.00185248050211788,-0.0182696421597087,-0.00587426332900352,-0.000442265093945311
0.00328062673738164,-0.00739926360414012,-0.00391590628820123,-0.000140185730403663
0.00551134590913178,0.00565341233281252,-0.00423719607820432,0.000300291668784543
0.00373384528725775,0.0146294575583599,-0.00604584248546589,0.000396442672777538
0.000956418931304941,0.0200007386376375,-0.00527935935031844,4.330282206796e-05
0.00153569887629383,0.0249928121268704,0.000111777165847969,-0.000597557748513033
0.00388337652152334,0.029474952559596,0.00411984691989173,-0.00144511840999474
0.00717772496526623,0.0336262139934777,0.00320234125842548,-0.00256069416365942
0.00934081350375188,0.0372950273777395,0.000417822510494013,-0.00407355511727152
0.00594092092388501,0.037388246366298,-0.0028252585869742,-0.00566588698936307
0.0019742225839349,0.0345247611564828,-0.00359547812617529,-0.00616471367152943
0.00248132111646498,0.0304112812391805,7.13929580086099e-06,-0.00467211227906817
0.00278649042515725,0.0251169282526615,0.00598616585337008,-0.00223957099244191
0.000469551578632692,0.0250577913725279,0.0100751571792903,-0.000713752349688603
-0.00374026470716179,0.030324953036984,0.0114839142517068,-0.000254324673824201
-0.00990727199808992,0.0238391944989934,0.0114196383366959,0.000409512907329049
-0.0143916989383531,0.00260027444649134,0.0083855557275315,0.00194323936653585
-0.0134908499417555,-0.0120420516236208,0.00369406750294555,0.00376433561458297
-0.00960984040895562,-0.0117003363067171,-0.00104657366388828,0.00513272564349935
-0.00635734876588397,-0.00565246690640339,-0.00518839974433329,0.005715848869961
-0.0039949232094084,-0.000946952748537365,-0.00935850429779959,0.00553330380222201
-0.00130733498103599,-8.71058833748113e-05,-0.0141402060028775,0.00488579032752259
0.00258766710794433,-0.00656485274134237,-0.0163098654469017,0.00397524153754707
0.00942245830648566,-0.0211437425033677,-0.0144127150690527,0.00292024898556341
0.0183849191117794,-0.0332300090808533,-0.0105058090034686,0.00166077531774087
0.0240581269941689,-0.0362618891473164,-0.00838816591686708,6.83111828130309e-05
0.0252094094986867,-0.0336941298257458,-0.0109020185869126,-0.0014514224686163
0.0251764192830333,-0.0289392000886664,-0.0133245009664859,-0.00247189584171711
0.021685680746864,-0.0277330896656297,-0.010863595369238,-0.00314303497210481
0.0126665291642353,-0.0277781498241461,-0.00590408921254387,-0.00344798795016047
0.00175565826446627,-0.0140917766994228,-0.00303630467792241,-0.00304514663249596
-0.0116211023099474,0.0157813535716136,-0.00366806007964086,-0.00200492525663121
-0.0288279363836842,0.0380016670915462,-0.00547759452139428,-0.000442728738877194
-0.0440475709851191,0.0314594672211485,-0.00824611429752999,0.00144482231830676
-0.0497202027541747,0.00726899789307384,-0.0100140429832654,0.00277109168411046
-0.04571943523532,-0.00635348979090625,-0.00771112074304523,0.00257523080251068
-0.0393363255620012,0.00383800139179933,-0.00409025232097233,0.00059699090294233
-0.0349459792443044,0.0206558803662373,-0.0021883168459164,-0.00178113093239015
-0.0308087204302011,0.0235446256224946,-0.00263747228900655,-0.00202462801402839
-0.0217143749960034,0.0091488140888828,-0.00484828881034614,0.000717105481882661
-0.00666006423122009,-0.0205675691600292,-0.00709794557490688,0.00420792031194402
0.00558037740484174,-0.052273531858196,-0.00839518355879057,0.0056557662348789
0.0140701047427273,-0.0706025452180756,-0.00895770210422448,0.00464137948225903
0.0238536529143077,-0.0731615804998324,-0.00824878726802984,0.00237781882190255
0.0253262590041344,-0.0645499761609335,-0.00565310016730167,4.46059089063222e-05
0.0162592075033202,-0.050337814250713,-0.00300150050492762,-0.00246617411472912
0.0102394545022825,-0.0368484891779164,-0.00250762744134774,-0.00610143123659672
0.0094179640729238,-0.0288711545222281,-0.00413817782162671,-0.00983463331304396
0.00784134926554024,-0.0223591147315617,-0.00537025309515971,-0.0110355827057197
0.00415388924576703,-0.0118383355429263,-0.00459166235882185,-0.00881946123136674
-0.00039383668382199,0.000758828452573926,-0.00196035064714821,-0.00489334049422633
-0.0068734072763239,0.0140027855298265,0.00165082087695975,-0.000865591584555946
-0.0185011684634977,0.0358290713452665,0.00569058875967014,0.00300874267732569
-0.0306677500258776,0.0663383946504072,0.0104075805948405,0.00623774138174593
-0.0328700264221331,0.0892978179479174,0.013777318822871,0.00775142387159032
-0.0257755180331444,0.0920669005945712,0.0117903862500827,0.00688628622746573
-0.0161329682846032,0.0711891309139336,0.00461277512802527,0.00419797651309688
-0.0034631382236982,0.0360622749533939,-0.00180713302936073,0.00118043248121569
0.0109180692627723,0.0060721182413698,-0.00484726074394719,-0.000869342798993073
0.0196448398678573,-0.00728235300124946,-0.00539251431687989,-0.00163077363546184
0.0195276726060306,-0.00628618042050606,-0.00232610953685431,-0.00184061722687554
0.0137680373665925,0.00127828239376375,0.0026839803585148,-0.00272976205638171
0.00707966132237923,0.00883780189599518,0.00604416697127115,-0.00474896861755284
0.00294484761419973,0.0109087324471229,0.00849547907590141,-0.00661661728630396
-0.00267452739999003,0.00809353433512606,0.0110516677348785,-0.00679633794473666
-0.0137627730513116,0.00597582878082178,0.0129491839952733,-0.00536556832515868
-0.022651672105368,0.00740971115988229,0.0128417847666455,-0.00345883888393363
-0.0234559867064277,0.00724412192167068,0.00989468781193614,-0.00187161581568084
-0.0227060097201423,0.00188710177602928,0.00690109930665258,-0.000505481286900224
-0.0225913049512229,0.000856549066427664,0.00458244954854758,0.00103023684878198
-0.0189648305499158,0.0166317932950282,0.00186806003686998,0.00228158971829068
-0.0114615552786304,0.0442712353036852,0.000344842706065471,0.0022497695582622
0.000118539522918737,0.0643936742241919,-0.0019927633409621,0.00130715146522117
0.0129023109068931,0.0714956408017292,-0.00684151586770915,0.000857899597481994
0.0241550250583887,0.0727988373484767,-0.0098064715299859,0.00121039848310453
0.032020331224847,0.0715027873466897,-0.0110812997346247,0.00169468132707047
0.0322081289605793,0.0678761802946358,-0.0142953695781731,0.00181731483948757
0.0270297847025606,0.0618189279566893,-0.0160821107521048,0.00157240352994375
0.0237599913254166,0.0529963916553846,-0.0141903978528237,0.00110840610799794
0.0227154390027404,0.0427211771289558,-0.0118587331538256,0.000888988568985088
0.0195532851338843,0.0324247329612653,-0.00939116754179972,0.00143696662456007
0.0115527283630086,0.019949805878981,-0.0060665581184389,0.00214461711324502
-0.000723666890362563,0.00306027379473423,-0.00183965764375527,0.00190727751558076
-0.0124740073288511,-0.0122122863166398,0.00154269152331735,0.000885094597079596
-0.0207914994065799,-0.0232031014698599,0.000284146824675551,5.18617641395371e-05
-0.0255198924267921,-0.0384557962968109,-0.00230410450143827,-0.000132297184955889
-0.0271248383682331,-0.055811516419066,-0.000994689270112944,-5.52464583827459e-06
-0.0282641776691626,-0.0625713214120098,0.00197262380003975,-3.85311294597039e-05
-0.0295168540872394,-0.0572415107808474,0.00496551323633768,-0.000255720775798668
-0.0272987130750217,-0.0444045899026226,0.0105508118632666,-0.000809782286350192
-0.0193981642154252,-0.0220377453865095,0.0151844130341199,-0.00172815554867091
-0.00827109057154157,0.00253173890152678,0.0127089162724103,-0.00252063101642856
0.00369666914006682,0.0142654738354285,0.00405936933971189,-0.00279780419924842
0.0150457240917094,0.0159114477850628,-0.0061578278150662,-0.00232541750986989
0.0209768945704494,0.0178155886402534,-0.0142663016477172,-0.00115186580391049
0.0208894085857862,0.0209940882422854,-0.0199496321530251,0.00053539157005302
0.0180513464224362,0.0160428920719532,-0.0215709858640866,0.00311811558386891
0.0143769300924056,-0.00368858883553387,-0.0152048982597866,0.00645552803426493
0.00958381389765178,-0.0244993759188719,-0.00571180323803671,0.00887261445779666
0.0020017673539026,-0.0330479205429987,-0.0014454222659753,0.00881793526631393
-0.00561297367518167,-0.0328696288840906,-9.43189257259086e-05,0.0065065789579606
-0.0109959995651652,-0.0315510470831934,0.00512402774268595,0.00313458681985599
-0.0148972243535903,-0.0371894599807875,0.0119731043375656,-0.000397833543018171
-0.0168282485097114,-0.0499301238334747,0.0144035181833526,-0.00336040151143504
-0.0177656240994246,-0.0585376744579923,0.0118546854273284,-0.00522352404223296
-0.0152151480428194,-0.0591550480875159,0.00729454361563976,-0.00588461282125978
-0.00605484179171958,-0.0561348024988306,0.00472343706979532,-0.00525659846365316
0.00396025924453387,-0.0535897895645694,0.00449780885137949,-0.00354412100699229
0.0125714234253711,-0.0580960326125099,0.00483301411044151,-0.00157607486506368
0.01993437131778,-0.0760500855090666,0.00474030823512626,-0.000239065389866227
0.0211061735372319,-0.0990711324334466,0.00391077136618558,0.000256866631227449
0.0159090535098911,-0.110309697425456,0.00257231864279241,0.000679019137855119
0.011724670034641,-0.108639699539346,0.00107016821983064,0.00174612951829474
0.0129661379372166,-0.100709794725276,-0.000640137633893639,0.00316227764057463
0.0197955527659893,-0.0894740722946546,-0.00319962253016791,0.00417959229010162
0.029524578325677,-0.0777284750462467,-0.006105546139655,0.00441530298436854
0.0351129016983452,-0.0677220093842114,-0.00965836042092838,0.00388730468881013
0.0342291287926532,-0.0608927231247877,-0.0134713035810945,0.00265434875939715
0.0292189096112271,-0.0541342494959076,-0.0140697133700751,0.00103551691712811
0.020537321806711,-0.0420901119467466,-0.0105537483295771,-0.000303981764564967
0.00929017680405006,-0.0224573527897389,-0.00590782740798838,-0.0010254922332531
-0.00230845938595092,0.00544714375477219,-0.00218041857347552,-0.00133168462324385
-0.0122543819718661,0.0391974790855233,0.00139154653308928,-0.00160621586949756
-0.0204617510570745,0.0701971542898476,0.00876158432929577,-0.00225383086657422
-0.0302979339912144,0.0829746873543845,0.0184910130051039,-0.0034961743748577
-0.0361457231406383,0.0620994521632492,0.0226992339743571,-0.00485063805271407
-0.0279295334026121,0.0131644635375682,0.0196033537149754,-0.00520067001205093
-0.010601104415139,-0.0329374787574886,0.0121779165893443,-0.00397991621439264
0.00177703528896158,-0.0490797855017339,0.00365340012278052,-0.00182494962991745
0.0049016888573409,-0.0320218570865116,-0.00265872606094926,0.000387785390937264
0.00622168736869392,-0.0052990207816666,-0.006284388228653,0.00212431606231978
0.0119646338926432,0.00338277331817531,-0.00737707186767785,0.00300823860937538
0.0188333961599288,-0.00614485068368581,-0.00766838640915865,0.00343944011558789
0.0182125179559358,-0.0160694852435173,-0.00926749850462163,0.00415744158217045
0.00875954842813233,-0.0140271118982343,-0.00990279224496355,0.00476022491092067
-0.00264016211722299,0.000838408616263865,-0.00716941168579508,0.00443684487495682
-0.00993073574929054,0.0192047442113826,-0.00353721209622127,0.00318058615028106
-0.00969964653306358,0.0281835787288878,-0.00304649828955325,0.00147803750614969
-0.00311240235472708,0.0254099343218928,-0.00657856160075074,-0.000218819740354549
0.00503180134338113,0.0179321399323987,-0.011416133867146,-0.00162361003005267
0.0119226017098838,0.0081454240386425,-0.0134366076896693,-0.00259527851658244
0.0159822742167521,-0.00188248859352746,-0.0115359259576383,-0.00309063061850401
0.014818387305248,-0.0113401272586645,-0.00644295796626856,-0.00314573409785087
0.00673483708797416,-0.0184533429544444,0.00146249723118963,-0.0030288912836719
-0.00506892706520541,-0.0126819898978578,0.00879194856718923,-0.00311850196431155
-0.0153748534637442,0.00701946787559581,0.0128633659346662,-0.0034447735785748
-0.0231274720533898,0.0253947711942643,0.0134686382696283,-0.00359718753073036
-0.0278585025005102,0.0318536625249967,0.0105958324543323,-0.00344696703770174
-0.0285837026255196,0.0340388304225788,0.00717732569723649,-0.00287990951587259
-0.0278986454510109,0.0392832832812,0.0043182014531381,-0.00151745884840738
-0.026050893517731,0.0461133742503004,0.00217845684901742,0.000137693654995324
-0.0221853347903382,0.0515604656249209,0.00233784830593984,0.00113066235800887
-0.0180558000131235,0.0509084319652346,0.00270815021886852,0.00130424208240968
-0.0145670356316173,0.0441074924244077,0.00137476590152551,0.00111797093145264
-0.0123685061302343,0.0350702688985893,0.000438779190500941,0.00101418229744484
-0.0124950423497547,0.0280524307993847,0.00184519253147634,0.00118091799805312
-0.0148324624077614,0.0273971324993886,0.00420306677487453,0.00135615058647733
-0.0156686655301986,0.0309687870245171,0.00460043143888999,0.00102539960303103
-0.0119914592546348,0.0290530843263623,0.00334688319703956,0.000324154597314477
-0.00379311904146867,0.016585258439863,0.00207538796867614,-0.000337945043321893
0.00428578946313911,-0.00299062754661882,0.000780552310393157,-0.00104574229791798
0.00628945723553869,-0.0197319049071598,0.00110832712848472,-0.00167786402865615
0.0043131414824513,-0.0213983957808896,0.00122352961787136,-0.0019812892925833
0.00311456840777992,-0.0105495158273022,-0.00134155106679679,-0.00186340153641166
0.00349615631614837,-0.00161383629294782,-0.00251628090792269,-0.00119386500448894
0.00586034966506352,0.00120559410922671,-0.00194015432240985,-0.000418990270909282
0.00879375063817427,0.00275329855289227,-0.00216823410284345,-8.39123910126172e-05
0.00764456422432911,0.00245577805874971,-0.0031686950083878,-5.47412263965678e-05
0.00171057847275146,-0.000452646242357826,-0.00483036096722061,-2.48129520788337e-05
-0.00391317439369045,-0.00271452851123333,-0.00537931943300885,0.00016100728037325
-0.00627219148441247,-0.00256631165595097,-0.00482507470964281,0.000352357322155264
-0.00963789823317007,0.00306745526038679,-0.00477485663959023,0.000276674181832064
-0.0169634491704731,0.0105868589184461,-0.00622844064368975,0.000246114560836379
-0.0218711349339372,0.0142513816039906,-0.00769169369062002,0.00087359153632813
-0.0200727334457852,0.0161620701315628,-0.00387614139133519,0.00175721683907439
-0.0129772209075652,0.0109307120332367,0.00431177945448515,0.00200954207459778
-0.00077471039064585,-0.000309737586473222,0.0086256636209534,0.00186819077433353
0.0110120057341373,-0.00113381992498102,0.00566094527501993,0.00203721645498431
0.0144414890108271,0.00919844968756827,0.000770969155859067,0.00252610648639297
0.0116398376361305,0.0165755533086795,0.000700640619958236,0.0027635496889009
0.00965682833655401,0.0163777951556909,0.0024461738664249,0.00188021913809346
0.00943678467907733,0.0159962540833717,-0.000262661601206056,-9.3985816476099e-05
0.00790440344430559,0.0197348785577373,-0.00380419761461356,-0.00159337373281965
0.00611933373155618,0.0231179428504283,-0.00575044526986416,-0.00144701599555026
0.00643772837762951,0.0213514119153361,-0.00897274026740049,-9.69595722181758e-05
0.00494416831983187,0.0168382813875496,-0.0114379656288803,0.00120575163792575
-0.00205504918577236,0.017514260238673,-0.0120221612951271,0.00174411678416345
-0.0085282980518509,0.0245559681317546,-0.0113036635438092,0.00140357446783674
-0.00750703180503828,0.0270258889836697,-0.0078764431988,-0.00020931796246996
-0.00190212417641868,0.0186351778736086,-0.00498637730012723,-0.0028482619386064
0.00452498699955426,0.0062024618178147,-0.00418735563350508,-0.00486521999083264
0.011038350273938,-0.00695919115643899,-0.00281230541922506,-0.00458012784586022
0.0129253654538219,-0.022152840941054,-0.000139101036328636,-0.00174750298584387
0.00955458401331188,-0.0350194383065909,0.00253075644140008,0.0024714488165172
0.0079239168454191,-0.0398825947147653,0.0033940197800411,0.00641126775619269
0.00945445186077185,-0.0373349559371897,0.00259515394714953,0.0083576872994554
0.00952663899601584,-0.0371854881319977,0.00112401845093865,0.0079197428914296
0.00733877263437557,-0.0442438735396058,-0.000391369407655025,0.00664522858674489
0.00362923450674163,-0.0483662618706005,-0.00133177439885121,0.00549011071847445
-0.000528716958567315,-0.0409209449347875,-0.00147824661415691,0.00386444045207904
-0.00145647602310899,-0.0196678755399811,-0.000913656288093645,0.00149346795470193
-0.000110464755675312,0.00997076856207268,0.000834968422745811,-0.00104666247765423
0.000258755355378493,0.0335798579540646,0.00224265517595028,-0.00332193386075449
-0.00089283295613318,0.0470620762512261,0.00285196001317774,-0.00528379244252164
-0.00367436484089472,0.0575966870216139,0.00409413591434409,-0.00681354827891385
-0.00706896449142376,0.0658175108597382,0.00481683671866812,-0.00752334147010332
-0.00709031860043672,0.0641953341038658,0.00481956831601087,-0.00686609518449926
-0.000360129026074893,0.0429865461322531,0.00417909158436772,-0.0046867867731339
0.0110588643177066,0.00430592574287651,0.00201188523018469,-0.00155128761834842
0.0208652217413543,-0.0329028552977971,-0.00328128221401685,0.00122336077424432
0.0230389119256397,-0.0524286518211777,-0.00951657004593203,0.00225832822047805
0.0193740847062755,-0.0546059059038608,-0.011213284025423,0.001462705174749
0.016121632731119,-0.0532999180129905,-0.0107359636159361,-0.000115681392683184
0.0143841786056977,-0.0546841217500579,-0.0107834782331209,-0.00120666832785568
0.0119634587267327,-0.0503996360379723,-0.0107836651385107,-0.00119071513624091
0.00804763017469019,-0.0393497745979177,-0.0122664725767605,-0.000441873527425771
0.00354626458979081,-0.0273795051954125,-0.0145319001132614,0.000473952434059989
-0.000647901765551316,-0.0119516487007674,-0.0148476722850645,0.00132100191181024
-0.00441371324131111,0.0125377798632401,-0.0109476705358005,0.00194962907569687
-0.00556728578143436,0.0371636792656658,-0.0031947161127976,0.00178855597209852
0.000254796135348784,0.0414971683518459,0.00262973174712268,0.000438428838493656
0.0102506334072111,0.0234622361380657,-0.00132866747060307,-0.00137246517113252
0.0149230375649879,0.00173151629114722,-0.0092582451639065,-0.0023146661710408
0.0123085698814492,-0.0127435094261105,-0.00930198697119486,-0.001877029662847
0.00742727251430125,-0.0164381390593619,-0.00550393982738683,-0.000992709591482239
0.000659259422788865,-0.00560532365675092,-0.00490877921358713,-0.000750432892513239
-0.00834465927841953,0.0122419140832558,-0.00304598064685157,-0.00116915935281298
-0.0135113945267284,0.0254549574761445,0.00297662907787394,-0.00196484265368409
-0.0123185903025947,0.028484450477983,0.00552530997261475,-0.00297205632320306
-0.00813014538380971,0.0208002724051442,0.000521508879032015,-0.00328728747593903
-0.00209967391977204,0.00653371517627151,-0.00706014383940141,-0.00231246910923456
0.00600083739449587,-0.00746731187627708,-0.0110894037712799,-0.00074890708143424
0.0136398047712132,-0.0172875747690001,-0.0104531488649835,0.000599259378081295
0.0124669566084993,-0.0262756578912471,-0.0078673432084902,0.00135277747334745
0.000527977956176478,-0.0327805918484164,-0.00361536466245744,0.00156590084784652
-0.00918931861726634,-0.0248161463806966,0.00268807538218708,0.00140219905303461
-0.0113096243619604,0.0010937234840382,0.00939035891489988,0.000855007688168928
-0.0115068505858678,0.0295634486177788,0.0119045164557562,0.000226803512332036
-0.00998729734639005,0.0444369976366742,0.00757979408005285,0.000285004934255576
-0.00427936466217138,0.0436798192934118,0.000914297885084736,0.0012866852580019
0.00355208772139353,0.0310999032460132,-0.00323734364246291,0.00229063070553153
0.00692859931391113,0.0164876115692979,-0.00331313820921853,0.0023323017583586
0.0052045801345798,0.0097670189405052,-0.00142511437225558,0.00121771496699419
0.00756129821466483,0.00730224076158253,-0.000404397647011391,-0.000936962041146627
0.0151902189117575,0.00382818422000917,0.000751025444869836,-0.00356795092565528
0.0185787414028575,-8.41821110163579e-05,0.002400970648708,-0.00527521777646246
0.0146948607172366,-0.00360125426809506,0.0034468798721101,-0.00473423620066996
0.00775228920758317,-0.00452727954288925,0.00444798796374438,-0.00199189700519679
0.0012477339003269,-0.00415017626351398,0.00734184665954739,0.00148908871783692
-0.00397813325769347,-0.00685604115891998,0.011690240081781,0.00395339140620893
-0.00888956066611264,-0.0104551019856686,0.0146679639375716,0.00452024098825646
-0.0139665409487091,-0.0110924562231324,0.0143646596091934,0.00362485702340489
-0.0176333617142752,-0.00821459301758411,0.0114253609668751,0.0025222532652454
-0.0212849467176526,-0.00336239826978124,0.008531788928071,0.00197895719105849
-0.0272718683640188,0.000418401183050021,0.00851799564398279,0.00157774636879067
-0.0317868781513001,0.000692707699902013,0.00992928043677739,0.000605940651394402
-0.0309026708668975,-0.00359996913699266,0.00964119597206934,-0.000942343311376916
-0.0257181059630668,-0.00892744733863491,0.00922914925212888,-0.00219293764232744
-0.0181916447772429,-0.00505315191125552,0.010912446155136,-0.00211261328543425
-0.00977218018550711,0.00997315091469242,0.0136961214368034,-0.00073339834431237
-0.0042522862498571,0.0202979371322777,0.0156168466564903,0.000879283738741228
-0.00266141678875086,0.0159907724263239,0.014961754932661,0.0018276977956279
-0.0010357611986602,0.0069788323277056,0.013131020659988,0.00220186286782159
0.000966945733918406,0.00321401730239224,0.0129516595000299,0.00249343712639516
0.000854496992527341,0.00437263674610807,0.0135915588061732,0.00256222759244998
0.000759672853770209,0.00488115361800194,0.0129232035059246,0.00197579167064163
0.00278410653435631,-0.00573247574332182,0.0101301586606823,0.000632401600391964
0.00312730942142841,-0.0246378203722939,0.00772851090595889,-0.00109008720504651
-0.000610514275101881,-0.036440566649539,0.00609030647594399,-0.00251495670114147
-0.00357163857450874,-0.0388536684570959,0.00513281381150768,-0.00324521313462621
-0.00110300456435473,-0.0358626094421654,0.00704288141260994,-0.00318231203772341
0.00243882691899312,-0.0303195013632123,0.00854243630191777,-0.00230233953434408
0.00150790583207694,-0.0251477605992288,0.00782213704292688,-0.000793480872756954
-0.000793486091582172,-0.0168583493189749,0.00777829141689344,0.000788774041571004
0.000171625491532889,-0.00306653201088877,0.00747402390116109,0.00177542412052427
0.00275582641122326,0.0160164187674373,0.00397872460719871,0.00201113692858044
0.00268342483942388,0.0374151101936735,-0.0012166003118569,0.00214552803177707
0.000855346555564749,0.0511529467130228,-0.00371858183341106,0.00281946683776936
-0.00271340115926644,0.0588237039236451,-0.00178068205314481,0.00369845548308178
-0.0103456929580527,0.0654186602337114,0.00312393542089882,0.00416088177986342
-0.0178873028368969,0.0627142397708245,0.00673306461480037,0.00400418708490075
-0.0219927532273353,0.049807646469271,0.00690749658525459,0.0030385601448024
-0.0228370774856743,0.0274928845526002,0.00625352459823933,0.00121575339149296
-0.017460033009701,-0.00398285876270771,0.00433749594788821,-0.000847736189104086
-0.00658796023924255,-0.0287876597283139,-0.000114654314278358,-0.00233468362401769
0.00151300375464385,-0.0380406670797902,-0.00263673669230635,-0.00309440901926629
0.00429447878766014,-0.0397848134051091,-0.000748089408307083,-0.00347153530271529
0.00639330413326319,-0.0399380594502489,0.002235861448232,-0.00366884247076597
0.00940446178990022,-0.0352831459989272,0.00450012379992981,-0.00345085766541438
0.0126174268000177,-0.0217547082263847,0.00431552216776826,-0.00239174031437701
0.0142079458240746,-0.00549017136481605,0.00189121795349022,-0.000697527901532118
0.0113820661535153,0.00653190286899736,0.00129876345439233,0.000685547284367513
0.00514886057100422,0.016646712248985,0.0046671792412802,0.00131614645482275
-6.8183895009016e-05,0.0258641222808931,0.00801880548885216,0.00145784884509082
-0.00214768971850486,0.0325314419836634,0.00465021703264353,0.00152264941446345
-0.00110118946086986,0.0349058271676221,-0.00290224899360242,0.00215961233186812
0.00306986715104937,0.0321677291182744,-0.00620372701529012,0.00330592656229974
0.00746781721492441,0.028480998665568,-0.00372795351901339,0.00371188157040527
0.0079590900521255,0.0281261073183114,-0.00227366186844549,0.00244253958386094
0.00373712950671387,0.029089292142779,-0.00608279245009358,0.000320208864920187
-0.00368247246832692,0.0270126456870753,-0.0112420541699533,-0.000676714342709253
-0.0107072082011744,0.0261117847178598,-0.013671684699416,0.000166235464575849
-0.0149003916617621,0.0299586908396671,-0.0110150113484564,0.00157798913661709
-0.0181000849101705,0.0337139973238916,-0.00432814356087631,0.00216497474466558
-0.0206210179206289,0.0352280538502813,-0.000297672926883917,0.00133298988828145
-0.0201122343730538,0.0367721404262272,0.000212911165715167,-0.000616226817974612
-0.0146692487098622,0.0395225267960824,0.000287668256557539,-0.00246352954998137
-0.00405510358166156,0.036068240578067,-0.00018056563977309,-0.00333391101765933
0.00916499170689309,0.0236375682755266,0.000368780713931237,-0.00357278886859132
0.018444711823672,0.0116837009519718,0.00345489042692742,-0.00386040257293291
0.020404472223365,0.00370741635572459,0.00793364259850341,-0.00417371497615869
0.0201629178969273,-0.00402703568182518,0.00946019670880871,-0.00401835134579253
0.0227312411455581,-0.0148312920437328,0.00565678567297513,-0.00308422714655855
0.0274986097429907,-0.022004756106843,-0.000113364782231524,-0.00160363372743733
0.0313764650415492,-0.0188983831035632,-0.005507478230429,-0.000159711149103512
0.0312261280934449,-0.00908242980296985,-0.0103255012683548,0.0010149714613288
0.0238962774192629,0.000831911129833079,-0.0127872835882016,0.00212836015003907
0.014065848702533,0.00691795336414539,-0.0112948277346457,0.0032356710839255
0.00906669803619113,0.0143549494193465,-0.00890936002603413,0.0041567879990448
0.0034704495497204,0.0230565026387846,-0.0100968234671525,0.00460396575027758
-0.00813251997645778,0.0252323511365397,-0.013317889106834,0.00438121886165708
-0.0195470157115014,0.0179726476718805,-0.0142537390275822,0.00335213445456401
-0.0255058580465039,0.00324155432160751,-0.0120132709375455,0.00139612255557362
-0.028429032835686,-0.00588123124561675,-0.00687018579016105,-0.000938946848688142
-0.0311386180401785,-0.00237740079160346,0.000596821149639642,-0.00303746118415383
-0.0316541348522019,0.000887881124435127,0.00739019840848675,-0.00475265670827407
-0.0259899147265035,-0.00624361886811501,0.012981823531516,-0.00599991084571405
-0.0126346281709495,-0.0277974775102546,0.0165745168617047,-0.0067375162492299
0.00232120762188976,-0.0509224919630753,0.0170301066941922,-0.00660431195266267
0.00890714415265226,-0.0455368459995498,0.0162698082854865,-0.00505362257914694
0.00677396021503255,-0.00947785445060552,0.0113158799664877,-0.00226127824353079
0.0071071292918643,0.027263639283338,0.000912573191992241,0.000849030912416569
0.014549283994618,0.0416197125653121,-0.00701836481202166,0.00337759990180182
0.0196360582641151,0.034357562098481,-0.00898069579424043,0.00480126738359223
0.018589804621613,0.0187624528704903,-0.0103587693193681,0.00504621231747928
0.0178003823123898,0.00695131248368029,-0.0118615091681225,0.00434963528603998
0.0156066405140115,0.00618363908042735,-0.00964173476853858,0.0028525993556107
0.00727846189501523,0.0122049407172033,-0.00549670764696616,0.000868032466959396
-0.000990506464979145,0.0111770874404452,-0.00382261491943063,-0.000845118235616601
-0.00297973026577396,-0.00341053874175719,-0.00340458196940446,-0.0020220874909267
-0.00264241648632161,-0.0236783105873834,-0.00206766224200219,-0.00294548763733414
-0.00503535708542981,-0.0373192962344698,-0.00301042249873323,-0.00338536072126562
-0.00724455504632466,-0.0412628590665934,-0.00565277847010961,-0.00274145491975238
-0.00449750758927366,-0.0410615148312341,-0.00430377560664354,-0.00117072042253047
4.90646264073411e-05,-0.0380380036772387,0.000141623205892682,0.000223351380505675
-0.00213834805624914,-0.0345546314433247,0.0019457731149401,0.000718089082751784
-0.0149845474754409,-0.0331554138194574,0.00148272645589688,0.000702307053013015
-0.0285431674303268,-0.0289336436770052,0.00132877658138038,0.000798421629245615
-0.0290312501607798,-0.0198968194700132,0.00234686814020566,0.000701701522486622
-0.0211252278942905,-0.00532154391704055,0.00569368207439414,-0.000138366631871387
-0.0163449685486639,0.00825165206168769,0.00690478113481329,-0.00130185640841466
-0.0148075660340361,0.00902653216288244,0.0038309953096978,-0.00181539248515174
-0.0123399308662667,0.000423379789205361,0.000622043036098648,-0.001021075971595
-0.00666838559788108,-0.0111103126914029,-0.00157914240999254,0.000782379469962164
-0.000881742243521605,-0.0237726408965782,-0.00309231871515708,0.00255270049349013
0.00209189869433063,-0.0245622640875478,-0.00412365798602655,0.00357014714102593
0.00404702588013499,-0.00737828680323593,-0.00537262356233789,0.00362291326580091
0.00344415249151127,0.0130103179102456,-0.00514382053961769,0.00284238406636123
-0.00401128020130565,0.0316873099237461,-0.0013632848832783,0.00168428849175797
-0.0171148086662865,0.0565558176484531,0.00296163399525375,0.00047519200746417
-0.024931944701822,0.0792503145480111,0.00488737253106921,-0.000493587698714249
-0.019688687751313,0.0797564497804071,0.00401399595208293,-0.00113899968834096
-0.00926445896814448,0.0533759262518823,0.000667685695211123,-0.00156431091542069
-0.00214208982522546,0.0205144273462527,-0.000310461403728701,-0.00166875970086757
0.00266353545506742,0.00460984576258401,0.00278493027887235,-0.00150593731813208
0.00822179679607302,0.00353888428382684,0.0043534136411143,-0.00131852997378874
0.0138561216524128,3.68235598357525e-05,0.00135158086787904,-0.00112196855905924
0.0158573701820293,-0.00929220799371388,-0.00189562150947987,-0.000730769996392518
0.0132699648468638,-0.0160791601059649,-1.52482593805724e-05,-0.00018523867016541
0.00823100496784268,-0.0211151077389384,0.00561258337092097,0.000120725932440495
0.00469951833171574,-0.0281935520453036,0.0119698254525761,-2.36498356230152e-05
0.00537974343995846,-0.02993799110832,0.0175516535250911,-0.000156114395102792
0.00565910133673666,-0.0244610038069564,0.0194720581508266,9.02922463898381e-05
0.00186049910251646,-0.0218685635893991,0.0171354362588209,0.00074913275273167
-0.000782149438411303,-0.0210955260220477,0.0108274780648999,0.00193490413399202
0.000250484918855735,-0.0151404125240445,0.0018652952726071,0.00338258403283387
0.000371071391542863,-0.00764559429847657,-0.00479030410444195,0.00436860489733167
-0.00131989223155393,-0.00307940263140841,-0.00702364840148308,0.00427473868686591
-0.00197430184562781,-0.00128429397819826,-0.00819602420435667,0.00325034355361184
-0.00251581873095836,0.00152738011832935,-0.00980770234039071,0.00167069867974195
-0.00426078089236994,0.009289832706084,-0.00888528060945069,-0.00051293302153077
-0.00742199845207967,0.0187210973747911,-0.00473860126372581,-0.00297969058559783
-0.0122567725375999,0.0208592915790063,0.00158025469721906,-0.00483424941633534
-0.0139792377235042,0.014257982153453,0.00959384360052853,-0.00531991529285224
-0.0060569408082583,0.00572294184500355,0.0173211211748564,-0.00449663801192879
0.0091237531079097,-0.00318591393898602,0.0210246353095517,-0.00340601883518638
0.0193936267162904,-0.0179444111093317,0.0190431697953021,-0.00279948407025241
0.0186923191220317,-0.0336486732110668,0.0143963254196763,-0.00231121380519835
0.0138442405163848,-0.0380987200857485,0.00764593599445207,-0.0014883306884213
0.0109364540172706,-0.0367123687525147,0.000551289824972431,-0.000365459284207392
0.0121932916948847,-0.0404232822946884,-0.00313209665476322,0.000925536750200534
0.0193148012859574,-0.0495268834152183,-0.00551546902264085,0.00210488851062642
0.0263382063165069,-0.0541452633783592,-0.00795196640103526,0.0025532927907693
0.0261983589746423,-0.0446882884991172,-0.00945269290742204,0.00219950022605111
0.0221608284626126,-0.0322786597478387,-0.00935202082187746,0.00195684851168028
0.0197812777984011,-0.0296062662603766,-0.00614977833476875,0.00243088132341775
0.0182648530690193,-0.0327844033072842,-0.000368192976399537,0.00305828405099366
0.014316929686026,-0.0368008993205189,0.0065047964298286,0.00290458714239228
0.00602260886128542,-0.0330588498557534,0.0133907070825947,0.00170263552935444
-0.00573535547388957,-0.0150221921475792,0.0169772320594615,4.69707198445237e-05
-0.012361775627244,0.00946174957024118,0.0149974190646949,-0.00124775489867078
-0.0118288119602701,0.0271000542205022,0.0101805929819371,-0.00197647014747187
-0.012525130745923,0.0226706209327368,0.00571131903029696,-0.00244003650886935
-0.0117364348818334,-0.00571696360737409,0.00106760444355209,-0.00265042507029839
-0.00498559009846609,-0.0352307709639946,-0.00419627704813629,-0.00237746410406639
0.00168042691473623,-0.0468671600473109,-0.00583062029700474,-0.00180130658547603
0.00326318134904517,-0.0422895772923511,-0.00146099840568743,-0.001360830184192
-0.000405794113778103,-0.0319347584637446,0.00335852075173956,-0.00127600353449068
-0.00617225824544993,-0.0261658056528346,0.0025509171088253,-0.00135173056224519
-0.0100325821503634,-0.0274287473665112,-0.00232596888926326,-0.00120345628259355
-0.00995345135515646,-0.0280626264067506,-0.00611681796977557,-0.000738838095158513
-0.006529362556649,-0.0216929758376211,-0.00599880002833057,-0.000246147765771662
-0.00224242295559177,-0.0125617291906232,-0.00111788676652443,-8.90149836641318e-05
0.000180530784585214,-0.00421824564549647,0.00333018141309557,-9.58305442753274e-05
0.00145487185910295,0.00480922617930868,0.00326907901537854,0.000391826708876512
0.00477652789796666,0.0117497695398324,0.00271622261736554,0.00151558578218915
0.00969880854972023,0.0163408931437843,0.00342743854850376,0.00265164325447494
0.0137867984555977,0.0198109815148403,0.00362689058590946,0.00327147796155992
0.0156515242823177,0.0213764733725363,0.00431926479976719,0.00339437159346622
0.01574326292023,0.0220350154839594,0.00525879234071839,0.00320606228382449
0.013116376786508,0.0220368187571966,0.00499464440234323,0.00270301194914678
0.00548436839639149,0.0229520431564319,0.00512789858644158,0.00185361003624625
-0.00375582336699052,0.023652338813282,0.00655359262372123,0.000985211391818713
-0.00858441103969979,0.0176381215451097,0.00658577078763569,0.000290783414457214
-0.00697574695231294,0.00802577348350331,0.0038003173312244,-0.000379462131111713
-0.0016758527662475,0.00557750970656534,0.00235578813777006,-0.00105908021626211
0.00387758268495748,0.00795015334619196,0.00287361121212633,-0.00180888006921354
0.00904956323315938,0.0115280137348856,0.000277383275568183,-0.00228942292188286
0.0119557596454418,0.0178646312304003,-0.00549154503028353,-0.00188789930136874
0.0103213380122097,0.0189686233054853,-0.00991813270803267,-0.000901016858316244
0.00469760726189244,0.0109438791650064,-0.00979929571032936,-0.000289689640825874
0.00213196996875665,-0.000625260979478316,-0.00711225907286118,-0.000223339138335616
0.00969881264575639,-0.0098285667896456,-0.0058738243641893,-0.000144279837359793
0.0176326253179955,-0.0113002658336716,-0.00453064441920167,-2.1631509197467e-05
0.0136378081710201,-0.00752302052654805,-0.00169519579865617,-3.02777969437267e-05
0.00171130265750573,0.000578977291193078,-0.000807928204754282,0.000169425167291705
-0.00877789440380092,0.0163134012769798,-0.00342621607042134,0.00114220427365641
-0.0127396583982632,0.0279341479156922,-0.00676591386007738,0.00311331004245556
-0.0105357574458062,0.0279531191769289,-0.00741106143405132,0.00556969082781082
-0.00367772400773383,0.0249744195098832,-0.00444276984671478,0.00706589207001381
0.00685814432936244,0.0192627858759973,0.000750957675676282,0.0057870162343092
0.0165415313710463,0.00465060845104619,0.00456544542025747,0.0014667700222646
0.0217411163222572,-0.0214370598482939,0.00274224985308118,-0.00371623372784701
0.0247812719997211,-0.047466205947435,3.86336430636642e-05,-0.00669248602540819
0.0285168713608384,-0.0549863073731746,0.00105716789443553,-0.00606828990742204
0.0314078905856081,-0.0465439389875333,0.0027163815122604,-0.00320778503530453
0.0303160433321449,-0.0350319874482759,0.0015956694343843,-0.000450002643928364
0.0220059392143918,-0.0243733730635211,-0.00397143997678291,0.00101848450246214
0.00656697031598506,-0.0126049803547556,-0.00744623090870965,0.00132501618300252
-0.00968161155186029,-0.00192112863253887,-0.00498730445488025,0.000617857298813626
-0.0193589362913364,0.00549347003714982,-0.00223204125681596,-0.0013291995981924
-0.021038023493427,0.0158220787389319,-0.00058583491212799,-0.00372700393536762
-0.0204940580534353,0.0333452528520903,0.00168675493965995,-0.00471273929969996
-0.0205253057695707,0.0513678006930267,0.00358117263352227,-0.00315251194123132
-0.0166958052949123,0.0525397136252214,0.00392362003394724,0.000212237833342986
-0.00752431751521633,0.030109113740217,0.00108848562476848,0.0034427485997669
0.00118492268816556,0.00278616189408411,-0.00344095666536108,0.00522026559544219
0.00435550731995364,-0.012729699301406,-0.00751003016693709,0.00550413717629382
0.00442121739301922,-0.0174426026167541,-0.0115518280744881,0.00487666479883579
0.00382392940352815,-0.0165020982775885,-0.0116833607891462,0.00373035312660188
0.00135394749024588,-0.0129501427092682,-0.00610972060419114,0.00187811279415316
-0.00159183769347482,-0.00813870802945083,2.10940048968669e-05,-0.000987287685754007
-0.00328314504007677,-0.00359645358795326,0.00258329022787593,-0.00446685750237986
-0.00588612866982566,-0.00072716482606363,0.00232504924362212,-0.00714673922491871
-0.010651572962375,0.00141642008497002,0.00313766679557904,-0.00764573132338967
-0.0157139420217334,0.00250031278172782,0.00518110574563726,-0.0061583803926171
-0.0191332363496384,0.000243430648970521,0.00598549976596573,-0.00379197226845467
-0.0186612521382357,-0.0046876397190926,0.00648813614311121,-0.00140398724081082
-0.016278225864885,-0.0111530250147295,0.00612358821573591,0.000294109898575487
-0.0190847147479882,-0.0190656957457767,0.00530750825886523,0.00136228814537744
-0.0248047274171498,-0.0248645798627602,0.00790318793238142,0.00202296987730669
-0.0233165747909986,-0.0259431575291729,0.0111653818492,0.00161897094035092
-0.0157174337204278,-0.0198392807997613,0.010979472757294,0.000151166028541884
-0.0109050366669182,-0.00582925192414705,0.00913179574460148,-0.00133171671518775
-0.00990557353597272,0.00691286392981335,0.00727214319762933,-0.00196938947560193
-0.0103894213159976,0.0147906596934536,0.00506412259617465,-0.00131072811947701
-0.0155216553349024,0.0227053242212331,0.00326282165957761,0.000363242622251618
-0.0233287973702515,0.0300229623888769,0.0026226057938843,0.00204334734155059
-0.0270422204527321,0.035825416155508,0.00211323791196207,0.00275800345782791
-0.0282309793596334,0.0398876155620703,0.000931465668286965,0.00224521433191155
-0.0296860993449136,0.0388591806141871,-0.00114679074757639,0.00113303992154077
-0.0276807689560799,0.037432338019172,-0.00243594856587511,1.62034420347636e-05
-0.0215687283435093,0.0447575164382301,-0.00136591780091572,-0.00100316537826764
-0.0151306389474451,0.0486622812996531,-0.000396892746296557,-0.00169291988408017
-0.00936321923441176,0.0343304146007228,-0.00267644062769946,-0.00196111198293627
-0.00490679007079905,0.0153491310225909,-0.00608263048492894,-0.00192496137446978
-0.00132689490526981,0.00521474637442031,-0.00628198647064845,-0.00158615438273721
