0.0204400474262555,-0.0150016870751104,0.00113039237884235,0.0131761739047566
-0.00705644433347193,-0.0122502482922197,0.00194547813182358,0.0167016164614047
-0.0303156758897853,-0.0103635547573299,0.00336825218494092,0.0193408464497136
-0.0315997050537381,-0.0109775079611119,0.00296385220750368,0.0166854923856856
-0.0141063317714725,-0.0168133173413436,0.000493914891411842,0.0100796279787649
0.00590167812044985,-0.0255378982895937,-0.00378926722898291,0.00306921944038773
0.0129636197215045,-0.0254319922989827,-0.00988839135692274,-0.00375205608319866
0.00321659671412324,-0.0100329531215906,-0.015007022240039,-0.0128842609454589
-0.0146232982598832,0.00136432845577113,-0.0124294002173483,-0.0276888379875652
-0.0272850355423288,-0.0144934756427119,-0.00326175141830048,-0.0456657570820728
-0.0297214602257589,-0.0467826434809251,0.000590404779332025,-0.0544843146681444
-0.02733530590805,-0.0656929382954816,-0.00363013391733711,-0.0440966160058801
-0.0265936242679984,-0.0537748671963074,-0.00621130633449734,-0.0192426276161631
-0.0299485785389348,-0.0169529287789143,-0.00361544152231651,0.00698281518872259
-0.0373954799370351,0.0202393930307459,0.000472036357265705,0.0255616871349201
-0.0413318077818827,0.034760742221532,0.00451650561075944,0.0345794957869169
-0.0340690542499147,0.0253832663944189,0.00504136582292024,0.0364827272968991
-0.0226535661713352,0.0113889793557579,0.00202449407092219,0.0348101871473099
-0.0173769519647073,0.00737516564962088,0.00100810818623859,0.0312960277183418
-0.017358596164962,0.00857815045906375,-0.00051398279527723,0.0255942334068135
-0.019848671669753,0.0055215101927583,-0.00509961672921299,0.017791901753307
-0.0214576034021705,0.000419037393329878,-0.009160266553697,0.0100611942478563
-0.0156042017072546,0.00229820034359777,-0.0124285250839917,0.00510949731741277
-0.0065824615802485,0.0128594475300859,-0.0150340343039176,0.00308220892195928
-0.00820391370193075,0.0249262448128916,-0.0166461063894317,0.000883428640985413
-0.0197158602341731,0.0387984935266897,-0.0185150805319684,-0.00299266637795272
-0.0256896164094424,0.0548679953629995,-0.0189176916368642,-0.00549825144824242
-0.0191490569234661,0.061304898446922,-0.0154429293736112,-0.00486936685185264
-0.0124177660815949,0.0587026037288733,-0.0106761916838986,-0.00440944395012989
-0.0180508740445214,0.0562595020349885,-0.00941478460289503,-0.00814743208329795
-0.0273290811574153,0.0543864294949547,-0.0118440010282684,-0.0173216353765665
-0.0209464601652314,0.0521782410561708,-0.0125067816432023,-0.0301367157949448
0.00643104413016098,0.0506053117553503,-0.0080119423568814,-0.0413878005419947
0.031036457812393,0.0510808121813781,-0.00159282039100832,-0.0446366711279357
0.0314993694757128,0.0575779218224328,0.00211447896553558,-0.0368323934676399
0.0177063233827001,0.0736931738500724,0.000780599887694135,-0.0197505695477563
0.0159269414983999,0.0954573015850348,-0.00293339717649958,0.00168318511394253
0.0318345710812141,0.112633363639322,-0.00584201737446534,0.0212844849087549
0.0375306512396219,0.09757786173636,-0.00649902392718803,0.0334218913347361
0.0188419158793208,0.0263953751281568,-0.00051722038500012,0.0347506088160942
-0.0134776141592517,-0.0743292785426003,0.00866648094530811,0.0278073163777558
-0.0484507157448536,-0.145332617250792,0.0130563795041122,0.020261938005962
-0.0824558052175881,-0.141071530940857,0.0141124302374831,0.0150657745816429
-0.10107356828273,-0.0675701096219882,0.014125501964639,0.00887340924417569
-0.0790166470636092,0.0100471322134421,0.0124016590945204,0.00191839345857191
-0.0397249192618598,0.0376999430886722,0.0131075744797317,-0.00316243954894196
-0.0279134746787411,0.0273142543174885,0.0191870085981045,-0.00775588097311588
-0.025193917390209,0.00608367509056452,0.0226951458430441,-0.012324789822706
0.0118925408200561,-0.023221642443208,0.0180126421756014,-0.0146229415063562
0.0693014840630865,-0.0432769673669629,0.0101250138211246,-0.0147298446067999
0.0948669209859941,-0.0300162149541566,0.00466151967505512,-0.0143369270262365
0.075612928392333,0.0105800816500352,0.00144600725916403,-0.0131437799172385
0.0430795502031434,0.0547762631766045,-0.00559898105153014,-0.00948345460280984
0.0213489686311477,0.0723002681828555,-0.0153157799477842,-0.00357493928130571
0.00671211292349222,0.0566514939353145,-0.018691661610425,0.00276625400053687
-0.0109328798009291,0.0338167891466671,-0.0149601676572657,0.00905317971259034
-0.0251978278608115,0.0144749550673067,-0.0113591574066963,0.0153444668714553
-0.0284041842850816,-0.0104795073767375,-0.00817646055313567,0.0193231304761869
-0.0261915341274216,-0.0300718409805844,0.000553003213573797,0.0176890136987446
-0.0221615707939485,-0.0286742787026189,0.0103168750352321,0.0105733852730763
-0.015716440284294,-0.0237185731846685,0.0142708567331739,0.00242389328980481
-0.0114667481095608,-0.0231832014493907,0.0152631143323932,-0.00142784935702159
-0.00525707475501469,-0.0115222763814301,0.0150879187100041,-1.24685914327976e-05
0.0100605225884609,0.00729751610051362,0.0126489048105203,0.00151737381780762
0.0161437745897184,0.0165909437638632,0.00509248464803532,-0.000306605195228622
0.00480183481339893,0.00883247925278252,-0.0073869856343689,-0.0012078864578678
0.00152493516696384,0.000897371213659494,-0.0182463267850842,0.00354909696416587
0.00881276337865985,0.00469296742754997,-0.0235717272517353,0.011518423174104
0.000804830400673671,0.00211587760425986,-0.0195174537363753,0.0167790273273809
-0.0233140593351413,-0.0131659694447939,-0.00961479342132747,0.0167416810048972
-0.0390306763697985,-0.0344586418483957,-0.00511856809458879,0.0124800436655612
-0.031889657909816,-0.0536622595949073,-0.00571991817586655,0.00605979325266004
-0.0143067442775945,-0.0560199669080394,-0.00495792726707005,0.000287754238863319
-0.00719485695956741,-0.0437098526835362,-0.00155453753555246,-0.00131670764651543
-0.0122934200153561,-0.0281286627821277,0.00408645629587652,0.00250063191876047
-0.024524515542766,-0.000674982596838483,0.0102912308056604,0.0082257884271192
-0.0462621314661051,0.0278899908968276,0.0151095839073342,0.0109230750993425
-0.0665213254698209,0.00413532344184694,0.0165888379694058,0.00907755106211853
-0.0693944187554691,-0.0635205317993338,0.0131301846789401,0.00400061207061281
-0.0599633343604083,-0.0942758738299361,0.00821817328890461,-0.00234145288956076
-0.0415238657145475,-0.0631607606527925,0.00573018667030496,-0.00736354121066663
-0.0131618170981978,-0.00455174971973733,0.0040354986706522,-0.00964978532671052
0.0192376263177216,0.0380757929288341,0.00363200750950323,-0.0101678083241241
0.0417265714273094,0.0456005103399974,0.00501055991787706,-0.00977492781570478
0.0319845022927176,0.0430865716315565,0.00365385829537785,-0.00759246567116379
-0.00143216391052535,0.0391344427072976,-0.000460113293415589,-0.00254793488174941
-0.0231791986745074,0.0264885239707592,-0.00479467047525015,0.00385878293861172
-0.0248712209651706,0.0282028567269781,-0.00920665639081771,0.00771440403562421
-0.0316531924834305,0.0533574491411635,-0.0146938401751428,0.0063562104495062
-0.0485623480157474,0.0706787926950727,-0.0180027262383645,0.000914489826355782
-0.0521098642980877,0.0676779814715562,-0.0149388836152837,-0.00480707065179304
-0.0348318474202235,0.0606823689949485,-0.00968949495409035,-0.00723103240248279
0.000852316214710339,0.0428217926009129,-0.00534614132024551,-0.0049447899337285
0.0446864833555096,0.0172967383281106,-0.00200359092367831,0.000523678877410916
0.0633603966658871,0.0215608843668808,-0.00248859852863055,0.00513409297937292
0.0461996596924073,0.053764291728169,-0.00636085312442514,0.00468000098503789
0.0157819893014403,0.0842892625687143,-0.00997302305067587,-0.000741582867923586
-0.0224860247653859,0.108728062563621,-0.0100143708701433,-0.00614380987742122
-0.0640203371287709,0.128056903723945,-0.00624837206654582,-0.00750257972520919
-0.0813767669511129,0.131165831228536,-0.00417031765433341,-0.00593000432827241
-0.0657190094501676,0.104853086470188,-0.00438506544850058,-0.00546346443367515
-0.0382329175136276,0.0263893910443428,0.000820001651557389,-0.00797473781271164
-0.00546906764356968,-0.112514578276028,0.00975965729920615,-0.0117902999826675
0.028925602165415,-0.213468011850824,0.0133333771018583,-0.0133194048408014
0.0363983044923438,-0.1649251056681,0.00906913542466885,-0.00964361360032278
0.0201480714973917,-0.0269683343577876,0.00109506906948576,-0.00166850069417351
0.0150900405863798,0.0673369265767123,-0.00358538190295409,0.00601049583663051
0.0197312376196901,0.0812850170377134,-0.00118770459638114,0.00973951836061807
0.00783422503644387,0.0559416471371819,0.00458388538362956,0.0113361258182834
-0.00806812074067287,0.0468755837678244,0.00639149148092757,0.0148492864486854
0.032650297926837,0.0747163331839471,0.00322968915363921,0.018981985918106
0.138553209701546,0.0990931043184038,-0.00099081881905172,0.0182922008141207
0.191247918314602,0.0876055632450757,-0.00291199118417822,0.0113468174642994
0.113096655184695,0.0558376546109035,-0.00303015082116668,0.000568161771071354
0.0129466937564129,0.0230242667549691,-0.00622939315014725,-0.0120827673427647
-0.00571436686066973,-0.000653811778663665,-0.0141570427874528,-0.0229239069318234
0.0135494065215157,-0.00728433179596032,-0.0196593224138773,-0.0269571604192167
0.0113186515852548,-0.00304048504323088,-0.0192715814488333,-0.0227116818058214
-0.00215324721878654,-0.0177821759283816,-0.0189034202822101,-0.0128523813903984
-0.00954304965880626,-0.0651347975848083,-0.0191492726407643,-0.00160603086844816
-0.0180117369607855,-0.104526594961924,-0.0180281344686595,0.00728986433064978
-0.0127790619040591,-0.100930854487627,-0.0157901956738634,0.0115951302021005
0.027573459795184,-0.0641588704130056,-0.0117628517792559,0.0101795085980874
0.0799748491860272,-0.0221526891903749,-0.00792573653890575,0.0035441822722315
0.114610910894732,0.00658989954946781,-0.00648126996643086,-0.00340998411394133
0.123401561430173,0.0259380320343781,-0.00586348286099533,-0.00446703830603239
0.100701922208587,0.0403641405672549,-0.0038359931910852,0.000594219956166743
0.0687169157577931,0.0458513246525927,0.000240328964473527,0.00691195439212139
0.064160472911903,0.0459201222125641,0.00363900358741428,0.0106356912813638
0.0719023423518435,0.0363872520496736,0.00439875430632727,0.0119839937072876
0.052932328972559,-0.000334921567974246,0.00523774726178442,0.0128503037861564
0.00335646374602967,-0.0417226439717005,0.00707876340554625,0.0126034763383284
-0.043863124355033,-0.0458335405387839,0.0097970548177341,0.00920351967971788
-0.0506080865450627,-0.0238047631886958,0.0131258062266803,0.00305224750577663
-0.0213002088093424,-0.0113965871660511,0.0129149282009488,-0.00395118458228621
0.00859887719139476,-0.0135867388803869,0.0100116125112223,-0.0108488984488795
0.0172101137564098,-0.00882547819120634,0.00736653443820763,-0.0162370063071901
0.0106856504770195,0.00470535014044263,0.00334152828418328,-0.0186232097274947
0.0160495333923442,0.0107289398965871,0.00355567436549651,-0.0186180286354519
0.0323642400004246,0.00244656169284085,0.0129780926499128,-0.0173815661181421
0.0302910293228316,-0.0413818781386896,0.0238082464745919,-0.0143443641754555
0.0164960842258611,-0.12886891526391,0.0296653257464954,-0.00875680011707854
0.00378473702258046,-0.221786874561974,0.0305824117104429,-0.00262682625281692
-0.00471032012048038,-0.270245167027252,0.0265073076205529,0.000209316375756011
0.0118742316781973,-0.231598218610232,0.0183697684028641,-0.00149737097165747
0.0418913127553357,-0.126274705650243,0.00989520839085351,-0.00405233087320628
0.0490759757561514,-0.036719094434981,0.0048081787997016,-0.00305959002271726
0.0329211121483328,0.0111729869413874,0.00303823489446668,0.00130150249074669
0.0156719880820602,0.0449536556985622,0.00461999757211558,0.00570538950241336
0.00997328476201913,0.0699513465906683,0.011403233567565,0.00747384546624727
0.00957248054855176,0.084502978917233,0.0196470840008041,0.00591717798457025
-0.00264864749828146,0.0942307396383466,0.0232096806957361,0.0018499078715672
-0.0285283339514812,0.100268720756901,0.0214916817118262,-0.0031634720850993
-0.0548111594244615,0.0970534398522372,0.0168166488346727,-0.00749224556051688
-0.0707675008904634,0.0731586136467222,0.0118188925704748,-0.0104382992030817
-0.0655796194619652,0.0242853522666561,0.00729265088678257,-0.01190640412618
-0.0408334294630046,-0.0475354443646809,0.00482255238669833,-0.0119683783032283
-0.0133751213983925,-0.120840086017093,0.00512775164657467,-0.0115159083564045
0.00722447692929169,-0.150004403441267,0.00264845375326274,-0.01111029035527
0.016883607170208,-0.131246541471421,-0.00486120407310556,-0.0095217170979445
0.0152985915605152,-0.104045515219176,-0.0107602750202115,-0.00575474735858938
0.010884981780401,-0.077109498933607,-0.00968190143203928,-0.000741367381059252
0.0079521171233023,-0.0461015358293044,-0.00386621611586531,0.00467520844376742
-0.000326358289387003,-0.0300066466812787,0.00378764008248381,0.00986574369547743
-0.0158319439970069,-0.0316271018669541,0.0107305071612634,0.0127807738119414
-0.0227151403844335,-0.0319496069064773,0.0138289039578968,0.0118840342285846
-0.0120616242350171,-0.0242714003576647,0.0148073152960596,0.00789410062919946
0.000693084195118538,-0.013781105597573,0.0145060469209251,0.0029436110566564
0.00520718717785413,-0.00887325413440152,0.0119364473575682,-0.000966248416908989
0.00131237086507444,-0.0143412835468405,0.00943882971529054,-0.00359543525953609
-0.00998390612923953,-0.0233734691348245,0.00779960594378177,-0.00570521242654803
-0.0183058826590079,-0.0289387560594201,0.00616061881044302,-0.00795070127060753
-0.0171071676524255,-0.0309805380389478,0.00368796967565719,-0.0102376261148384
-0.0112912137495801,-0.0292990662667086,0.000527211512826144,-0.00946463991734174
-0.0057576158152541,-0.024224892005151,-0.00170100202205032,-0.00275655904849343
-0.00232285380759709,-0.0199178079151167,-0.00441422713937246,0.00684302113240737
-0.000791811390045482,-0.0191796005303732,-0.00979551668865696,0.0135596113526146
-0.00342524486304829,-0.0169430272674838,-0.0151827293436608,0.0150945372416237
-0.0185412021834441,-0.00588630611880636,-0.0174617903101973,0.0129849810606717
-0.0371723509486331,0.0151495447213322,-0.017777806252257,0.00998602931891795
-0.0421570535059862,0.0356412498785004,-0.0173419705356807,0.00747881882733919
-0.0351611030408905,0.0409088908923069,-0.0148152997401055,0.00291173086769092
-0.0167355487588143,0.0324685347861016,-0.0127349557251478,-0.0061094344306136
0.00654953607800361,0.0230523760067137,-0.0150182342933053,-0.0140783844674318
0.0155092721007671,0.0166517486508355,-0.0180777585819214,-0.0135146582057486
0.0107642605809937,0.00638847019976167,-0.0191127548219874,-0.00564556761461497
0.00706362027765894,-0.00837579120880725,-0.0187017924902898,0.00348416534929074
0.00700703468786244,-0.0150903920109722,-0.0173119980716715,0.0106152651270263
0.00508047830358279,-0.00800591340985144,-0.0166490857100475,0.0154776618898069
-0.0016508863389728,0.00388470638830961,-0.0154409101785952,0.0183127244680503
-0.0107953000475707,0.0136103893608813,-0.0134708778775817,0.0178659519882595
-0.018034405823051,0.0176423336841357,-0.0144670446425562,0.0131137658439991
-0.0202959849436508,0.0115694520584067,-0.0159848699296856,0.00690407625938556
-0.0149555882956504,0.000676180807224251,-0.0134318490477323,0.00307803450318058
-0.00229629369572214,-0.00801219142464716,-0.00975648729186616,0.00197295104958927
0.00849917699065216,-0.0105376700588213,-0.00711940847504985,0.00138498099927017
0.00185840074189868,9.08338257524515e-05,-0.00434821922154055,-0.00201417156448779
-0.0174076545952513,0.0185281511346142,-0.00280030295872293,-0.00992758202056542
-0.0292469961343249,0.0295268181784643,-0.00238511010706018,-0.0177109284727754
-0.030109858628616,0.030287051801866,-0.000730578789219506,-0.0186617141364848
-0.0259925047008904,0.0269439051274598,0.000578111290827805,-0.0130107623311792
-0.0213122235117981,0.0235287087587735,0.000158763517451279,-0.00604260437788579
-0.0205210576710522,0.0228705745229104,0.00165739155584898,-0.000504114235312055
-0.021522392020634,0.0229306926142519,0.00657234924330009,0.00565472345268364
-0.0198841895714725,0.0216135735285339,0.0105800803577217,0.0145459155491202
-0.0160169859803761,0.024576533195053,0.0119895742974527,0.0227926505792377
-0.0121938869797995,0.0332577410608417,0.0131487653855624,0.0262346569058579
-0.0108235896493422,0.0405545287272552,0.0141406214223407,0.0266664604092192
-0.0107798351592346,0.0385140527501457,0.0144762722786758,0.0257624686262871
-0.00815068893691017,0.0293427223652986,0.0149726447832501,0.0200125812965868
-0.0038074970973258,0.0247603437767326,0.0150930244815917,0.00785132110264494
-0.00414092419012487,0.0244136291861364,0.0143386314675202,-0.00693968831103862
-0.0103967348056198,0.0207209481170587,0.0152007127278785,-0.0204954910202664
-0.0155007708018747,0.013100655697988,0.0177890970074349,-0.0311790646712309
-0.0151609131432502,0.00296130531870713,0.0187359253888977,-0.0378114411754079
-0.0119596622208687,-0.00469377228962041,0.0174492338787816,-0.0399335036526083
-0.00958874423961888,-0.00203299212257336,0.0166464067160138,-0.0388960116214126
-0.00965842489952124,0.0039961498780937,0.0170553398685055,-0.0333828357090924
-0.0102894171937654,-0.00255583242902048,0.0174065920854887,-0.0179854484966348
-0.0108172981492918,-0.0143138298665742,0.0173844765249255,0.0072262462481445
-0.0147664333664533,-0.019861533874839,0.0157254548375534,0.0349455454171799
-0.0195975682248093,-0.0242346126649567,0.0125494701827578,0.0579827622836761
-0.019797951476943,-0.0208427749711815,0.0095096617316982,0.0694829244267837
-0.0208254787882769,-0.00400299848711911,0.00637406737788823,0.0648468229800767
-0.0282388459217829,0.0104045121315667,0.00233731631091342,0.0467786112498856
-0.0382363851799372,0.0139777491961959,-0.000471191969110692,0.021877193524999
-0.0434749008692134,0.0124082316378163,0.000388391105403398,-0.00444576634544115
-0.0421749709623996,0.010072080726883,0.00441013083464858,-0.0272781402774981
-0.0415461200349033,0.0192045326611935,0.00868065342655537,-0.0463095119086557
-0.0409634167852606,0.0475452899119348,0.00826882096721976,-0.0672064096662151
-0.0305383125675578,0.0727207218861941,0.00590666799321747,-0.0843173342711095
-0.00740996026502929,0.0672921285505898,0.00604561981769274,-0.0805324591321326
0.0163651807575219,0.0338982478775907,0.00754964206897813,-0.0544259239432996
0.0289382141527887,-0.00625745147350307,0.00845661735741057,-0.0230330887673058
0.0311140222501943,-0.0282073847175412,0.0051117956852361,0.00218100954420616
0.0270695742259307,-0.0209146766615583,-0.0014038027717965,0.0215319985459648
0.0191568238534333,-0.0125467910532498,-0.00695870206310282,0.0354356037188735
0.0080874820147142,-0.0313058770225298,-0.0115179092950657,0.0427464681995006
-0.00160318878300091,-0.0663689752288749,-0.0146264610938759,0.0443852114822189
-0.00456921442153432,-0.0926904781806542,-0.013109091953499,0.0406265064059068
-0.0053619338962015,-0.0877406077654255,-0.011028797019118,0.0305159778857775
-0.0176033712661533,-0.0481219475559899,-0.0141288550284513,0.0164675606326244
-0.0410655827384535,-0.00173711583075474,-0.016028149386083,0.00256356769236649
-0.0550685528483529,0.0266718983718486,-0.011640847883331,-0.0100272934395138
-0.0535305817492569,0.0383798128135176,-0.00601012433424597,-0.0210746319562937
-0.05112874626414,0.056926161934185,-0.00205570484381096,-0.0279368250438722
-0.0517635347638298,0.090776902709114,-0.000675567421757051,-0.026377722218538
-0.0498225526351909,0.102829126382365,-0.000518332380565742,-0.0165321835370062
-0.0422212099983904,0.083265503504987,0.00101903001931899,-0.0052832835839536
-0.0205208057037648,0.0685398902827144,-0.000392787944615247,0.000538391697231901
0.0035211847668952,0.0647867229306929,-0.00730526760322043,-0.0002176255571959
0.00120275153772424,0.0576878372680768,-0.0149178206154637,-0.00444661475871027
-0.00899729772214778,0.0433401068325549,-0.017791512294702,-0.00942899937806344
0.00730234352463849,0.0289752889188086,-0.0164678198061473,-0.0152432981651358
0.0275022974812457,0.0242512188775034,-0.0155330698616631,-0.0216707278424993
0.0345304826624304,0.00434568635363698,-0.0155889467215661,-0.0247911478972285
0.0517883587777665,-0.0616682724770121,-0.0167727687759882,-0.019606736306872
0.0637999465245252,-0.128556219836044,-0.0190310487836145,-0.00556017654179621
0.0412553696666448,-0.128823181710606,-0.0191217797480044,0.0110437473807802
0.00371500785279502,-0.0765656454337196,-0.0154571279068839,0.0217471600889036
-0.0229870420864845,-0.0115147278030506,-0.00982201320897714,0.0235839856680234
-0.0402860909466213,0.0457985651710553,-0.00753990462690898,0.0196882288075952
-0.0525402608247829,0.0756168734787847,-0.00907330301613367,0.0151245845519187
-0.053000442641014,0.0778253639856711,-0.0110316375557288,0.0133288723402787
-0.0339429267432292,0.0620109678923833,-0.0143069144071315,0.0135410688588769
0.00424627896689133,0.0175802109344095,-0.0150560079737758,0.0125452394374384
0.0327016655444287,-0.0472521707382125,-0.00715307686177954,0.00802681316143348
0.02237055401822,-0.0803031938646258,0.00330473376471946,0.000457855952117749
-0.00351216045030651,-0.0711369901922227,0.00680551470540256,-0.00533731622764341
-0.00728608763474132,-0.0512022488491467,0.00531948860198287,-0.00478872361357575
0.0128023606826374,-0.0267594728948873,0.00660765051523624,0.00143767774526654
0.0322411098167624,-0.0072348527059978,0.0125907541363596,0.0101343273946593
0.0350229098427436,-0.0117581825905972,0.0147317293686067,0.0174300098373297
0.0251711690206363,-0.02633793961924,0.00793642832820485,0.0197513549969386
0.0113012663357167,-0.0151495258897256,0.00135253307712702,0.0173819479457824
0.00130047748042275,0.0232229294903273,-0.000770544769497783,0.0136681938684208
-0.00559118514605668,0.0552018892089752,-0.00294070588959062,0.0100229260308986
-0.0139527525397422,0.0635947026198793,-0.00671263973648081,0.00560327995383498
-0.0190138867742328,0.0696819015114396,-0.0120103273292522,0.001317786566948
-0.0135351154517819,0.0920926618770706,-0.0171904142043668,0.000545280800618912
-0.0015065459226095,0.11285361915845,-0.0198181187952332,0.00490482799696506
0.00752427797659511,0.107938390058027,-0.0184750879081844,0.0108566059120427
0.0136546368442293,0.0803190991086598,-0.0149565667638545,0.0127854360663644
0.0206177839553813,0.0585298083775011,-0.0122913808596307,0.00882791028535915
0.0308428870515548,0.0679860070373854,-0.0112499184380424,0.00199909386288333
0.0402778887756364,0.098303842297278,-0.010551427043599,-0.00370200119919517
0.0368509029747286,0.100345487315767,-0.00645789303609754,-0.00745936924061008
0.0264166102042606,0.0548065799027411,0.00145907708259332,-0.0112441634251536
0.0316040329458174,-0.0264585618266043,0.00779161610229154,-0.0148091916278181
0.0500224952690646,-0.153765944915637,0.0109801372652773,-0.014143481032424
0.0585126813930888,-0.269193730264546,0.0100909974968382,-0.00795373301250365
0.0507810721755083,-0.263386159597696,0.00197902946247744,9.13806863031691e-05
0.0329527632579901,-0.140907023489022,-0.00890089494239878,0.00853558937207839
0.00847652981867932,-0.0100209683366313,-0.0174566224207646,0.0187384495616284
-0.0153771696467392,0.0646195360180183,-0.0224937541755624,0.0289003675341691
-0.0197221720136256,0.100790110732209,-0.0222286481266704,0.0350807222212579
0.00771612626791116,0.0923137994058568,-0.0189484381317945,0.0347121719452883
0.0391654693041981,0.0220651141449625,-0.0175049263449986,0.0268523053674887
0.0404274181589166,-0.0448879458373948,-0.0164670838815574,0.0131537371758577
0.0314644735821182,-0.0403539725125043,-0.0132340921746783,-0.00169464039246732
0.0467854371622587,0.0128032588884573,-0.00969138592329742,-0.0129270656483918
0.069402278134137,0.0512608556450429,-0.0060926282101474,-0.0187515825306436
0.0659448338057624,0.0598614616175001,-0.00202870016840297,-0.0205850732171708
0.0423000805489915,0.0541029050252331,0.00246008023152219,-0.0207576586351114
0.0290765128627,0.0342414333784258,0.00634201865211556,-0.0201692903665464
0.0187636033269945,0.0179047545929437,0.00596392218412825,-0.0184052424338377
-0.0166821943955697,0.0185670671197202,0.00354175153786038,-0.0149767077112763
-0.0466073715316967,0.0166066772880263,0.00492964805435068,-0.0104124798147452
-0.0363105434118599,0.00325255189814565,0.00868852153743084,-0.00664517248104987
0.00187778684665315,-0.0156284037004805,0.00898651156684777,-0.00486501175455434
0.0545855302544428,-0.0382552126692977,0.00671378990679803,-0.00341360733000324
0.0971558030182562,-0.0645446357533472,0.00692949260814462,-0.000554537348692237
0.0832363915726644,-0.07322581693139,0.00916706765783948,0.0029146772349622
0.00978280108088575,-0.0367336983714958,0.0113012362941481,0.00505157482892681
-0.0500795312539505,0.0250323907362579,0.0117831235130492,0.00414447672913076
-0.0386922682030974,0.0611845922584276,0.00879622684304415,-1.80496581687647e-05
0.00590552625174869,0.0516046493473857,0.00307820862090332,-0.00472164044455962
0.023026765977321,0.0246431237376051,-0.0016438276700968,-0.0063587380078437
0.00459606965816953,0.00737595427627086,-0.00176648709744903,-0.00513495401141407
-0.0257138896767595,-0.000513434121083609,0.00146965251267937,-0.00367797713999843
-0.0507405992279849,-0.00910331123456586,0.00406112626791193,-0.0024845660669409
-0.0637179986877588,-0.0282416110997176,0.0064302215827367,-0.00113549490774774
-0.05272525553647,-0.0473599168530878,0.0123174752348994,-0.000305433018488393
-0.0216545631127381,-0.0496516250606467,0.0197029121506406,-0.000449787004647661
0.00133029359740329,-0.0477380244098776,0.0238820487294053,-0.00111352655661399
0.0124188329172112,-0.0516626212278326,0.0258589253913456,-0.00201701902441807
0.0302165563066274,-0.0476797466980302,0.028083918153742,-0.00307295193844711
0.0454200453328879,-0.0463486196137091,0.0312033435982852,-0.00386837002787731
0.0402348054168261,-0.058835111083742,0.0337747329403601,-0.00420395825978589
0.0191643607470371,-0.0491318424719325,0.0334561654923783,-0.00447005895794712
-0.0135855189401724,-0.00772566910276402,0.0301227755058829,-0.00513668628571381
-0.0455611195318119,0.0268547088037853,0.0241995138459836,-0.00609483118132798
-0.0478542848064686,0.0404296770933614,0.0173604514094456,-0.00698712291999339
-0.0267022812337892,0.0400317113431683,0.012860141397198,-0.00785218664506999
-0.0206603390515687,0.0316911088659483,0.012340053872113,-0.00852691222269669
-0.0364467105362009,-0.000260889278465026,0.0153480027938482,-0.00841184913629253
-0.0454833626545057,-0.080781661447442,0.0180664043097434,-0.00737142863008596
-0.0364379308386407,-0.152909512071304,0.0168808924078648,-0.00578247823408356
-0.0237262757582992,-0.136911030398026,0.0117470930813777,-0.0038115973872657
-0.0146308713514084,-0.0523797730959705,0.00450418038729163,-0.00150684018591555
-0.00718867205997838,0.0327532609111765,0.000262785257325631,0.000666092691018829
0.00132825068854255,0.0739931801716605,0.0014657780958742,0.00198673513904164
0.00732425913109726,0.0651411297993972,0.00303881885204191,0.00218507761821062
0.00385538369314487,0.0291804597353173,0.00228164813781432,0.00192290212249023
0.00032554697863138,-0.00353193523971865,-0.00035938362596725,0.00194799933591093
0.0033590418913254,-0.0131403074705619,-0.00706530962801332,0.00224308594892187
-0.000549247114331852,0.000835304605952734,-0.0149533360375135,0.00243344013166741
-0.0169887364214403,0.0274626778407235,-0.0193847628396234,0.00215329097955681
-0.0386960457857708,0.0511237049958465,-0.0216565778848402,0.00124150230204696
-0.0613798073873109,0.0511252139981425,-0.0208679395437032,-0.000100739145398064
-0.0783437758487745,0.01631894410454,-0.0147252439679441,-0.00189826506961931
-0.0741204050420771,-0.0324756662828897,-0.00902009612151237,-0.00415412251664981
-0.0420790511614164,-0.070245656322717,-0.00947388402718107,-0.00537131818207052
-0.00603659921111814,-0.0819635214837716,-0.0153974969788436,-0.00390509877776845
0.00568733379124989,-0.0507123892899553,-0.0271773478372729,-0.000535993695619271
0.00316291176901248,0.00657198644744485,-0.0408936772177398,0.00253760685031529
0.0214480061515144,0.041108689369655,-0.0436092878862954,0.00385539028322541
0.0570296987045376,0.0358085844494708,-0.0322493813724382,0.00312880676058638
0.0577191377317151,0.0224725552472281,-0.0219026093175319,0.00120706540451511
0.0217841014234203,0.0195069973319926,-0.0203609310193477,-0.000212977741039327
0.0197669303368483,0.0020068923740893,-0.0174344707244788,-0.000236587373238703
0.0757840911370229,-0.0349042844795535,-0.00802277831754168,0.000147232011972609
0.131169990500842,-0.0602121710480213,-0.00135698539228743,3.27640870286228e-05
0.127039933321552,-0.0642051944376608,-0.0040244903437744,0.00100874578138124
0.0704995039600289,-0.0742282568893953,-0.0108082264718852,0.0047408168443364
-0.0049084272409993,-0.109367308426911,-0.0150726041023306,0.00902006271225128
-0.0820939152773207,-0.122974789214277,-0.0179685525338172,0.00924739831335336
-0.130312846518851,-0.0805556143847343,-0.0189056737632065,0.0040195348053963
-0.135161564199002,-0.0134879654901761,-0.0130744838770053,-0.00259897112206415
-0.105452749388165,0.0580383239457498,-0.00265596762592071,-0.00485465576417501
-0.0414456965184768,0.102306232915672,0.00477645017468106,-0.0011605528006256
0.0302083100091169,0.0948372722621265,0.00356044407776848,0.00356473438989342
0.0739106160340101,0.0805179841785692,-0.00503535463472849,0.00462016742843991
0.0831933060739298,0.0900646648247498,-0.0131939560820049,0.00334791783620108
0.0535549233372016,0.100900394882467,-0.0139906380370863,0.00196603804638943
-0.00563288981614357,0.0987505066130514,-0.00819758940914096,-0.00111505519300727
-0.0586649311784089,0.0828224184544731,-0.00240229249285331,-0.00839488608428483
-0.0881408994739179,0.0743351457352237,0.000548873311916852,-0.0186699009232135
-0.104446464979318,0.10965101431182,0.000104306001170604,-0.0242753076679023
-0.119698293795242,0.134656543070534,-0.00466550169856055,-0.0171950760804113
-0.12467034466737,0.0604552175619563,-0.00757438474946232,-0.000597819355461063
-0.0915362157159513,-0.0671473830804111,-0.00308506574951089,0.0134186424281798
-0.0122102234377374,-0.151802895057547,0.00538986033646712,0.0172345090729389
0.0880834115711772,-0.174490095574218,0.0130368570789696,0.0131448077642982
0.163927775392658,-0.164409419072661,0.0185365188587774,0.00629362215532964
0.168783211553828,-0.127888539055552,0.0209816312612715,-0.00188951929205225
0.115442262312654,-0.0512598939925532,0.018191561945344,-0.00995558692231182
0.0693253915352574,0.0214636692341591,0.0131680743529479,-0.0137694197848278
0.0554028097571633,0.0412658966519414,0.00735389094992095,-0.0104469938632169
0.0448755458630275,0.0186240895872136,-0.00109337382644502,0.00107224794086296
0.0125003752128222,-0.0170166211486416,-0.00312815772078217,0.0182409837944762
-0.0261852290605452,-0.0462166321230613,0.00610776857064152,0.0318104905390102
-0.0398711411149606,-0.0774155765002177,0.016880031400225,0.0342108814702455
-0.0309484375886204,-0.106611118211942,0.0227046678092968,0.0269616079094282
-0.0234924793628253,-0.0938617856087424,0.0214935343137076,0.0141228582171407
-0.0246705897974156,-0.0444658339135252,0.0148046568216738,-0.00333668416801614
-0.0195009856777029,-0.00650567690154955,0.0103758205490916,-0.0252140779839023
0.00291853947661296,0.0068275121321818,0.0108345696239792,-0.048782915705232
0.0184660112661855,0.00950625698013295,0.0113734315532461,-0.0665921105590206
0.000907783653790802,0.00658944555524733,0.0079141797999526,-0.0675563234358706
-0.027466047153948,-0.0017335294145195,0.00327538675239491,-0.0452112766914611
-0.0316210486923319,-0.0112641722035282,0.00278520282401126,-0.00660555253500482
-0.013354470461044,-0.0179725069734021,0.0033503671749913,0.0313292928856681
0.00663312679870619,-0.0196259761496209,-0.00114785667115986,0.0530233793117248
0.0211545774903633,-0.0253102945346501,-0.0084450163317572,0.0526174282175567
0.0304387871431897,-0.0505631927602118,-0.0137479646762625,0.0374917852347731
0.0376980639180318,-0.0888880433328689,-0.0149902036003587,0.0209300314870181
0.0529790756471638,-0.123094467576613,-0.0111272300721002,0.00961122050944823
0.0701912731425338,-0.137898466228543,-0.00604996630509814,0.00144309402648532
0.0690436638932743,-0.123556223235304,-0.00247578193444267,-0.00773638419719965
0.0517341450801916,-0.0986301804187923,0.00020774683257756,-0.017756909780163
0.0443227197126806,-0.0774004725167303,0.000466936679863777,-0.0224504162297054
0.0486298856770051,-0.0565098064573951,-2.01192175888938e-05,-0.0183238338695182
0.0333077963935549,-0.0427211860395176,0.000415452938650196,-0.0116465196818287
-0.000523743872088579,-0.029379448539464,-0.000137229158321293,-0.00827614002020267
-0.0163051291991906,-0.00266172628207981,-0.00193714146562625,-0.00503417236781112
-0.00484452214234661,0.0274047003838849,-0.00530508594754223,0.00397381595177989
0.0143542756046086,0.041522203300309,-0.00944726554825098,0.0186946731935403
0.0277630838269523,0.0326351972280833,-0.00862807146679162,0.031179796582928
0.0456141594011174,0.011728571447168,-0.00139122192953466,0.0342226459277675
0.0712915957414143,-0.00685405053859055,0.00479520125194204,0.0297787174440232
0.0845785898744675,-0.0151677873724664,0.00442937654226155,0.0229742923384302
0.0740955436773396,-0.0175698020834116,-0.000502007652631902,0.0147559420577848
0.0415936516388804,-0.0211105455619179,-0.00289561628828998,0.00504763415646331
0.00793576035910483,-0.0171454940811405,0.00112540239881482,-0.00502197249762958
-0.0036052924072387,-0.00464817290476222,0.00678753885344402,-0.0155550815967379
-0.00904117285906688,0.00200838266617213,0.0103674826659755,-0.026563319954187
-0.0291611764629174,0.00148396543931232,0.0093176882184785,-0.0329282567034005
-0.0550567619098487,0.00446279068897057,0.00254282864041154,-0.0260984195774315
-0.0830984061884835,0.0149116998825629,-0.00375147732681887,-0.00576088720727349
-0.106827285696545,0.0280418093672988,-0.00384099755429242,0.0162115043558515
-0.102686934805034,0.0334197642929682,0.000969608049958923,0.0303092946867145
-0.0707308760514606,0.0290860961388534,0.00587946696116319,0.038465583040959
-0.0321075174183826,0.0255192531312912,0.00990237989180884,0.0435332695766579
-0.00240153343502927,0.0263689498435687,0.0138585740716683,0.0423230964788351
0.0146490643908346,0.0368491120637365,0.0145803487547529,0.0319984093921051
0.0213182218948801,0.0594680818511306,0.00990863829187389,0.0157510562259563
0.0212574170113161,0.0741549202275634,0.00397177702117888,0.000926536981672776
0.0255456461465198,0.0725669316007562,0.00227051324558628,-0.0101391158061343
0.0334346471270451,0.0734156564397078,0.00747157745811905,-0.0243999049946874
0.0297714660590562,0.0799981900438691,0.0152161702299448,-0.0472338044651508
0.0183490061036863,0.0643519669100494,0.0185250011342686,-0.0723173838245027
0.0132932926968179,0.0129706544106932,0.0173282270437512,-0.0850153048009959
0.00921264553330719,-0.0418940955347753,0.0140587552482472,-0.0731747412772916
-0.00242923025009787,-0.0573568788000157,0.0114992522437357,-0.0366894969990175
-0.0137852434357857,-0.030872916952893,0.00941664651742853,0.0115087799141638
-0.018726775912606,0.00581107726177274,0.00281110863930948,0.0530252035177783
-0.0241962676591534,0.0321499896348015,-0.0053347006669955,0.0744335434414873
-0.0336750651423084,0.0503626782749712,-0.00950992396534358,0.0753032323073227
-0.0387875940356533,0.064945337326538,-0.0112889093668608,0.062896822426507
-0.0361146863742351,0.0703068174926425,-0.00998690882537868,0.0405288633528691
-0.0363519318876497,0.0665987145907313,-0.00587498621440739,0.0130278179965045
-0.0430090797005666,0.0615278567189725,-0.00354405048086024,-0.00622463528942935
-0.0412211652019697,0.0531934257236644,-0.0023283867555592,-0.0115148847946212
-0.0238095924790846,0.0383915487832522,0.00015206154187399,-0.0133099436456629
0.00197491106824757,0.0224275746515224,0.00028215861315664,-0.0197274809809227
0.0285390386786585,0.00825130057487989,-0.00403111376112147,-0.02800383339868
0.035897641406259,-0.010719259759695,-0.00725826156857913,-0.0329453419165067
0.00945042323717973,-0.0237923960588943,-0.00355956954616161,-0.0305057103873882
-0.0242664169050042,-0.00596708292148385,0.00247649403298241,-0.0201403779538815
-0.0315282742458873,0.0287302701364735,0.00311852156409841,-0.00808920583619339
-0.0199618315409142,0.0463354086865582,-0.000138502682511771,-0.00291727344507127
-0.0158738178893443,0.0433563870336283,-0.00340270842459763,-0.00509976719620578
-0.0218157576203018,0.0320283111923236,-0.00528755637193625,-0.00565763065226561
-0.0260719956988549,0.0180159901007951,-0.00362814096710146,-0.000694811419583633
-0.0227676340765775,0.0132761189660555,-0.000248076986444062,0.00109983807341368
-0.013234718274451,0.0235211851459997,-0.00160290208127916,-0.00731024230326703
-0.000448557264474327,0.0241175174501824,-0.00589486588545265,-0.0210497232347173
0.0155229839531156,0.00351662646679696,-0.00577716643746229,-0.0316717684002092
0.0282768876062863,-0.0203285620523567,-0.000953579914138286,-0.0367949142293164
0.0202420339169557,-0.0312407523857669,0.00346715408657625,-0.0364543223004509
-0.0109321053548857,-0.0148823085297939,0.00316319912178511,-0.0281032331069396
-0.0352396950046203,0.018214209621691,0.000216123493123443,-0.0134557316324665
-0.0321812207030255,0.0314005116873352,0.00220185571025946,0.000476719890682022
-0.0175986165094942,0.0155726585896671,0.00987304807646892,0.0103620876546542
-0.00921471583967907,-0.00454500495026001,0.0149870381590608,0.0178919321470701
-0.00179312736905027,0.00111857632741778,0.0153271547748652,0.024031134018209
0.0177255476128848,0.0316493717259166,0.0156703242709774,0.0277262440691491
0.0600482409250085,0.0429141900023823,0.0167559239368265,0.0292854932631867
0.108994628116272,0.0241621169070217,0.015936883652826,0.0300546987529915
0.111705961462571,0.0172128498758059,0.0113170510508672,0.0289217913230814
0.0570798501388113,0.0306792150393682,0.00515005494006881,0.0233848670994917
-0.00557519763685019,0.0332453964638475,0.00244589629812077,0.0135376577043404
-0.0443096220431507,0.00288492064242715,0.00366982595887204,0.00224667013187462
-0.0569983713646186,-0.0474065208352261,0.00545391668297476,-0.00728444577276047
-0.0532285945502384,-0.077621969565101,0.00553258378862693,-0.0134937210649659
-0.0440853159858589,-0.0677723392654163,0.00446149071747333,-0.0167557737054299
-0.0250599992551126,-0.0330531562743763,0.00367579803691911,-0.0181507635205852
-0.00647111002798254,-0.000210361907057102,0.00345795222821619,-0.0185826663318318
-0.0111463479879164,0.0170101425724429,0.00346246069946762,-0.0186249011169033
-0.0249208561925756,0.0237041045493795,0.00347292736695842,-0.0184508964767474
-0.0172002668312559,0.0235992810439579,0.00332554289656096,-0.0172690036300853
0.0127220560560727,0.0177901182910243,0.00287202928616532,-0.0134160771017928
0.0437670957999396,0.0110183765138854,0.00346310392944526,-0.00648899871436697
0.058080171848369,0.00547201093305444,0.00434430478366341,0.00122378341080422
0.0478722500416407,0.00149741116732865,0.00275192548509724,0.00693656811296631
0.023019519753936,-0.00097819220892828,-0.00238863739367721,0.0100363198605791
0.0094287074763328,0.00429526328319959,-0.00898089897320199,0.0119167299509561
0.012501238270168,0.0288191392295222,-0.0128692061903436,0.0139671510439018
0.0134848804492785,0.0739852977588027,-0.0151305279907079,0.0161403970606635
0.0095709406926634,0.117388748023479,-0.0171707521599728,0.0176397410252865
0.00683012497960125,0.131863637811636,-0.0149618886630032,0.0178619105574194
0.00123524932610632,0.119761073666729,-0.00972849678598253,0.0163681461158451
-0.0080063735753624,0.098941237038548,-0.00861995882023786,0.0132860358741816
-0.0167283126716887,0.0863226829561095,-0.0125273801089474,0.00970038968104767
-0.0210964781190012,0.0874682868950201,-0.0180035613633807,0.00716752022101697
-0.0199130782385731,0.0829476832170973,-0.0224577280868317,0.00656458917613741
-0.0165192970228507,0.0556221389699436,-0.0223165232916695,0.00768337668087679
-0.012865154363643,-0.0046900229007385,-0.0170133737088897,0.00984371500861605
-0.00341864190379466,-0.101793344857803,-0.0100032511709914,0.0114925649902068
0.015666809362436,-0.196275915283335,-0.00398066715510529,0.0107708968578241
0.0323997150433064,-0.219363627721253,-0.00196309031864526,0.00761488592949881
0.035913158248472,-0.155002456235285,-0.00498986758558063,0.00452842989497071
0.0291767272397091,-0.0655006521959592,-0.00434308991175249,0.00456729857326547
0.0159392141741124,-0.00664107046049109,0.00667747476712244,0.00728761943759619
-0.000836777173314547,0.025172535399625,0.017427627745168,0.00894611298351648
-0.0166276543496951,0.0553153683442084,0.0176681971558604,0.00709569770515526
-0.0262916827092624,0.0872923879854765,0.0112634888219087,0.00199665103251801
-0.0275969401423817,0.0927165796119985,0.00570021092607171,-0.00502487159985057
-0.0232370073536074,0.0469699394799782,0.00491437233533675,-0.0119618343874498
-0.0171078022931136,-0.0132284815664595,0.00511057911204024,-0.0166184497514872
-0.0129151510609077,-0.0254161852801422,0.00372923454541287,-0.0180854747768432
-0.00853871422945589,0.00152981909741472,0.00309851565319509,-0.0164576895984249
-0.000886141699046485,0.0237704131658283,0.00125533491175872,-0.0121626271497496
0.00387381872557312,0.0348410426026998,-0.00300569468136355,-0.00614892612633078
0.000961167213515947,0.0372800730839938,-0.00792207988154256,0.000537574566423005
-0.00594464767707636,0.0288143361461466,-0.0115626473904416,0.00665946775792416
-0.0156398205489542,0.0170909905447559,-0.0131617262732247,0.0107689863928474
-0.0288662507516331,0.0131296787337059,-0.0148231031704631,0.0121656341319476
-0.0423531280292587,0.0255448033549598,-0.0170414623120225,0.0111049379389325
-0.0518115814595572,0.0480038780328102,-0.0188815875461538,0.00847265632869566
-0.0505352633267628,0.0635263814525673,-0.0191428434839824,0.00544819400460964
-0.0381642988239941,0.0622734037558651,-0.0149367214275789,0.00290079598015931
-0.0252023385296904,0.0320165914833402,-0.00483121077743477,0.000818372060269017
-0.0190823460534127,-0.0268028077096596,0.00754851507352605,-0.0012078950003303
-0.0213966436232886,-0.077077105253963,0.0155288961811269,-0.00266359328409214
-0.0257009606130425,-0.081198916494659,0.0149167017682777,-0.00305992992497368
-0.0184454448743545,-0.0476425728045209,0.00896381099023004,-0.00345564173680615
-0.000468846161439967,-0.0103841093939306,0.00633587796162616,-0.00499615652038687
0.01590299562897,0.0173807910364027,0.00885883442211119,-0.00740638201841863
0.0251499637320202,0.032422012859653,0.0086829391117289,-0.00935249989274852
0.0282601396783959,0.0224651543383755,0.00143477829775981,-0.00961449276505767
0.0196471576508096,0.000162803242434797,-0.00596900969047958,-0.00819419500893243
-0.0120113912915951,-0.0124681699122629,-0.0054997963751874,-0.00602038185811689
-0.0544091558637165,-0.0163196859526267,0.000510401699464876,-0.00385797695599367
-0.0848150873058046,-0.00280465833751325,0.00432301303271771,-0.00226376237305111
-0.10379240712752,0.00822692457406799,0.00441579956555353,-0.00186098623924736
-0.120081537120527,-0.0200122324468052,0.00439604547482249,-0.00243904776385132
-0.126673206565884,-0.046666946792494,0.00505593496675066,-0.00313527990116564
-0.100478751754817,-0.0413437073736683,0.00377420826645411,-0.0040111427714979
-0.0321885937068594,-0.0569450478067439,-1.69914012043386e-05,-0.00523839059170311
0.0419029042470279,-0.0990481261334218,-0.00294720669921167,-0.0060104198514051
0.0740616858316698,-0.0955214423833426,-0.00355643259825395,-0.00547456190475568
0.0646818488255781,-0.0205633856322152,-0.00425229362660713,-0.00374266649298807
0.060443447110221,0.0770408652286615,-0.00854750914781505,-0.00233377380719826
0.0913646059048904,0.147760330849709,-0.0149939663256879,-0.00310855773774788
0.12889595921422,0.179915197429923,-0.0172283891267507,-0.00572993369458364
0.124070709893714,0.179526354413919,-0.0170370533801959,-0.0071896590577741
0.0781891425794939,0.145275734717015,-0.0190386963206124,-0.00497843480120936
0.0360225277255481,0.0778602949357178,-0.0220386328600501,0.000720219532386051
-0.00546356063144784,0.000589317214106849,-0.0262451930011253,0.00737765191383697
-0.0578175511550429,-0.0529648181421788,-0.0289500245547889,0.0111573594437752
-0.0739795829826064,-0.0694503009634962,-0.0271380274371511,0.00969859734159137
-0.055621384972144,-0.0781314393427104,-0.0235658558136272,0.00405384393124491
-0.0670328249347829,-0.110686263703954,-0.0183787300612158,-0.00233090765282701
-0.0999151402801064,-0.140482826496303,-0.0108726037814795,-0.00588058794794664
-0.0860365769806738,-0.137521159998021,-0.003685339891505,-0.00628931394075189
-0.0218273532196951,-0.118290971783201,0.00176678672331628,-0.00623182534033733
0.0435679479656999,-0.10007109176093,0.00529568198564679,-0.00700252995861903
0.0826821324868359,-0.0856962899536483,0.00704877182783452,-0.00721781956769498
0.0861138335275416,-0.0770109868173574,0.00831377557018562,-0.0052326459403736
0.0520363296922184,-0.0701500782501465,0.00857148567368358,-0.00141156811816943
0.00912007997835234,-0.0562338473808414,0.00416606025220501,0.00271198384616685
-0.0117965543631878,-0.0265717632963394,-0.00496895947799183,0.00616669965020178
-0.0137897329319841,0.00724974324409094,-0.0122764544050576,0.00820417094895097
0.00494774083266669,0.0220206264315197,-0.014542424035839,0.00791686479714893
0.052143099940961,0.00733214572156475,-0.0145126010042219,0.00495904440679487
0.104110984653929,-0.0244456538285036,-0.0126360412074267,0.000243327146288351
0.127874276596686,-0.0411303199544568,-0.00729862174911911,-0.00415100210971368
0.121386344169889,-0.0514316546285209,-0.000663636745688635,-0.00605373736754389
0.102686768428795,-0.0812939362007285,0.00587608963595442,-0.00545621758673708
0.0840170249711086,-0.101007041634498,0.0130157191375313,-0.00448987151559479
0.0657180486623087,-0.0820253052916005,0.0166212346946291,-0.00397393337144534
0.0437417304868767,-0.0467519783146257,0.0150048729004294,-0.00217486473730095
0.0231263174180184,-0.0288208313292131,0.0124277258745803,0.00227429683377748
0.00519550334270728,-0.0369964565988606,0.0101826789046328,0.00772839180711344
-0.00688940547014925,-0.0607949052121537,0.00771367227686841,0.0114482030175172
-0.00288532463593023,-0.0800164983855839,0.00698180348419162,0.0119738941178552
0.00973859395058245,-0.0724848231905002,0.0098881826901235,0.00957080403526602
0.0106938661814432,-0.0449608484575814,0.0136540313736632,0.00703488029646073
-0.00616506483714843,-0.025697325913921,0.0143519881825081,0.00677151101928693
-0.0288756386618571,-0.0195657945067439,0.0141278928087759,0.0066484679764067
-0.0462259718791106,-0.014320440395422,0.0167679681741851,0.00306301394749749
-0.0477660471240619,-0.00874005405002956,0.0210504087574333,-0.00448284374544964
-0.0324410815375935,-0.00205137731162764,0.0220826644497241,-0.0144635292383901
-0.0101709179501667,0.0126091095113706,0.0157960797819412,-0.0241745253521496
0.013750053208565,0.0278130191161798,0.00470351281361097,-0.0295141189717555
0.0318398337324376,0.028933763937133,-0.000103873531426074,-0.0281649468705588
0.038359584544122,0.0221202263707102,0.00506464506939551,-0.0211640332471549
0.0353923586633913,0.020759113356373,0.00793324798705192,-0.0101798089003028
0.030333573375948,0.0221848622536976,0.00469188432780073,0.0031845988978557
0.0283866575815014,0.0127162388258524,0.00684770529820781,0.0165398534837165
0.0263017910470559,-0.00877054209711263,0.0161718555342979,0.0270013783656718
0.0188386648694951,-0.0267857527457827,0.0228509160991093,0.0314225740736247
0.00916521627235472,-0.0330397271318214,0.022765537384115,0.0300947710111527
0.00633747193034218,-0.0230358711254964,0.0172321761243405,0.0297410931993803
0.00880948797866655,0.00016309225311207,0.011342442826759,0.0362247924272997
0.00892709228276157,0.0170248262647974,0.0127096396681035,0.0450484235670712
0.00522357259347924,0.0207510755321459,0.0191193340822565,0.0454551834652412
-0.00161266491438994,0.0233322768175735,0.0237175985683245,0.0316545884837244
-0.0101388283921782,0.0302500520472675,0.0276017976543598,0.00624967785761629
-0.0217979123152874,0.0380868337414576,0.0316712062163022,-0.0217128711361579
-0.0427337992030158,0.0519399129217683,0.0316803977413215,-0.0436717983595117
-0.0615997745712916,0.0807603508071209,0.0257547341326852,-0.0585392848488633
-0.0659388975894625,0.118665727638713,0.0161543105323576,-0.068654079474523
-0.0711367593753736,0.141187449201543,0.00849286615229583,-0.0721579096016789
-0.0743657350380082,0.126403099657023,0.00702245345983515,-0.0630775333207967
-0.0546898163554577,0.0905699660999875,0.00781891160983111,-0.0370361190465499
-0.0207850295955683,0.0703305090976023,0.00561526580849005,0.00321503381084252
0.0123742496910951,0.0745926585495759,0.000820168746119839,0.0458053765652832
0.0348389159590246,0.0876152124522112,-0.0043279346153932,0.0755954397504544
0.0329728652054291,0.0931073422770263,-0.00821996500240348,0.0825981330838432
0.0182923792671542,0.077252944553512,-0.00854047265881056,0.0661079599709078
0.0246719601719526,0.0306969790303279,-0.00537486859395214,0.0351098306839745
0.0474257378549019,-0.0156880482705692,-0.00322750949381791,0.0033501853240413
0.0383076737360714,-0.00731206564218094,-0.00402489846553464,-0.0183461104135941
-0.0110143254594283,0.0433036589809551,-0.00449847341108502,-0.0253304425423489
-0.0559425606416121,0.0751570698060998,-0.00255036437909565,-0.0210215692692632
-0.0682155984036719,0.0592491757654988,0.00159526253485614,-0.0153817395419799
-0.0547545098836801,0.00107398400588322,0.00598690661130235,-0.0119712519031787
-0.0349392799327493,-0.0526011263562848,0.00861715245527657,-0.00466524317139387
-0.0236875406314236,-0.0467263111054166,0.0114989535855047,0.00641926180589436
-0.0231338517832382,0.00154723745203765,0.0153328079599965,0.0122688427098051
-0.0273601233246687,0.0392475802162271,0.0161536033491489,0.00826203625233889
-0.0266159705640009,0.0316912011876852,0.012805137128607,-0.00141976258308452
-0.0199907102587654,-0.0190747285298685,0.00806394506858028,-0.00869543209010697
-0.0178838617722614,-0.0562985172291982,0.00354432363261317,-0.0101897388253184
-0.0228033994033564,-0.0446911236773086,0.000179038822954222,-0.00874283869998866
-0.0286001040998838,-0.00999652160399131,-0.000338316881763584,-0.006251235834806
-0.0268555976253796,0.0241146790060934,0.00254890032732121,-0.00513819843406626
-0.00746048556894978,0.050926996318791,0.00543910261311696,-0.0108653609376633
0.0302439268054855,0.0637612898851148,0.0017784401961376,-0.023741960303489
0.0575497118480626,0.0629549758990459,-0.00676558107079004,-0.0350005075484769
0.0437490777529666,0.050607041519978,-0.00686481370120259,-0.0358720741550279
0.00517186367584808,0.0351761606346949,0.00413216678026434,-0.0279250099166425
-0.0214688612703359,0.0282804072270994,0.0130842071082821,-0.0186408563710451
-0.0205985809260465,0.0235333004198044,0.0140918233478396,-0.00936357637758496
-0.00264390707508974,0.013819940406892,0.0121850234475905,0.00193122301460828
0.0101434870530449,0.00200989149357445,0.00881883244136229,0.0140907570039904
0.00838545327188256,-0.0177545571128477,0.00595611845972178,0.027308021937076
-0.000755669093674364,-0.0489728360352424,0.00757672080065148,0.0408153781370794
-0.00745251306611836,-0.0735556733173678,0.00857570719129769,0.0471132681518251
-0.010685374989127,-0.0753769248861492,0.00567658111772773,0.0400814960042649
-0.0121013163506407,-0.0631658724254593,0.00332761947591704,0.0218166179824802
-0.00974158046606753,-0.0565252088776052,0.00301627689960563,-0.00152852995180083
-0.00476139381215187,-0.0627876236888497,0.00244753955508835,-0.0226632896657367
-0.00231110666175883,-0.0739928544439184,-0.000162050865420444,-0.0337262845375016
-0.00464583709788223,-0.0860523716499216,-0.00544832429644505,-0.0321570742389541
-0.00259073069155773,-0.0999846237350113,-0.010440829310208,-0.0235889621388272
0.00919202125551638,-0.0963402606090375,-0.011584650875758,-0.0141315885433421
0.0206367344153578,-0.0602431385381379,-0.0102944628276206,-0.00534157984556211
0.0254064398472001,-0.0197619135816053,-0.00867413662398926,0.0027265526637463
0.0226301900302389,-0.0035115494069954,-0.00869995487028159,0.0105135024148678
0.0126532918430497,-0.0068086511652304,-0.0102852960036559,0.0196789077817887
0.00313062142365913,-0.0105520043395049,-0.0110038162734029,0.0285204202243802
-0.00205054250873818,-0.00487651074989145,-0.00943926688196092,0.0305087713639705
-0.0107846568669202,0.0069209945232229,-0.00651860799817133,0.0219872969376294
-0.0194261326221133,0.0328186976867671,-0.00559474062447156,0.00784952169739835
-0.0196129525556712,0.0773856340200756,-0.00546936091356375,-0.00289528447971039
-0.0144379436071919,0.101182705587991,-0.00254262644949214,-0.00610395475522631
0.00136022889110666,0.0745716309203387,0.000114346421583072,-0.00495530287532068
0.0225950287654133,0.0311813363538183,-0.000238681908885357,-0.00434700620555308
0.0281427110225838,0.00800953709562033,-0.00162617364817938,-0.00601243700284222
0.0179989250273295,0.00413900390622098,-0.00505989443791129,-0.00699809279424474
0.00567643874879272,0.0034231679261348,-0.0092410316246314,-0.00188287110154596
-0.00433367132093835,-0.00186133508141897,-0.00951973193100478,0.00736416898448665
-0.010382874313688,-0.00305119920703466,-0.00764482446609329,0.010819488194977
-0.0114444538199308,-0.00667243472412645,-0.00832337201510824,0.00684245797097901
-0.0105956120558429,-0.0500812830028566,-0.0114906995020591,0.00437151336106874
-0.0101949668180433,-0.115657086636223,-0.0121998441446266,0.00736322630733004
-0.00907669357455252,-0.125876881325002,-0.00833746087382271,0.0112891192385183
-0.0114626416378775,-0.0700527554631772,-0.00408190987414675,0.0120820690472384
-0.024109528181568,0.00349188611795934,-0.00176507646752908,0.00910654397638664
-0.0397094336940217,0.0631016940968634,-0.0019073054912679,0.00444198537466074
-0.0474487131971332,0.0938867539119827,-0.00416252039778545,0.00271914621872537
-0.048846387955948,0.0983674811149398,-0.00382647720568571,0.00489133931739439
-0.0496208655930336,0.0923970196560522,-0.00114647540064065,0.00444869535755735
-0.0472546286559308,0.082183703213004,-0.0011253188886688,-0.00279923327871967
-0.0319922074401437,0.0608456135885194,-0.00387553170068715,-0.0109749473744798
-0.00331807728250101,0.0269610772404719,-0.00696162449358623,-0.012610331518456
0.0283467910711259,-0.00748243470318977,-0.00800394580757458,-0.00884420393374779
0.0537483640706878,-0.0371719791485019,-0.00572197119167111,-0.0070681809785816
0.0560911996638633,-0.0649783910948615,-0.001997538146679,-0.0119389577603924
0.0276511556334967,-0.0672874220400607,0.00203780147774899,-0.0204089897746888
-0.0131072742193241,-0.0228463906117398,0.0061114688153803,-0.0251979185613663
-0.0494301401636472,0.0289311387798264,0.00747069937389429,-0.0230803726837127
-0.0658327117164366,0.043740207550804,0.00535678515422067,-0.0173645732480353
-0.0515059438371064,0.0389460164851453,0.00294270108917634,-0.0122136205353926
-0.024214595658846,0.0445917062771588,0.00195965067886057,-0.00858335394646429
0.00162192068836746,0.055752444908423,0.00213181169458177,-0.00553287396728614
0.0289395430772971,0.0563422496923958,0.00273079455304458,-0.00276907237695895
0.0629872156217498,0.0315647578510202,0.00254803488039964,-0.0012286999716906
0.110098373075118,-0.0100791495763235,0.00198310854703511,-0.00208541471502472
0.139853992712192,-0.0341721654556692,0.00173108865839706,-0.00594120603776886
0.112573188833654,-0.0509486127114494,0.000175510696296281,-0.011671091404807
0.0584439904738713,-0.0789369640003393,-0.00342535601129663,-0.0156228943419863
0.0336985422436165,-0.0862817828214844,-0.00512105177284437,-0.0142283294521391
0.0258584370384601,-0.0517678223020377,-0.00376234881126935,-0.00688289140185746
-0.0232304106226526,0.00968537490963207,-0.00392222810270017,0.0041942197960406
-0.118032888051331,0.0640442756165583,-0.00673865681999938,0.0136321121331971
-0.195336274684475,0.0761303928766298,-0.00735937559727011,0.015312258602196
-0.201337558054742,0.0208394495659482,-0.00267665327106786,0.00886449886666188
-0.135280469831214,-0.0813798600471731,0.0045720119967425,0.000425945300171086
-0.03790535872441,-0.140380279793435,0.00974261210885351,-0.00431347887842727
0.0377085259161785,-0.111506094233862,0.0084306071890086,-0.00502508917833408
0.0647503391416517,-0.0544354774971779,0.000430759915848568,-0.00394641147370685
0.0613863036286279,-0.0200434290185397,-0.00866506560568838,-0.00204896040407595
0.0563796352529511,-0.000179311885331018,-0.0146327255081732,-0.000547497765022997
0.0544743916946095,0.0184648776578467,-0.0165232240683443,-0.00127244518527205
0.0565549349647926,0.0336250348787783,-0.0157966387939997,-0.00265264053651744
0.0640112956268124,0.0396287476400321,-0.0153026281920825,-0.000866320215224002
0.0705500894154111,0.0279020042022073,-0.0138481773123711,0.00427469921976755
0.0766107514346245,0.00347962146301872,-0.0112308996037724,0.00822941828419067
0.0723452694924692,-0.00647340442627384,-0.0118337984490678,0.0065832658702507
0.04394399529568,0.00495496363039123,-0.0151620852979415,0.000898387599519813
0.0100268683201045,0.0137877604761709,-0.0172401156563792,-0.00208170002737
-0.00885710308458141,0.0090986737587749,-0.0186750013098539,0.00211363947495272
-0.0209251673803972,-0.00450823451682859,-0.0191270862983863,0.0114320000811613
-0.0328554844560379,-0.0260703853667359,-0.0160987099414888,0.0205094906128229
-0.0370200724732106,-0.0516113357533972,-0.00954938781928242,0.0254781727202175
-0.0301902312979627,-0.0680590232567863,-0.00310749615341728,0.0249224121016327
-0.0176444414459571,-0.0627033658329864,-0.000997176698532056,0.019311860451151
-0.00884052281583433,-0.0448338254380308,-0.000358187105062496,0.0116139710362939
-0.00741850584591243,-0.0351023900266336,0.00338179121944128,0.00557528152956067
-0.00880288990836188,-0.0339492885136479,0.00950412344589618,0.00254834111251295
-0.0128472132305407,-0.0334240548811353,0.0148269269962483,0.00169784414239726
-0.021645344696991,-0.0334372208359179,0.0163386938161172,0.00203886294040304
-0.0378944632583067,-0.0293426797183457,0.0145268939779813,0.00315951889145131
-0.0569449280482535,-0.0166228310857678,0.011917477578703,0.00451870267405411
-0.0637468418351348,-0.000882156282157945,0.00796766010293466,0.00527145515696501
-0.0576591563377931,0.016332777410629,0.000781351124601908,0.00541046083326642
-0.0461866506253515,0.0341751568927811,-0.00472325871458904,0.00648099045090378
-0.0287213595647914,0.0381165025595313,-0.00127343619805087,0.00892164080031971
-0.0154792214433356,0.0205485097327824,0.00531347780501538,0.0099702753793397
-0.0138860638257957,0.00115749494868354,0.0041344651297688,0.00879026116370963
-0.00609008068458192,0.000174760329442438,-0.00628633533958914,0.0085910694137272
0.0143072124398058,0.00462561449465723,-0.0188422344822705,0.00958923336115784
0.0284816165521329,-0.00725995966944996,-0.0241757498485685,0.00719721577776583
0.025043619328544,-0.0259135568539314,-0.0206203716988107,-0.0016602907642957
0.018715433658039,-0.0212549986531376,-0.0140449251655331,-0.0158653748319485
0.0399348234537888,0.00707592040617269,-0.00788600744225151,-0.0307819931360849
0.0911736274235705,0.0233385213085668,-0.00185755927406027,-0.0387888838514472
0.124770340011521,0.0119135313187149,0.00234257158296472,-0.0348719696962051
0.106238994254056,3.41875588326448e-05,0.00591217194865575,-0.0217653515517267
0.0591639484590557,0.0178329257824623,0.0111232389173523,-0.00570964954942837
0.0075833786488565,0.0639983603310329,0.00912849021222079,0.00922541077965926
-0.0469011310046686,0.112312769074816,-0.00435868378729731,0.0206311087833262
-0.0945736170665428,0.135857987441723,-0.017278174970146,0.0258828885657553
-0.128191289679924,0.135570234434149,-0.0203557975990854,0.0238356899391119
-0.145127160576822,0.114445253099346,-0.0135689826570037,0.0168018725854924
-0.136860294082304,0.0605101901659129,-0.00194918981754226,0.00851767953641278
-0.104117793804393,-0.00699274086230994,0.00655604356424489,0.00161242960833387
-0.0599496756825908,-0.0474909759191197,0.0102362744739579,-0.00271385196080588
-0.00932225320433269,-0.0447181049333285,0.011303389639372,-0.00423033827610382
0.0437027761353991,-0.0281819590663853,0.011365486716087,-0.00350708514483303
0.0771512578349464,-0.0522609931041703,0.0124686097552293,-0.00263234914400608
0.086451823629487,-0.113902568844441,0.0131678591690103,-0.00372374061622617
0.0875172470532262,-0.136888780994239,0.0136106650070052,-0.00664106890848723
0.0837881959229139,-0.0886222463481965,0.016668425077327,-0.0100664037466606
0.0776173119729991,-0.0159084419910812,0.0192480631685321,-0.0129162311335619
0.0710469996711417,0.0419163431755384,0.0143528387042773,-0.0144315955832482
0.0624261852753176,0.0685722772698648,0.00281465299464319,-0.0147353720365142
0.0498510361743767,0.0602552976273754,-0.00639945167343484,-0.0147419283672508
0.0282538885860621,0.049002298219227,-0.0102828549293104,-0.0144393220531783
0.0015536338666108,0.064192284097947,-0.013055176590663,-0.0127818734453793
-0.00343724348196026,0.0903421139539594,-0.0148176266918962,-0.00870316245652983
0.0222492812969578,0.104648823337209,-0.0129845044965048,-0.00165027250797533
0.0342515305959503,0.0957264136604873,-0.010033993433192,0.00660525614254617
0.0114511212254525,0.0579380197372208,-0.0091663252462649,0.0125371018762796
-0.0159204635211523,0.00737619088426289,-0.00972136834443797,0.0137026723379519
-0.0292653293110655,-0.0515256380631674,-0.00915270539151417,0.00951527711369245
-0.030727239730354,-0.124029262776668,-0.00467954846115684,0.00138956574529894
-0.0223733221627297,-0.164989266415816,0.00362805258416288,-0.00883809218409206
-0.00460225056926318,-0.130706378538089,0.0144650749769749,-0.0193225446900615
0.0119570688889797,-0.0586967071911386,0.0253801380616804,-0.0251421875945601
0.0105363912159143,-0.00379887846581498,0.0307354068934918,-0.0203955541414981
-0.0072574471337359,0.0296155708009589,0.0296405927685427,-0.00388297075751145
-0.0129510056689903,0.0564398616709856,0.0270173394748131,0.0177096566470851
0.0126383678105253,0.0818800581709761,0.0246236464095521,0.0328431427870888
0.0428865015156187,0.0899582201984148,0.0200960624439731,0.0347579762590252
0.0480509551124436,0.0542707845843319,0.0131799679715074,0.0252253957361193
0.0411529632157246,-0.0212871502834725,0.00767663221230695,0.0104396117353237
0.0344394779891725,-0.0915291533947544,0.0054657970598071,-0.00250896427835779
0.0161824919623007,-0.12727895128383,0.00470550665882003,-0.00863775715874758
-0.0071561770478834,-0.14227241467871,0.00579154235434311,-0.00819436433183136
-0.0134941784342544,-0.147182216559024,0.0107020807932022,-0.00553755660631883
-0.00241660358947682,-0.135371639139048,0.0169077110073405,-0.0042319676093201
0.00745322694040684,-0.0987435017862955,0.0196532557645703,-0.00499148219108621
0.00974779624868156,-0.0477315780549605,0.0165317931249012,-0.00793566679301762
0.0116373179147576,-0.0115660793418454,0.0119932042924993,-0.0132302608023038
0.0137215143401808,0.000447941510301086,0.00948636859533223,-0.0188945038783293
0.00889956227978064,0.00581131972077215,0.00445756635305058,-0.0204155712093763
-0.00878767389946201,0.0149491452774526,0.000105546718470332,-0.0142519127936455
-0.0311136103425539,0.0242704856865729,0.0025679521012969,-0.00246424012696379
-0.0415640702521131,0.0261433199178133,0.00697148530290184,0.0081900289366676
-0.0312277856648993,0.0138177053887886,0.00716947216511338,0.0136214020665093
-0.00593888850838797,-0.00816548405474084,0.00360456064968596,0.0164096743146467
0.0105100149082483,-0.031699313378357,-0.00143727215675694,0.0197100743056551
0.00650587871214262,-0.0410021842439632,-0.00906286919620504,0.0218744075056219
0.00339214923299491,-0.021275019310138,-0.0171825843327732,0.0200629090107136
0.0185844514737828,0.00361665905239798,-0.021432548065273,0.0142116917670351
0.0421925214657435,0.003969827392492,-0.0233125861626671,0.00575046621003696
0.0467070858312728,-0.0020838090889429,-0.0225006508484181,-0.00388141769469567
0.0191584996856182,0.00681070228242572,-0.0160565499760735,-0.0128642353362957
-0.0135873715478391,0.0171672961085609,-0.0068800018830435,-0.0193503628595228
-0.0188267143082622,0.0310117135748037,0.000530757216413703,-0.021207372273191
-0.00315649693888362,0.0625524689382979,0.00706690588938871,-0.0166655257032803
0.000395252141024122,0.0834388724860937,0.0137896812774835,-0.00789492172996946
-0.016748121299909,0.0568653623287345,0.0179603460993463,0.000100668583997651
-0.0400598866504897,0.00212474008805226,0.0149837523020107,0.00576436446447923
-0.0568701715971693,-0.0406575860894284,0.0038117224223359,0.0101024546340533
-0.056808990918066,-0.0653535939835419,-0.0090529016572202,0.0117367167749038
-0.0385434659859074,-0.0770866789200023,-0.0184328947786901,0.00906895376566506
-0.00680019613277896,-0.0724225679063336,-0.0219681933923981,0.00329761472193743
0.0288631674212657,-0.059813087431034,-0.0165400759075337,-0.00318327727957176
0.0469675639557383,-0.0389096997338841,-0.0062873943955844,-0.0078365344358523
0.0429815438611426,0.00253620571088806,-0.000353299762932718,-0.00568850460920466
0.0431840442372797,0.0448487824067589,-0.00108498741617777,0.00918402986255935
0.0547161210361646,0.054034676667026,-0.00369529113048169,0.0344242423269347
0.0556896166548988,0.0304818024796198,-0.00532627839308784,0.0555766217415676
0.0404887339692126,0.0103689615040949,-0.0074561355389215,0.0572299194942602
0.0238157436393986,0.0152867451059913,-0.0089167826157565,0.0376865071465619
0.0148421110338275,0.0291915972491954,-0.00791676020370092,0.00819886392134507
0.00988544798776601,0.033524116044288,-0.00477706338236877,-0.0196906729002383
0.00315053478460612,0.0302410238426804,-0.00196030152288634,-0.0417362516934411
-0.00288522052697182,0.0379781841273387,-0.00194543078978775,-0.0602186291530638
-0.00203360754532085,0.0637462957060317,-0.00387763567964958,-0.0728770549693092
0.0028613537348546,0.0819812473144341,-0.00844594846045461,-0.0681574611940305
0.00698383343557402,0.0788726618803273,-0.0128817039522413,-0.0431942723814734
0.00990913397983094,0.074929039970993,-0.0120283620896775,-0.0103130011679031
0.00909590229767725,0.0825639354446281,-0.00709831816514766,0.0191217658970513
0.00485963958599626,0.0891712665658749,-0.000999036725727489,0.0399888281404339
0.000720894525519378,0.0824075527102197,0.00388989732406337,0.0476829967969708
-0.00104509949926514,0.0667279641261936,0.00633167951139965,0.0402809132109867
-0.00049641280301712,0.0534236003702158,0.00686054497096917,0.0246006163417001
0.00112000562871977,0.0281569797453673,0.0068712011873187,0.0130807306879455
0.00277964536075107,-0.0480110614499363,0.00783633789779641,0.0111895089293169
0.00696460584844834,-0.156570629622998,0.00819678929340203,0.0106491374818745
0.0167475963143202,-0.223013171885286,0.00872720369702513,0.00233338713614844
0.0267690122360442,-0.210526505589956,0.00890931076130047,-0.00918260417724928
0.0297207125571503,-0.137166996997109,0.00303192727780939,-0.0140671778016461
0.021405519848035,-0.049784851185353,-0.00790090128254221,-0.0114119287669676
0.00474728269440231,0.0120053785479301,-0.0151123183361254,-0.0083305005155327
-0.00895573375067442,0.0407580771859385,-0.0141068444927724,-0.0101776484644314
-0.0156775001288844,0.0515273879808932,-0.00663112719765741,-0.0148241738509858
-0.0206812327278527,0.0629295372140366,0.00525966049388812,-0.0175625794666961
-0.0277210019025169,0.0732690169309748,0.0141642937067745,-0.0191344459470191
-0.0322497098678657,0.0684273677599162,0.016996483140372,-0.0223976652042925
-0.0270020298821232,0.0499419472051612,0.0190858150855354,-0.0208308705310169
-0.016271618859601,0.0312653885390323,0.0189700995082471,-0.00361784990237812
-0.00464419535941214,0.0183156365820517,0.0175359441419859,0.0251795127008832
0.0118447872961201,0.0036664608761113,0.0205640137076226,0.0451378026165376
0.0265563433273564,-0.018909833382175,0.0242381968676173,0.0401520936074593
0.0261167567939613,-0.0324515401321343,0.0223015010109352,0.0126696060939613
0.0136801139505589,-0.0189355157645125,0.017256374107613,-0.0212906412872108
0.000468377444372451,0.00501409526236758,0.0140970458170352,-0.0421181253867149
-0.00998856176564865,0.0171398068353351,0.0122098431527657,-0.0394834675635666
-0.0168410067072076,0.0150823457605258,0.0103204142769739,-0.0224290139447197
-0.0207302655238254,0.00524189205099921,0.00997304826431273,-0.00825836835524416
-0.0262259052862105,0.00141204914583862,0.00921164858160002,-0.00385507357509451
-0.0368642694710995,0.0153460151664177,0.00717577852629888,-0.00389340428311593
-0.0476402718050394,0.033208737407507,0.008368444290441,-0.00141312506235329
-0.0481528680347972,0.0135465667003384,0.0112398712257418,0.00448267554607866
-0.0355599842730459,-0.0728606860058994,0.0099888859373929,0.0104362185836559
-0.0181740899546278,-0.170312172400343,0.00618061385960491,0.0149184334380008
-0.00330482877607986,-0.183398058870692,0.00345150274744156,0.0182849112560465
0.00623133329360959,-0.115228501680692,-4.33101028361593e-05,0.0186702173488588
0.00362739334681532,-0.0325451683009833,-0.00740249025718868,0.0146661701671753
-0.0107398099232978,0.0282608915803979,-0.0130910775207297,0.0107234900490297
-0.0218250107933539,0.0573228362771714,-0.00920916060233712,0.0125723294734191
-0.0194395695802707,0.0487875875628646,-0.00213670696146467,0.0189285167273541
-0.00985784894047463,0.00857248428195422,-0.000136457682547865,0.023854597022044
-0.00628362285333153,-0.0153354092808944,-0.000557633173648469,0.0231124380884033
-0.0124245310689148,0.0110251052550709,-0.00123190592704218,0.0139271899144902
-0.0155526588320031,0.0460501217769594,-0.0029525017051469,-0.00278088070813701
-0.000394111873182366,0.0505815004662323,-0.00554027188691524,-0.0199266608187269
0.0344683479730525,0.0402776062823847,-0.00781585537231689,-0.0315565962588243
0.0719843082647271,0.0383931655472642,-0.00778586742162616,-0.0384534108744733
0.0914327042918705,0.0414682889812288,-0.00699207737192964,-0.0436420135075912
0.0920600377839753,0.0355190920657314,-0.00860680911312197,-0.0461683621494381
0.0856050619503663,0.0223912624825067,-0.0126644130865881,-0.041417738901465
0.0763583551205112,0.0149433647028435,-0.0183675827961368,-0.0266418450044755
0.055180383684145,0.0226132391614922,-0.0229555718315855,-0.00469872591331091
0.013769222237033,0.0370256504185368,-0.025502314266577,0.0178394993833963
-0.032395497762112,0.0406599721089389,-0.0272431437076033,0.035558795824402
-0.0670085654926993,0.0340014905068108,-0.0268464062553966,0.046490280093865
-0.104463694018774,0.035510662996351,-0.0252346574692546,0.050888746500299
-0.142808346964729,0.0488047380522864,-0.0226759879958537,0.0501723357863793
-0.14654044343361,0.0427154769537789,-0.0189520219141554,0.0448445206874471
-0.111322611894211,0.000722836736278154,-0.0178043450598674,0.0342422990912847
-0.0633831289716979,-0.0523156922653459,-0.0188871560307383,0.0207138348467817
-0.0160416472593602,-0.0844377818943272,-0.0177809587202387,0.00793189608596322
0.0270871699419848,-0.0786552824021704,-0.0115514000993665,-0.00429458905906012
0.0579721052474666,-0.0414199774815838,-0.00173447599110924,-0.0169747078947071
0.0714895776595907,-0.00636927118064522,0.0029058463109609,-0.0279997864202063
0.0725583970292302,-0.00444804732864822,-0.00111992805775081,-0.0345495151813817
0.0641091926718245,-0.0206692816377426,-0.00697614793081646,-0.0350879807252928
0.0437492371783736,-0.0278315814636886,-0.0109313847071617,-0.0296334965370495
0.0201387829145631,-0.0242275208646872,-0.0142760362657361,-0.0207144092409466
0.00296235348120198,-0.011110835533593,-0.0161426968568856,-0.0126798281431441
-0.00862880362153091,0.00983894921196006,-0.0151686011427232,-0.00747752551141959
-0.0136924285744761,0.0275804787199519,-0.0139427454191972,-0.00287375960098705
-0.00741779285118421,0.0345882915477105,-0.014758640588817,0.00200001944696686
0.00684596608204925,0.0313523955182753,-0.0150555870028301,0.00411915442771712
0.0197948818302443,0.0252979200389111,-0.0132666714738335,0.00230528298265807
0.0206998637712535,0.0276580221304344,-0.0123141281097489,-0.000152707137879308
-0.00642765627675709,0.0359617879626474,-0.0130766602578606,-0.000402982994372835
-0.0483310168243435,0.0340157822552169,-0.0115553205900806,0.000661779302357422
-0.0642688847645808,0.0142173346985913,-0.00575807986896829,0.000887047330798196
-0.0470787993880555,-0.00930925327672624,-0.00123606169290871,0.000518745468115445
-0.0263346190733032,-0.0192782970153776,-0.000581233694007067,0.00296277653496837
-0.0216556529099234,-0.021344512047866,0.000212771564755193,0.0103065454635111
-0.0280356856293938,-0.0279779346534736,0.00168817483006289,0.018259806196542
-0.0336927893692672,-0.0371816462236779,0.00308035260585425,0.0201145197101037
-0.0314855211819636,-0.0474881040003064,0.00538594265029846,0.0146168234886846
-0.0244923542488319,-0.0578095396641293,0.00809596407443636,0.00594941541697247
-0.0205774117995097,-0.0526759186795221,0.0110087170120959,-0.00158997271735125
-0.020159189075814,-0.0221711283268507,0.0118235424621998,-0.00665113883453938
-0.0148807524202277,0.0132974383248755,0.00679603155827108,-0.00984022789486348
0.00347731451253561,0.0247149250542567,0.000559694428033526,-0.0113138998628632
0.0207794158617857,0.00822172151952613,-0.000984317463484198,-0.0111790333943699
0.0205488166895447,-0.024232826894089,0.00222044218438179,-0.0100140207265844
0.00901244866789608,-0.0616632600363562,0.00838892822873221,-0.00716917722442346
-0.00853667526958841,-0.0753753574003317,0.0131849376180764,-0.00136695458266339
-0.0219428482928485,-0.0411617608198371,0.013490641513447,0.00720172088383875
-0.019195001596116,0.0144355751960786,0.0114007643190212,0.015395461355721
-0.0075509297195114,0.0548165627829515,0.00933330165984455,0.0182102600912259
0.00596740734400064,0.0720379189983703,0.00850575983306006,0.0138160588441915
0.0193799647915757,0.0670540074081927,0.0100631439532134,0.00554241711886213
0.0227149099645033,0.0466767833529768,0.0110781431007413,-0.00251443982404405
0.0103985629121314,0.0218184970635276,0.00982510637812461,-0.00869438463085573
-0.00649374399619642,0.00298139938326836,0.00750078466844203,-0.0123634520698414
-0.0142838236384551,0.00598255051321277,0.00325718056809537,-0.0133792749067338
-0.0143879900877047,0.0307343461895773,-0.0021888164215176,-0.0131579653958454
-0.019208142529129,0.0518842641535444,-0.00859432518574769,-0.0130733350549848
-0.0333907493646713,0.0359904702293582,-0.0149586480827831,-0.0115514108314003
-0.0460336629924973,-0.0229095392820918,-0.0170529395674831,-0.00601271009479847
-0.045115519880661,-0.0743156482267524,-0.0154503390999587,0.00220475841420069
-0.0337564478255396,-0.0703967335971794,-0.0145937374995292,0.0085915625444033
-0.0215515767869636,-0.0203907550290637,-0.0148697664162579,0.0107559858757661
-0.0065975428483104,0.0465796698640672,-0.0128858813334077,0.0102733648884032
0.0244444822087345,0.0975785377209745,-0.00744339097307537,0.00989135910170072
0.06411062527257,0.106703728297865,-0.00013874214294134,0.0117980547850208
0.0805782558282392,0.0855365679702022,0.00676527088986278,0.0165161512798419
0.0697364125194783,0.0575516073746746,0.00947819258094669,0.0202459439152536
0.0497201213905779,0.0393616713214479,0.00642444238956715,0.0175142915778767
0.0261900151335286,0.0312358828421352,0.00164291494556906,0.0078582500393355
0.00840699693529263,0.0137283792817804,0.00119121331982024,-0.00428505085616181
0.00301040315976962,-0.0137688192630783,0.00649354666360925,-0.0152851604521823
-0.00804763068229452,-0.0319875224648302,0.0122049611372023,-0.0242961566203037
-0.0375044704006479,-0.030745801977129,0.013594750851042,-0.0308154081186144
-0.0697140449875064,-0.0152028027819313,0.014084672940525,-0.0325399146156886
-0.0870429579482839,0.00351255105616901,0.0201140823661466,-0.0278802986568103
-0.0886849378216908,0.016998652224028,0.026450525069183,-0.0187253563045574
-0.0788040588760446,0.0220197505412567,0.0229573702010224,-0.00749453632592274
-0.0639608418277317,0.0175191679736474,0.0131750029706331,0.00461612608742389
-0.0528981413715036,-0.0201914662098623,0.00473220654704118,0.0157300713235022
-0.0408568266191729,-0.0889194052235107,-0.00121114415754935,0.0227986963815539
-0.0196314260096242,-0.12206902499688,-0.00371477736580905,0.024383948042875
-2.59891421121039e-05,-0.0916153794512048,-0.00245704374266111,0.021715216491765
0.00708613051253328,-0.0425810035244837,0.000423417858541726,0.0158168364091349
0.00814957499664495,-0.0142807799130392,0.00328422987855256,0.00745732695977501
0.00960591612375238,-0.00631550914923502,0.00475154317634438,-0.00109877816502715
0.011029115886076,-0.00196058967014924,0.00299921136519766,-0.00781516374707694
0.0103634966575991,0.00890843402037846,0.00126007411047904,-0.0123773166954836
0.00544337194832894,0.0262064950485811,0.00455724886963803,-0.0146699413215783
-0.000800492157675416,0.0420815660687127,0.0091261866616614,-0.0145568515720864
0.00120742492056073,0.0472790360637922,0.0079855283996916,-0.0124972368334819
0.0115814782258471,0.030015264604262,0.00119672325562262,-0.00889432078354081
0.0161521718494576,-0.0106501988092333,-0.00232381689124671,-0.00374276068942425
0.0095436654446073,-0.046772857435675,0.000977698599694411,0.00338231735644772
0.000469869064051893,-0.0491999979186394,0.00622346583048836,0.0112348160129782
-0.00377313295654674,-0.0298347977396802,0.011409525731895,0.0160217032331667
-0.00186549383286455,-0.0285679360959679,0.0136079577848051,0.015374626933943
-0.00185974286975464,-0.0494511135686019,0.0107889630961886,0.0101117441694757
-0.0113350173716573,-0.0703179446169581,0.00543654215980458,0.00275835454817797
-0.0172072956100415,-0.0811896622655713,0.000795904810860089,-0.0035075386275011
-0.00378974451149544,-0.0696943871420405,0.000743331358227109,-0.00686437099454287
0.0160756835137059,-0.0361084530482673,0.00822403864824589,-0.00805230021524682
0.0186203637228078,0.00557190619046318,0.017052579312997,-0.00871558644107592
0.00274592384134272,0.0486481953050965,0.0162365114065061,-0.00821080152699403
-0.0143932003469739,0.0697545716774737,0.00648481835314786,-0.00353411497812478
-0.0160828733305811,0.0531879409060988,-0.000421666499823149,0.00542740599847951
2.87119730698823e-06,0.0409738259057291,0.00257886928064792,0.0136854897399577
0.022300439988047,0.0758880378042499,0.0100101630510578,0.0162881759500829
0.0378249050092287,0.128846419736813,0.0115404358356067,0.0127175605931163
0.0330249739236957,0.143926709062843,0.00592366222469643,0.00598351132320095
0.00731027733604622,0.113216665302389,0.000336003415229059,-0.000130425595324453
-0.0179271423024471,0.0557754916533565,-0.00255595320223664,-0.00380844830275868
-0.0238537186685802,-0.0108483256490167,-0.00441701779536031,-0.00574302684684383
-0.013678040746538,-0.0649822809616271,-0.00748220792185972,-0.00654769543606207
0.00125272842266486,-0.0857614619525143,-0.0161648761259494,-0.00595919671710298
0.0170984061621363,-0.0534335206786237,-0.0258232516561312,-0.00400473207761749
0.0278506540445253,0.00138775448924292,-0.0252902859438724,-0.00149670274267022
0.0293314874987093,-0.0110700087042708,-0.0170442627507664,0.00077057158758667
0.0280436948374795,-0.101532705375507,-0.0104112443960862,0.00318102424552844
0.0283444842297461,-0.163013136152477,-0.00819015476943719,0.00592195981938124
0.0347338903277176,-0.132144943117385,-0.00808691247727057,0.00824348044051906
0.0531468157612905,-0.0459154807220174,-0.00918601149539223,0.00947222249448375
0.0679306778499407,0.0439063457653757,-0.0115882600308845,0.00880230822991364
0.0653074334144979,0.107570767696154,-0.0132346567886783,0.0064780398199067
0.0605097716583326,0.141868325304989,-0.0152112899762778,0.00495878683194476
0.0634596291269683,0.145425289204167,-0.0155972051352724,0.00465632117993484
0.0645731052280373,0.115111818947026,-0.00960488093858956,0.00125373461541069
0.0512466837323065,0.0751873493840775,0.000374877337495978,-0.00718536978501782
0.0243832297032477,0.0417866205569477,0.0073909573085759,-0.0158346436293287
0.0108169484491605,0.0137967086072119,0.00833128584497506,-0.019176494127303
0.0280184328907483,-0.00638861127251438,0.00616027222909316,-0.0167811751444094
0.0445942489340333,-0.0186269954222246,0.00143882922143595,-0.0124265512891975
0.0328659237567474,-0.0139399440531833,-0.00491903177203431,-0.00913084949973423
0.00395509320138425,0.0120645723120916,-0.0115034895822238,-0.00672652364286798
-0.0343473391987485,0.038972209775573,-0.0181371680037167,-0.00360526908276401
-0.0588756822326652,0.0423771685571805,-0.0194815273252558,0.00063882950482873
-0.0301048904777728,0.0150643403100973,-0.0129074037375831,0.00471670948340355
0.0250528451354592,-0.0199703557368776,-0.00344363304104973,0.00699661011589176
0.037536251580234,-0.0318322683759617,0.00339055007504563,0.00551722420679778
-0.00061609954617859,-0.0244508692322451,0.00949896738886538,0.000724295288050526
-0.0468647765134834,-0.0214445273776759,0.0180365389646526,-0.000913923066464253
-0.0737573568778408,-0.0281541329807339,0.0219360124096632,0.00735959450331598
-0.078417804389441,-0.0310837596572457,0.0154671058926966,0.0233266234937632
-0.0667765466748314,-0.0396116586509081,0.00438320265664141,0.03655511707173
-0.0337585487616681,-0.0811832681445815,-0.00278357038835259,0.0394850571414449
0.0242808629236283,-0.12776487597758,-0.00608893363540892,0.0344647611878613
0.0703364771833947,-0.119534614730337,-0.0106925132109706,0.0267316289459701
0.0703258056954877,-0.0644437613882282,-0.0129843179181991,0.0158885622249541
0.0550672447072095,-0.0199885915651798,-0.00984544899107298,-0.00210331561513547
0.0596731517714256,-0.0125815097511942,-0.00456614747918274,-0.0275506225513339
0.0633218545939629,-0.0231537494078988,-0.000821740746575603,-0.0534242217827477
0.0375483345694009,-0.016006862856237,-0.00279396399331441,-0.0689921929222747
-0.00719377594871722,0.0124567232064704,-0.00732530940789771,-0.0663352700620397
-0.0402264887221394,0.0363850318790231,-0.00765254543027919,-0.0470710479325332
-0.0518565146691765,0.0449367664107582,-0.00485642607060277,-0.0225758889606005
-0.053237087950246,0.043724944698811,-0.00161896396482487,-0.00180019761498465
-0.0467075178064555,0.0376542746336723,0.00188305420289395,0.0178738048770826
-0.035973529180185,0.0249110927484409,0.00467473739552637,0.0407735519462826
-0.0310715337573148,0.00863105124479626,0.00683896332987745,0.060277955432496
-0.0282507499887153,-0.00134507725274988,0.00852643537664163,0.0675710287148194
-0.00874035711684306,-0.00961759524371129,0.00784389503543642,0.0630579783908625
0.0348248518111823,-0.027459874763965,0.0032978302392998,0.0489425140333886
0.0627436686493959,-0.0445777215847704,-0.00321200807597742,0.0242787736648355
0.0368576464752745,-0.0437826062174268,-0.0073273430176972,-0.00862731848816643
-0.0120162034125099,-0.0355734006125999,-0.0066995740725815,-0.0412211314125616
-0.0345962925099616,-0.0438275759031454,-0.00362720860737391,-0.0628355582611377
-0.0309785414936653,-0.0522283622755743,-0.00243123695230161,-0.0656026880556832
-0.0288040662795482,-0.0297300983754765,-0.00523717851172887,-0.0472120908043263
-0.0370226059415249,-0.00101063809034137,-0.00855529703599759,-0.0159565293112299
-0.0429222001070324,0.00776267154197886,-0.00865612472089169,0.0123124272550421
-0.0338500730614559,0.0195972431417799,-0.00784170018440732,0.0267802771987119
-0.0129183427131579,0.0452179533950083,-0.00882898991231428,0.025319038607383
0.00445401949631074,0.0643833642096997,-0.00991839301633439,0.0118217406390126
0.00770275905242939,0.069197600018806,-0.0093878355940325,-0.00553260683511052
-0.00710245739317319,0.06479943948555,-0.00639811282635709,-0.0182777215960459
-0.0308058619407738,0.043153575412224,-0.0016924781377281,-0.0221281125848908
-0.0348917432316272,-0.000201976778002627,-0.00037144158474085,-0.0178614238787285
-0.0137434537816567,-0.0390759625149311,-0.00282202550172276,-0.00830853049414663
0.00189410571662382,-0.0442821965864158,-0.00284951572399854,0.0034355782084022
-0.00187664396411465,-0.0245804343239809,0.00085230858154275,0.0141217014746678
-0.00295942247088215,-0.00342732292421283,0.00406841532061952,0.0209617625303144
0.0115856376755403,0.0073004671231597,0.00501063152776131,0.0210543792739823
0.0300770016396022,0.00204871411782993,0.00474044306238556,0.0126056362957207
0.0408898800418992,-0.00690371765295624,0.00343659322476337,-0.00158317852275257
0.0309602817738693,0.00600874725635932,-0.000426800951798919,-0.0156060290595001
0.00461958127060367,0.0443471726219643,-0.005720102787415,-0.0251515606936468
-0.00522555895635022,0.0819743912454334,-0.00828454993984197,-0.0279491651556198
0.011877953544972,0.101601431005744,-0.00828956556691472,-0.0228730139198009
0.0289131275603368,0.105563402860523,-0.0079324010416395,-0.0121524084984376
0.0376550821073649,0.0932557089793456,-0.0056547873387068,-0.00227631963939108
0.0606208871211162,0.0501202297670297,-0.00153828659664591,0.00215312477388895
0.0949249574709108,-0.0347486707820111,0.0012205501182542,0.00222537164590019
0.100800279310155,-0.127165947728908,0.00142474840921461,-0.000194049047554466
0.06937117516138,-0.16062406656952,0.000504190718218042,-0.00421579526307055
0.0318294941492641,-0.112642799347665,0.000140012114526942,-0.00713051269011502
-0.0151959299212167,-0.0359952809089908,0.000660274009603538,-0.00657352454860428
-0.0746484625453494,0.0176633337389009,3.87148254769576e-05,-0.00411950981572897
-0.10282816756089,0.0469054879940188,-0.00429673414876619,-0.00143429308010025
-0.0798957946804095,0.0580348235902875,-0.00835846918348244,0.00488486678039078
-0.0375125954409622,0.0531762304320511,-0.00613229925808893,0.0179924401428986
-0.0147197994959506,0.0418397918166257,-0.00226904142787333,0.0321742753125987
-0.014760249482165,0.0273437262078175,-0.00323894651076929,0.0370699096840938
-0.011092337999736,0.00837753432763383,-0.00596141388669466,0.0290397497989267
0.0098603791115946,-0.00699683423191547,-0.00511177821698145,0.0134181347036975
0.0325646171287534,-0.0092452273166251,-0.000317650853585576,-0.00194559218985743
0.0340426534097782,-0.00226235920072546,0.00548253066819651,-0.0123948089378741
0.0263100357262813,4.54907864066365e-05,0.0105573362975229,-0.0186300461519864
0.0334009721005461,-0.00563842440901578,0.0138048699959038,-0.0244195894551321
0.0358651913190603,-0.0139103975724168,0.0147074619670069,-0.0293841790910841
0.0212512668381429,-0.0242141639013027,0.0134590074123725,-0.0290103069335269
0.0146748667677548,-0.0331553797728426,0.0093518974879274,-0.0220508822187107
0.0159496538141225,-0.0370906291961111,0.00759870241132303,-0.0105749491975296
0.00405978337905737,-0.0361451643233063,0.0123652936071528,0.00143120931151539
-0.0130953093855114,-0.0288744323586716,0.0146463395273084,0.00850807882489253
-0.018964192278247,-0.0203535459824834,0.00991256645247277,0.0103124878023521
-0.0128283059231914,-0.019182155480377,0.00464704124834601,0.0118934079456651
0.00425435898482296,-0.0182477475831418,0.00103136189977978,0.0148088847976856
0.0202879209468995,-0.00471649491245851,-0.0036043218196351,0.0159428880693799
0.0246907566616657,0.0155585513211225,-0.00833849410086374,0.0146482233227174
0.0372493885975563,0.0210228094826503,-0.00805500604675924,0.0146852330903567
0.0683086592729546,0.00509070022259293,-0.00372928373944623,0.0187019130086617
0.0872046498066467,-0.0156730249896513,-0.000795825551998927,0.0253064212708735
0.0648147442741099,-0.0203460253989554,0.00079340765831331,0.0303175743657662
0.0146443205310272,-0.000512228789380599,0.00293782988105629,0.0282607309185225
-0.0243962465349306,0.0252835356487824,0.00717439164308003,0.0164989718032075
-0.0296647068766928,0.031621612558692,0.0120080641392483,0.000634985396370316
-0.0144169213778017,0.0237657781755447,0.012762094007043,-0.00813160316359484
-0.00668849699666269,0.0186602928271584,0.00790658580463417,-0.00578794438942199
-0.0131690304580608,0.0026794644344373,-0.00135590979931933,-0.00123095406820034
-0.02390710389754,-0.0350411949605414,-0.0089466805522433,-0.00452614353144851
-0.0392232423023188,-0.0588714183196067,-0.0104106784750563,-0.0149289086088336
-0.0596346737131427,-0.0401140668486763,-0.0103127039634118,-0.0238335719466615
-0.0693997236529305,-0.00885773149473505,-0.0121305260260297,-0.024675117996896
-0.058614168216476,0.00846018772418764,-0.0134161165339414,-0.017565793259135
-0.0266012388279674,0.0272358774041687,-0.0110367229866095,-0.00719043996878456
0.0109564802439722,0.0586705000460838,-0.00673669976222472,0.00153922993805521
0.0292469413391321,0.0799594373286945,-0.00353967656673309,0.00616386407432281
0.0366554271783878,0.0601014165365028,-0.00270505591002763,0.00656666432953012
0.0451197403521238,0.0149357273341852,-0.00515008694835661,0.00388119300871148
0.0520051304127003,-0.0188374530888912,-0.00502733545689721,0.000220096953081691
0.0586045226215495,-0.0279134812543126,0.000896364007499807,-0.00203627883529485
0.0520694286836334,-0.0169790765597438,0.00591977094362066,-0.00159421840532599
0.0232616761757291,-0.00647626687538527,0.00845022468938617,0.00161647636400938
-0.00647559783749489,-0.000173654955358961,0.012248661721176,0.00654809103948351
-0.0158843820009067,0.00872350953472849,0.0175018300119806,0.0116940880811076
-0.0133619815015329,0.0157161695989979,0.0222897734347193,0.0160101544766803
-0.0181431788051662,0.0290205854044532,0.0235765351773663,0.0185143951904514
-0.0303484860068999,0.0469734298937417,0.0201933373529367,0.0182125419179759
-0.0378333237814855,0.0429238993170298,0.0156056628731754,0.0147228132363631
-0.0344587157715137,0.00815003009000808,0.0132861087664248,0.00883022220866475
-0.0210900319430747,-0.0351590864462644,0.0117430079788343,0.00225427147916
-0.00203683891472866,-0.0644595391135076,0.00624579246735548,-0.00345187258569239
0.0154050601729743,-0.0780880993591716,-0.000358914459766144,-0.00777815987656508
0.01992155972321,-0.0844981944697112,-0.00291804945513207,-0.0110893167469312
0.0107311312116499,-0.0837131066869732,-0.00391454440750231,-0.0132567748344533
-6.83898421324249e-05,-0.0650114426102387,-0.00675597953245041,-0.0134893099312814
-0.00952391125594199,-0.0270546627073913,-0.0117602770132543,-0.0118769965894319
-0.0159163288814027,0.00595268699519647,-0.0155509601136123,-0.00936294355891981
-0.0142536390441705,0.017533992127413,-0.0162697273016498,-0.00652754029933925
-0.0103682869347858,0.0140917388730412,-0.014745269819721,-0.00378503197406371
-0.00976014444427408,0.00273593220426728,-0.0109542284300277,-0.00208246827732684
-0.00448655566277717,-0.0116351841942984,-0.00661110391398664,-0.0023757607090886
0.0114487475348742,-0.0212320654795862,-0.00277460928232925,-0.00453005123394354
0.0257384950977343,-0.0245083409067625,0.00186773740143696,-0.00716971669895419
0.0265311261205055,-0.0311952408445966,0.00779155546640053,-0.00848844485307042
0.0126083401316093,-0.0413950417857292,0.0140561154691509,-0.00736514373617397
-0.0114256155766593,-0.0458871116932343,0.0184541550420638,-0.00429312220581789
-0.0325871612821397,-0.0453758642751271,0.020390766813697,-0.00100863519274117
-0.0384605872940713,-0.0452931682994774,0.0207937462422791,0.00129616415463666
-0.0327291717123416,-0.0413053207670445,0.0194293234203822,0.00326428799225508
-0.0345459594584334,-0.0228414300666173,0.0164498728694105,0.00556927273742535
-0.0511915627852634,0.00156407120189306,0.0111815768524436,0.0068678535587058
-0.0686894444061713,0.0132091204232381,0.000135052518365533,0.00586600253044089
-0.0587818675388611,0.00829658149694133,-0.0151265561629777,0.00329789827381063
-0.00318030268438023,-0.00643383153862962,-0.0233930778964708,0.00079403623706014
0.0663450805859228,-0.0185249124839063,-0.0197270184075936,-0.000108113493062773
0.103174373743118,-0.0263759381590692,-0.0112545736649138,0.00136331860407174
0.0924580632243396,-0.0304625093488407,-0.00546557991246229,0.0039288947011411
0.0483542033811658,-0.0290773330934674,-0.00403177761697109,0.00455727026974439
0.0063556546644056,-0.034548480977095,-0.00444034494140266,0.000888598077558807
-0.0152585988483305,-0.0429547960057344,-0.00485900261130365,-0.00624796610784022
-0.0272501103725086,-0.0345850300962555,-0.00728008971713425,-0.013001409243436
-0.0409706106952578,-0.0125898222019106,-0.0124889798339028,-0.0155959452617193
-0.0566065202615741,0.00610806657542621,-0.0157771217970326,-0.013256719204554
-0.0666841739469986,0.0199883438531093,-0.0156662494305029,-0.00849063282802693
-0.0636771173286448,0.0402363896673618,-0.0138180162488449,-0.00462912116891913
-0.0407828215174592,0.0710715846887628,-0.00939585206222532,-0.00218168958056764
-0.0078930842264863,0.0908475449948196,-0.00234573676053161,0.00127671858762573
0.0135803482187628,0.0803586266657008,0.0055358284267794,0.00583593324053958
0.0147807888984904,0.0717752657349088,0.0089496780886901,0.00806248235285679
0.000528738914172476,0.0915918435233377,0.00529477383859455,0.0065053214539695
-0.0103168656821058,0.109682823708041,0.000533574399907543,0.0035203142838555
-0.0022255417161231,0.102207066980961,-0.00214812096247648,0.00132559313040782
0.0169891334068909,0.0845789589839928,-0.00396606003527362,-0.000158378297737593
0.0263309290692222,0.0775408577051061,-0.00253693935884155,-0.00105161969654454
0.0114772380598597,0.0737432691826966,0.000669747844051164,-0.000722812088300674
-0.0242854409473896,0.0618432402885203,-0.000353426573598239,-0.000200885729805205
-0.0598342525816352,0.062020949986686,-0.00601865694301141,-0.00162105743522847
-0.0577034397140588,0.0825741056136163,-0.0132405323363448,-0.00469519594854639
-0.0119709927320297,0.0826371634405089,-0.0169829942171758,-0.00650748570362194
0.0257017971080602,-0.00249832309799766,-0.0156392649713954,-0.00531611494470849
0.0286649949511986,-0.151513323100016,-0.0127551737636003,-0.00267656144684002
0.0252644079829815,-0.222454327304012,-0.0111945608505452,-0.000179544325650398
0.0277196109622958,-0.162455347449626,-0.011451123362024,0.00448578423872059
0.0196143647920565,-0.0638086894230406,-0.00993846596261791,0.0132271114187094
0.00355554811371564,0.0104404503610099,-0.0035002884647466,0.021946345523852
-0.00251340600454428,0.0493726274283375,0.00653245854229643,0.0252879196623235
0.00302874843832045,0.0554557337792621,0.0140345076414587,0.0220886451805844
0.010408951530609,0.0545026467009052,0.0146059546226093,0.0137021315427311
0.0138985094261277,0.059233105116637,0.0123578473902795,0.00233306058915761
0.0134093903029012,0.0602519205261571,0.0123428864239266,-0.00928779973251842
0.0123869559012404,0.0567517715667478,0.0131861504757828,-0.0200093526038854
0.0106787996721064,0.0501934969449292,0.012891307978871,-0.0290749140344631
0.00638988556084746,0.0475519108423936,0.0117406415439562,-0.0336617792784249
0.00343888138281994,0.0513030397191787,0.0105298431168123,-0.0319173805444807
0.00529173923228399,0.0437163967446597,0.0115581410921601,-0.0245067253603475
0.0128068371254207,0.0249674175522498,0.0118113644945188,-0.0128899750387363
0.024605827831817,0.0155964597381598,0.00677550338061676,0.000719149850990836
0.0262069312821745,0.0216310832072998,0.00197837905246761,0.0135240928646451
0.0116555737127969,0.0199759760235438,0.00343527049667932,0.0227658657956748
0.00239660963932798,-0.0155147064879103,0.00906497171002531,0.0266982412296111
0.00722327515307787,-0.0692157463677986,0.0117216798954366,0.025143063566506
0.01259623785426,-0.102812763514794,0.00864062930118173,0.0189626376623351
0.0236130793115309,-0.0968407164101426,0.00395105576052158,0.0106416568980884
0.0530479050825543,-0.0621277827198218,-0.00100439689906034,0.00379467331380928
0.0765721136348307,-0.0288641414224774,-0.00523533052537027,0.000782009905263328
0.0614463136123472,-0.0121650802399715,-0.00724281287095183,0.00163761853236812
0.0172035410821451,-0.00912117022575053,-0.00806643620339144,0.00360698639142152
-0.0249672340315601,-0.0168244980657989,-0.00788127544359235,0.00225022147647173
-0.0460208306487493,-0.0258892412178621,-0.0079214592473156,-0.00500936934785103
-0.0413284898593997,-0.0378500270936339,-0.00769560961027901,-0.0168473191589475
-0.0209551030362579,-0.0628571287798719,-0.00381629895570372,-0.0281945543531919
-0.0020673642906097,-0.0740667171082673,0.00177855445083528,-0.032918338313594
0.00794948323502843,-0.0484759589624065,0.00549878146726216,-0.0281895885856237
0.0128824506465832,-0.0136994457164552,0.00863147906294755,-0.0155376257959147
0.0129778268250331,0.0126910146104074,0.0103167147322514,0.000538849005143251
0.0041713907710753,0.040049058715421,0.00879402350029075,0.0137019587497465
-0.014586994703215,0.0632946903546277,0.0068754263694832,0.018860858565981
-0.0339246152789758,0.0688475137748604,0.00569633054938468,0.0155514223620147
-0.0434197180803641,0.0548153282663335,0.00546521399337285,0.00766026059482757
-0.047254636078748,0.0407842902915918,0.00549092190090039,-0.000482247276845914
-0.0457186765505771,0.0439189377363715,0.0025295630770082,-0.00674643575246931
-0.0382554782224896,0.0504194863969815,-0.00213017621653927,-0.00989698761397787
-0.0358462691276225,0.0513711215930788,-0.00417978090952881,-0.00966117085862093
-0.0347243804273394,0.0631581876542471,-0.00343460530144973,-0.00713330815130578
-0.0128595632059751,0.0861169489425598,-0.00318359634182409,-0.00236733254265449
0.0243828392858407,0.0855330387185468,-0.00338395660178004,0.00547793307819877
0.046397023337457,0.022380098224035,-0.00292421266679964,0.0146759535265058
0.0481528369205863,-0.0891557802972118,-0.00603375896528858,0.0207085269258307
0.0423506217832994,-0.178270726900525,-0.0104462548938195,0.0203381703563833
0.0307193206081674,-0.196862569860522,-0.00716508900533791,0.0147012785246938
0.0100825238549407,-0.158992776705313,0.00219079039492512,0.00753716608214767
-0.0100762056000658,-0.114427326405404,0.00676822142471817,0.00121580684321272
-0.0100715390396069,-0.0809669112488547,0.0019653212202869,-0.00361024522039969
0.0172798041423272,-0.0316101982323608,-0.00481243749869188,-0.00654611619701078
0.0443911464804125,0.0327264607521288,-0.00634230133964806,-0.00714770502826374
0.0294943841184599,0.0867342584842713,-0.00468919569736613,-0.00455144980790781
-0.0220280974770737,0.11494820954436,-0.00455457107030965,0.000288562269022705
-0.0666664276886562,0.117364529357316,-0.0052765072244724,0.00288118874597641
-0.0750858257324297,0.108607662361004,-0.00136028016361639,0.000512369942073503
-0.0507814552587606,0.0890774146334444,0.00673411717358093,-0.00376535857833049
-0.0235805292012376,0.0574908221521042,0.0104096688139302,-0.00504039353913291
-0.0128661919951609,0.029065196090972,0.00928784566863233,-0.00202232027393744
-0.00743463128715503,0.0102293317331119,0.00973531465358691,0.00291757373645636
0.0056051611773499,-0.00343962008758372,0.0105836758492084,0.00812105277313037
0.0244033641820595,-0.010318031894323,0.0112758527154263,0.0133028201681263
0.0387413789762854,-0.00853227687424517,0.0130379291165831,0.016716178954021
0.0412594475062465,-0.012592399758669,0.0122341535874448,0.0159198428658771
0.0377101385899193,-0.0450785882220169,0.0109554909918759,0.0111242261661714
0.032337289659464,-0.104668280213871,0.0106797109378895,0.00514276125187988
0.0211735262088104,-0.142014031637957,0.00872097526613835,0.000587238315121757
0.00527189613437539,-0.117068452052526,0.00722088595073127,-0.00206281474321281
-0.00509885339318772,-0.0652478505506034,0.00592186951810355,-0.00411216433047424
-0.00584093980776689,-0.0357477850315001,0.00335119903143643,-0.00530792544746078
-0.000915958932419983,-0.0301040904678105,0.00222358821359075,-0.0031899309261159
0.0117218895021592,-0.0311058173951555,0.00557720499369019,0.00217274438114459
0.0235099533562771,-0.0368343301601033,0.0115661049060776,0.00648653523434618
0.0171749564690597,-0.0464581631683721,0.0150693269955761,0.00515441026384075
0.00915385634557129,-0.039775972360909,0.0157701851809325,-0.00122365564131964
0.0201011428840195,-0.0128592824271255,0.0164878111311103,-0.006470421308646
0.0320426181441875,0.0123348797963679,0.0178332634637653,-0.00718415397300948
0.0366870114212441,0.0292757973505313,0.0192940386362075,-0.00635339730332404
0.0356654456675817,0.0337461893886302,0.0180337851090238,-0.00552503797003361
0.010128961858274,0.00578872117131314,0.0116136096669777,-0.00179304814104989
-0.0275045999460051,-0.0347573758573296,0.00201248951687805,0.0042410804449245
-0.0459077634955974,-0.0269007620303621,-0.00584626110192487,0.00759737685117334
-0.0506886330368575,0.0320721600535063,-0.00980642095146685,0.00720285648073696
-0.0494136530810689,0.0800995113575945,-0.0098142398813087,0.00590280852204833
-0.0392440263035453,0.0724491714570733,-0.00453270470424348,0.00399577745573739
-0.0181597165327584,0.0178455985563581,0.00203307419953693,-0.000713081094639956
0.013888770652921,-0.0250939439169214,0.00485579029241455,-0.0066709543072435
0.0358292291357749,-0.0152847562633907,0.00507407074339342,-0.0102090841810451
0.0319369768726384,0.0149444275588707,0.005431744980691,-0.0121474513173372
0.0124109024383591,0.0206028574301665,0.00429212960777073,-0.0146637880530145
-0.00729887941805896,-0.00333461137252638,0.00270505426025281,-0.0176128099395682
-0.0203816293901026,-0.0389188631840477,0.00821859619438546,-0.0202194871318029
-0.0238941793068946,-0.0624432489012688,0.0200055772943577,-0.0199721526832174
-0.0183494123912986,-0.0689385262549485,0.0283025371164999,-0.013831832697557
-0.0113823185545371,-0.0589922395537076,0.027131399559225,-0.00335691198108635
-0.0125612049966014,-0.0245633962787173,0.0194217964844983,0.00647914409021169
-0.0274803623962631,0.0167769486093846,0.0126024648615276,0.0125079939042926
-0.044519693174216,0.0413620498261327,0.0092978740721233,0.0145618793679405
-0.0375397698314633,0.0526146550905464,0.00746247953570454,0.0135168628758457
-0.001191514000196,0.0612313302983899,0.00376968376868373,0.010603428186783
0.0356495061459243,0.0615280281227214,-0.00171327228017536,0.00758221644846307
0.0539132024067053,0.0371567404972577,-0.00489782911340526,0.00509197266858881
0.058125413292935,-0.00330924626330289,-0.00755547180258383,0.00163977715769451
0.0591813727554913,-0.025184061686778,-0.013764297015206,-0.00422270219896188
0.0620698521489516,-0.0177945214654443,-0.0214672197138273,-0.0109171694765834
0.047370856878633,-0.00207836892731932,-0.0265594397277854,-0.0149051812970076
0.0079451549580187,0.0027443308043876,-0.0276500893756386,-0.0144824099370067
-0.0285658212581612,-0.00455103914265193,-0.0245914108988518,-0.0106044717167624
-0.0576584824307979,-0.0117845451363637,-0.0163542913565494,-0.00551053100180568
-0.0885490115224465,-0.01395419404989,-0.0060047532259201,-0.00131730328075841
-0.0976974954055145,-0.0171205527092374,0.000403754227752292,0.00120561472699858
-0.080923025344633,-0.0204701309759547,0.00304016276103478,0.00254003361686899
-0.0642876827181731,-0.0211697106542479,0.00727399888852163,0.00325844835130585
-0.0473719044363194,-0.0214785261256746,0.013848449874315,0.00316313927024033
-0.0191991347917634,-0.0174229912292866,0.0170169251025493,0.0023935158050205
0.00616852253607843,-0.00652935993401946,0.0144545892768174,0.00225009815514949
0.0139081845659567,0.00342401338730309,0.01000724145437,0.00319181651870072
0.0136500813076918,0.00678453644732602,0.00769374405566945,0.00433244942409522
0.0221887566844763,0.00532732473592428,0.00724002097270728,0.00487843669272222
0.0386862759700316,-0.000146097334749034,0.00596700601764565,0.00447210280789507
0.0429690990871046,-0.00653749577801757,0.00429772337976151,0.00299290011620901
0.0218959058421396,-0.010819426007809,0.00307475072034026,0.000618184432204108
-0.00684618938539701,-0.0176208337171644,0.00113703740333642,-0.00130642683755297
-0.0196286172398896,-0.0302428120286471,-0.000943474776053763,-0.000645505997404545
-0.0168049811076849,-0.0429391844814725,-0.00271380315817461,0.00302316915256029
-0.013873300127742,-0.0425232038512478,-0.00563519580004079,0.00774546668873958
-0.0217496258412908,-0.0267922821755727,-0.00938192339457312,0.0111488838329822
-0.0366951910052649,-0.00939003457663532,-0.0119087521599832,0.0119117900825554
-0.0481688007767305,0.000899986106279976,-0.0107278886483085,0.00981360515373067
-0.0491361128659194,0.00897307681920053,-0.00875738577816682,0.00579757845014138
-0.0416189574523209,0.0196738224637558,-0.0121797920669586,0.00172881201427913
-0.0296665018945302,0.0263858802172412,-0.0151287883982828,-0.00128652223776795
-0.00498264936441784,0.0254671845680998,-0.0102641228296654,-0.00334660703542007
0.0291232407592481,0.0237725645729339,-0.00262058291234081,-0.00471854107182937
0.0422851543074011,0.022197893291928,0.00261811690004275,-0.00579135975132102
0.0201982427229971,0.013550943996892,0.00470960089958017,-0.0065398034903056
-0.0162274303690215,0.000669520397924145,0.00233502751086636,-0.00651122202006273
-0.0365385678648145,-0.00423197572504015,-0.00373353927190384,-0.00555625806410045
-0.0341075790578467,-0.00221414745616381,-0.008700784326029,-0.00370746381899162
-0.0278157936016459,-0.000910654132462108,-0.0108559854375824,-0.00144174500115795
-0.0233026436681145,0.001022496038669,-0.0114598366545913,0.000467378203676585
-0.00619145617521035,-0.00145572203532692,-0.00904431421817587,0.00121645131986918
0.014181445574009,-0.0108594491371911,-0.00323239646546061,0.000949033910511691
0.0128428639706209,-0.014232716004676,0.0019353869599452,0.00170706958545529
-0.000769749685840031,-0.0069137619204978,0.00284714711635889,0.00506052775423407
-0.00892103417772158,-0.00148530263172975,0.00128181206999903,0.00953566211529603
-0.0168679673753424,-2.02775153251089e-05,0.000916774477191874,0.0115589582678953
-0.030974663847092,0.0153131552582548,0.00171051728564853,0.00880625458479711
-0.0382302539956283,0.0436975209374359,0.000384498952917491,0.00270502842926505
-0.0183861301575326,0.0607208242896331,-0.00263922583962571,-0.0030425912350071
0.0237473459271005,0.0457569097390687,-0.00547199387071648,-0.00626819099639316
0.0610131962534281,0.00813389975505308,-0.00897675021632409,-0.0075020586768158
0.0788554573346525,-0.0128224114858299,-0.0102188466005501,-0.00770573370039892
0.080405998861112,-0.011142217730122,-0.00733524978208982,-0.00680239296733468
0.0597206641099675,-0.0132565192817941,-0.00630307248008619,-0.00472823753841034
0.0264179962707294,-0.0271492942161907,-0.0111159483351792,-0.00223821711182792
0.0161258590453999,-0.0484480250311832,-0.0157036128187246,-0.000450133912558255
0.0294189946322619,-0.0592149976364351,-0.0139585118331927,0.000177666485954779
0.0369523733691509,-0.0503540986180463,-0.00898057453387911,0.000420412244153639
0.0177456365695566,-0.0433231727563702,-0.00518996562223037,0.000767270728973661
-0.0268901264370006,-0.0266382580086934,-0.00314699512757081,0.000529001521562134
-0.0579663007136011,0.0294041311480487,-0.00152199312749726,-0.000430796215117231
-0.0508875673789517,0.0887246421196613,0.00173939964442318,-0.00105365709610893
-0.0315339795201983,0.100894495048188,0.00591507317434062,-0.000697677620195425
-0.0183160358301146,0.0811685665614395,0.00442530228003206,-9.68868304859948e-05
-0.00516485237254359,0.0680718844117399,-0.00221849460562631,0.000340650112102084
0.00397239920341447,0.0696109437583973,-0.00247990624062084,0.00131309128081129
0.00834488854754895,0.0758802018958125,0.00615537479859381,0.00254985076912311
0.0178745539656354,0.0715770597529629,0.0191932543314988,0.00266598999959796
0.0304552213018971,0.0507797265348202,0.0343601376100911,0.00106605656900269
0.0387199505598656,0.0297253217456385,0.0464976379352248,-0.0013160784664666
0.037545924148523,0.0167694887433866,0.0482296052873407,-0.00281625313052812
0.0297448100997173,-0.00577481859600515,0.0406515321913259,-0.00262659854671142
0.0249790256650049,-0.0281245988879772,0.0356414769533785,-0.00138044439846994
0.0231267929890398,-0.00326220930952469,0.0386582596673944,-0.000330371952553342
0.019783229334329,0.0575382893669677,0.0412795740217991,-0.000214188227908652
0.0269267492483995,0.0976544154106193,0.0359102902096236,-0.000617962791220517
0.0502739144698642,0.101792706135903,0.0243305184314332,-0.000672570322078447
0.0476410709255902,0.0662410347631324,0.0121159874054894,-7.48374948560115e-05
-0.0074435793212959,-0.00481661756058532,0.00231580641771377,0.00043662123718852
-0.0698910933658844,-0.0457380223098479,-0.00681348055145193,-8.62236973920433e-06
-0.0954933633065961,-0.00272868418400539,-0.0148723706177639,-0.000898734698333562
-0.0808294631105266,0.0839262630884929,-0.0175665892958975,-0.00118839387527749
-0.0391171992940908,0.14572653771635,-0.0158568407800459,-0.000547039362585056
-0.0103833284438359,0.153092614589786,-0.012480520884616,0.000783885215401406
-0.0295410565663646,0.118812390838594,-0.00583010004276093,0.00195902301993379
-0.0680757481443814,0.0797199609280566,0.00201298969224038,0.00195572359661808
-0.0741838402496393,0.0619976115715262,0.0078586160687977,0.000774047772516945
-0.0357412986360282,0.0604273538530565,0.0134513019206417,-0.000708738400242642
0.0184102154023693,0.0406639623461751,0.0185808040290116,-0.00182621226403447
0.0541971712531021,-0.0184969641348665,0.0214666260053582,-0.00234106545310886
0.0627582869349363,-0.10399870539647,0.0216167423765251,-0.0022130108490671
0.0643552582736928,-0.167421566979106,0.0191064503428955,-0.0016034129594926
0.0662751825345038,-0.13903515855613,0.0160781141279068,-0.000867196050989527
0.0524570772616354,-0.0297985884612412,0.0133586252719122,-2.01523581731353e-05
0.0287199780460335,0.0682019848938316,0.00965662840028831,0.00153868886241858
0.0220592636863246,0.10093296085392,0.0045612265167726,0.00369220521317282
0.0490051514489405,0.0825009660527534,-0.00545107781378719,0.00517658309123071
0.0898047275872196,0.0502407124475196,-0.0184370724528836,0.00546034657915804
0.104987325231391,0.0204194916496776,-0.0256892101836773,0.00512655234082078
0.077534161734764,-0.00166739827113199,-0.0273719339061369,0.00441137944855347
0.0140552880558052,0.00552101623464103,-0.0265920516539541,0.00284351373775652
-0.0624690292310326,0.0379015089080974,-0.0223066075161437,0.000151207398916048
-0.102615297794997,0.0489023647842705,-0.0136299083621388,-0.00288253679714578
-0.0691043385847089,0.0249532857500681,-0.00363210473961968,-0.00457020710714361
0.00967681604528886,0.00643350395796134,0.00580492186465243,-0.00401838860754714
0.0716092521747821,0.00828749762699777,0.0122433019093337,-0.00280236828152234
0.0843808656505446,-0.00232686631255799,0.00701156387524586,-0.00346550590211032
0.0680147003631569,-0.0485653658450118,-0.00817654536706609,-0.00576413393703425
0.0596267285034258,-0.123904999714495,-0.0195230806074447,-0.00641503491983131
0.0654257449831005,-0.186874938564899,-0.0197988015763412,-0.00276103417670687
0.0544306326379099,-0.199111630431452,-0.0145810492755046,0.00417780443484368
0.00231304145835648,-0.179016735582992,-0.0129959231077763,0.00996411008597146
-0.0543109201386976,-0.162869530109339,-0.0174042489758491,0.0106512319168377
-0.0615800936258353,-0.15012631917937,-0.0238532506415676,0.00621020804035254
-0.0319717243647699,-0.117284149917287,-0.0286549223249355,0.000118196569878026
-0.00911516429993273,-0.0714403842567221,-0.0304369282095348,-0.00380933504573846
0.010139336992117,-0.0374525150220799,-0.030861506284544,-0.00448074915862347
0.0379143862897007,-0.0232036407014594,-0.0317880086229711,-0.00263571614211232
0.0491394738964724,-0.0234112711825703,-0.0320894853382351,0.00112898132544732
0.0309261170937731,-0.0287021981195684,-0.0308366926960466,0.00512303290976899
0.00795376544193233,-0.0311021396631817,-0.0278823764179999,0.00777841909417119
0.00506640416265573,-0.0274260066287822,-0.0249021449423879,0.0103019102124216
0.0242847382853965,-0.0212867148900807,-0.0230099029775694,0.0133318846402906
0.0445192335452304,-0.0156061307970535,-0.0186262338865885,0.013210403430229
0.0423491632711473,-0.0190451468374373,-0.0114967601136237,0.00646748039025472
0.0218383658143366,-0.0376194450446226,-0.00822165394249216,-0.0035768674217401
0.0116356196083163,-0.0597293345934828,-0.0101130631592898,-0.0103240023904489
0.023895889930353,-0.0787620018117158,-0.0133721767785205,-0.0128919582731088
0.0274356920726587,-0.0979799410438981,-0.0161825484665978,-0.015991782946039
0.0070375931154034,-0.112073910394537,-0.016300485615585,-0.0212286517768882
-0.0116471905126569,-0.105386906844792,-0.0134204971758734,-0.0228766830025761
-0.0227857533901825,-0.0664972569427315,-0.0101102821213252,-0.0140333389597986
-0.0417653824074488,-0.00989786483691102,-0.00880149527510006,0.00434562604396413
-0.0673469892624015,0.0369998098727494,-0.0105260129907743,0.0229982745896256
-0.0773963766211483,0.0603564142498539,-0.0106668704621316,0.0335976360160941
-0.062931171632895,0.0589823470152276,-0.00446928566267023,0.0344926912353467
-0.0426234285866896,0.0405615486594229,0.00388298649612654,0.0274246546025786
-0.0240498475168172,0.0182273724231828,0.00501779234582826,0.0151030677997996
-0.00892267009147989,0.00239947432940431,-0.000988087731144265,0.00195598429220508
-0.00973787318288752,-0.00627513763970181,-0.00452411335183727,-0.00799832924230627
-0.0240444165943188,-0.00980615288659144,-0.00287459748597794,-0.0137170688260202
-0.0384462912573428,-0.00840980634809708,-0.0018319971707614,-0.0166525334825255
-0.0402323337692238,-0.00475806155287085,-0.00599667907460371,-0.0191380379450664
-0.0278514054231398,0.000191640958740934,-0.0113659227005598,-0.0216844779746758
-0.0187610682170151,0.0112991464483044,-0.0117154881871962,-0.0220028081267878
-0.0202363824287745,0.0331375968790488,-0.00872683448654862,-0.0178686007655901
-0.0201881571551031,0.0547982462453988,-0.00670790182500406,-0.00978245321165174
-0.00993513692519742,0.0597639989167316,-0.00629059223780211,-9.22552117395802e-05
0.00554987183127533,0.0448856598682466,-0.00645216036658794,0.00852643472360539
0.00655172642279585,0.0183648444241021,-0.00555036513782321,0.0132287843728178
-0.0187051540243976,4.58930597504806e-05,-0.00323465896820107,0.0129558968876985
-0.0426765882596295,0.00709805138545095,-0.0023129952921314,0.0101629683368639
-0.0319120471767641,0.0266918408656763,-0.00274807806134111,0.00825062085550842
8.08106618256435e-05,0.0335563999885274,-0.00078532630822142,0.00760205613396613
0.0151996393810062,0.0217094152615279,0.00211235068491722,0.00633434659938534
0.00619307373636268,-0.00137631813163507,0.00260819909434314,0.00345771616017159
-0.00716091178897584,-0.0243446451534587,0.00354868322105661,-0.00041480723655315
-0.0140228132611146,-0.0350655006371696,0.00857987191181793,-0.00389700830924464
-0.013740053364676,-0.0375632053799642,0.0160141599901957,-0.00617583519383419
-0.00884923998828383,-0.0438993377765297,0.0221107857655751,-0.00739604664065863
-0.00709698349156701,-0.0472961621476338,0.0239331557890316,-0.00812705288994245
-0.0100709405909356,-0.0336315593468328,0.0227436390783325,-0.00896067167867673
-0.0122996417885095,-0.00219007028914303,0.0231148354435091,-0.00999440362290886
-0.0124304107269648,0.0326262735024299,0.0261074363273473,-0.0106405189928116
-0.0129640824481221,0.0586934115753577,0.0297984734835452,-0.0104827581018573
-0.0135519698078868,0.0748671809890783,0.0311837156450028,-0.00953938072015556
-0.00852427308950131,0.0754592267535736,0.0291572245267107,-0.00765092652591236
0.00233634086333043,0.0545626831721842,0.0255917398149614,-0.00494771271258922
0.00953148246768722,0.0234652253079901,0.0236164289895205,-0.00238207593655285
0.00774761957045401,0.00382711068328485,0.0228139014264036,-0.00110298697696961
0.00392335247986433,-0.000126017635723008,0.0188673372585892,-0.0014201585099192
0.00251718645050768,-0.00362623249644217,0.0142594767035527,-0.00220905501272518
-0.00150671557825136,-0.0166667874726046,0.012138550383792,-0.00173529330310339
-0.00925924051906046,-0.0349058714954674,0.00791918032048416,0.00022884538158338
-0.0187839765386663,-0.0468836065865149,0.00216317479060837,0.00242702388881435
-0.0279371151039963,-0.0478360772376371,-0.000491340722631484,0.00369788462986975
-0.0315238297457839,-0.0421017855237308,-0.00285304304623389,0.00357478769958382
-0.0277947239806592,-0.034255539844931,-0.00841022573145304,0.00267876357476983
-0.0190991336726258,-0.0264653672185066,-0.0134491607706999,0.00251041130229368
-0.0132699661006693,-0.0199658581834812,-0.0131333561795204,0.00406461063168206
-0.0158407625098583,-0.0126965250436319,-0.00769553854065243,0.00717977395048742
-0.0156361634519269,-0.000316094643215251,-0.000501731151417738,0.0123385508089114
0.00118367067414339,0.0176619126716953,0.00376396260900983,0.0190526171644685
0.0236260725460011,0.0372881845172932,0.00414618456492432,0.0225565305256484
0.0270255994621921,0.0499516738949835,0.00504032416402882,0.0181416437171007
0.012692328940672,0.0449317890457838,0.00741926890307747,0.00575424331181264
0.00213429631424737,0.0257251252027373,0.00827239841425206,-0.0113358346495953
-0.00259960375235267,0.0111940701586488,0.00614403313589845,-0.0269220829531844
-0.0119503425547624,0.00554685454627001,0.00410050686638954,-0.0350645970631418
-0.0232524992578426,0.00276176052258858,0.00567683934662044,-0.0371328703702396
-0.0410943620813408,0.0042385791678509,0.00866535103784342,-0.0384748766733645
-0.0677825352089496,0.0119178708340268,0.00868647668230778,-0.037744409989285
-0.0807756247026305,0.0286712912337617,0.00708259801316025,-0.0273700331830851
-0.0708808856673356,0.040778845141933,0.00746796494619352,-0.00588007915054301
-0.0540496404460801,0.0268556929478961,0.00667367449277706,0.0176153893436348
-0.0382663860851671,-0.00132647359857486,0.00302013820487543,0.0338772765778888
-0.0129784897438643,-0.0156038344767115,-6.61928211262534e-05,0.0410050908046814
0.0258456125983928,-0.0117263758927961,-0.00228188182830234,0.0407420995180628
0.0565042676048356,-0.00346969883275048,-0.00536775769353904,0.0349277501860441
0.0593940625692474,0.0075044405105623,-0.00806118570015535,0.0257901974527853
0.0388408490807275,0.031815565281887,-0.0091506874629294,0.0154525680084765
0.0091289518807609,0.0605341684022984,-0.0118828883340031,0.00562615645679338
-0.0193275928650307,0.0721838313832484,-0.0164699474226624,-0.00193584071198465
-0.0418837263608634,0.0654577098967319,-0.0186869648888804,-0.00638044702207393
-0.0534563311127282,0.0507042361004068,-0.0197214131002116,-0.00881818430690671
