-0.00705388340842706,0.0113496677028487,0.00300794677465261,-0.0258921085402575
-0.00328500565744597,0.00797751170914203,0.00645202871394902,-0.039183431048567
0.00510959746706,0.00930392561093551,0.0102932778199065,-0.0453649938785537
0.0194685209494292,0.0185555131126853,0.0118902160691506,-0.0422223530500395
0.0238580337421296,0.031761799969183,0.0126836321987018,-0.0282699118687806
0.00762305430946892,0.0455852425457565,0.0142528040430044,-0.00434994656214197
-0.00916603413205971,0.0545177671930504,0.0146760585044462,0.0228642346374091
-0.0108732249134737,0.0533111635225302,0.0136044837451016,0.0435674570845778
-0.0124133219728167,0.0459988912711292,0.0116353871005274,0.0525968080770948
-0.0141791456511477,0.0381553192845862,0.00929721163986896,0.0509057277359727
0.0020642101846209,0.0307075362569886,0.00736435272309013,0.0413893671675281
0.0286429853599839,0.0224863823940846,0.00491036196433684,0.0270669209777306
0.0497768941526018,0.0124835831450889,0.00158572800844042,0.0105756256797011
0.0618831699439741,0.00213637821310804,-0.00108603207295586,-0.00726530378331853
0.060477681404001,-0.00377315514546463,-0.00101909434587091,-0.0275023585295502
0.0422957094389231,-0.00233720741795382,0.0026273948080556,-0.0468377978103485
0.00555030041405725,0.00347081831334997,0.00696423805306001,-0.0551011337779513
-0.0407151283960231,0.00888497336564901,0.00900094947682812,-0.0468278876553474
-0.0746395219607594,0.0130776952536295,0.0100680395371187,-0.0269148736379336
-0.0796373292379886,0.0183927532145887,0.0107315099703054,-0.00287898002077076
-0.0504062398203928,0.0237228639867424,0.00974970012185433,0.0182964552426807
-0.00382465353246133,0.0245261876808301,0.0082342153975942,0.0317852443267125
0.0326612194428691,0.0204240672319489,0.00757060069070738,0.0386160533805023
0.053531510660805,0.0147598577409587,0.00616508257390146,0.0405423101608652
0.0600690412001574,0.00923308231540376,0.0029328209065444,0.0358389172470721
0.0442566586304089,0.00296637326429421,0.00112436236919935,0.0238440857571095
0.0225662369974735,-0.00158753598173895,0.0018433773555881,0.00840608981915403
0.0178361809474655,0.00198951491674108,0.00200984854987639,-0.00267361855413413
0.00983306581374802,0.00863219417742186,0.00113079604307697,-0.00410574497510936
-0.0178972106005932,0.00596726059851248,0.00153199088276477,-2.92661292980948e-05
-0.0433733010413443,-0.00412958336383429,0.00332286061381718,0.00151897000793137
-0.0466078013756618,-0.00878218065679032,0.00375023579875455,-0.00159579054888811
-0.0338771326322064,-0.00223742353083712,0.00206751437698808,-0.00602468195212481
-0.0206840344003398,0.0090702537788885,0.0024097047556423,-0.00779779196493085
-0.0104490356895257,0.01504922649674,0.00681581830414208,-0.00556419556912641
-0.00774487226501395,0.00980537657974569,0.00732021495095495,-0.00259319183981588
-0.0201747085367781,0.00139473537977816,0.00121939691263825,-0.00218029205696187
-0.0366073938995757,0.00775579704231013,0.000551688217946225,-0.00213222929986869
-0.0384883287793906,0.0235004928912421,0.0100079237839243,0.000142907448358749
-0.024750740623519,0.0214728781948234,0.0162060085635464,0.00326148477312547
-0.00831583835167482,0.00295980545505873,0.00924282002861552,0.00627705968410884
-0.00187682002334628,-0.00114301955656228,0.000325897235752206,0.00910644252380102
-0.00669078203988153,0.0017960109791924,-0.00337580965124086,0.0100238204026805
-0.0137303512335137,-0.013939828160144,-0.00867097899779628,0.00855305413416303
-0.0102998527352084,-0.027806271495977,-0.0118725684125283,0.00492430522270144
0.00944716177802371,-0.026783656711357,-0.00904408127405708,-0.00304198923449127
0.0256684505229605,-0.0238919502380012,-0.00492104784018794,-0.0136675304171608
0.0186641746043235,-0.0202806455256098,-0.00278556068585791,-0.0193406992137682
0.00107120452024011,-0.0171410260635685,-0.00521984647968083,-0.0158970276774063
-0.0136185162049195,-0.0129237393192251,-0.00866071002693831,-0.00488806408819543
-0.0241652660583199,-0.0017517943956453,-0.00868302568605231,0.0100590798709453
-0.0239505041489476,0.00981393589457544,-0.00635221833975132,0.0229557469477577
-0.0141564379861696,0.0122041718783674,-0.003137483740691,0.0271266390363456
-0.0090644679892445,0.00536605943146231,-0.00198442158073798,0.0210945750373035
-0.0129711965120198,-0.00466712910437544,-0.00236985203094623,0.0108421013488877
-0.0159474193995728,-0.0124876725380953,-0.00117305973204265,0.00222177959326949
-0.0197220566180537,-0.0176750113983572,-0.000885679538252597,-0.0054918762330229
-0.0293174542434305,-0.0210352000178992,-0.00395934644786651,-0.0142390304166747
-0.0356860870039516,-0.0224827979606857,-0.00647806522665366,-0.0217667118207518
-0.0372754338569743,-0.0219328760155202,-0.00511331123506231,-0.0245335197254283
-0.040444821467356,-0.0201973669308513,-0.00197099712274456,-0.0222573664434876
-0.0411521453542268,-0.0196043469936384,-0.000869858106800643,-0.0181324244122682
-0.0356474727653649,-0.0193254805619687,-0.00111869423672787,-0.0151136024724047
-0.0277592374898335,-0.0145377354936444,0.000433347231543189,-0.0135151825227083
-0.0130454174512385,-0.00235472934296312,0.00329336661219352,-0.0121444432275214
0.0120154926591736,0.0117087949058448,0.00447961640535124,-0.0102001622905454
0.0329414625051806,0.0188382329402568,0.0031111476189254,-0.00766335868240035
0.0398860828072657,0.0186455994658574,0.00201316533098371,-0.00480187458502064
0.0417275033895249,0.0131943969405184,0.000640908845694201,-0.00187828750049741
0.0463703023881848,0.000961580195457848,-0.00363661697107329,0.00119867077406515
0.0497177063499665,-0.0139402253660738,-0.00752681477303784,0.00444690291247057
0.0443460333224036,-0.0229055827034178,-0.00677851797976409,0.00694383181105711
0.0295915839749302,-0.0234425719843174,-0.00470940520493464,0.00761919248327174
0.00860635823393192,-0.019268628947124,-0.00550626313924362,0.00657583621113537
-0.0126320451791283,-0.0114174529393539,-0.00558552888839265,0.00469829704002804
-0.0240316233399643,-0.00231859954381318,-0.0011429951275761,0.00280111330162869
-0.0236624529923061,-0.000827066612069864,0.00412157162954669,0.00117548226344218
-0.0194781124824167,-0.0119941555437587,0.000593017680880339,-0.000368222322384419
-0.014992782791774,-0.0121254731791356,-0.0105240885414385,-0.00135896124116852
-0.0222426299013963,0.0339543848045741,-0.00800173246553171,-0.00125935614428448
-0.0492515046022371,0.0924268803703483,0.0107408114970084,-0.00162575011267577
-0.0686878082161041,0.104151570114206,0.0214220104794198,-0.00379036425624141
-0.0605153130677152,0.0869541151310485,0.0184622374467452,-0.00598761752957577
-0.0418676929424308,0.0825441065097676,0.0149882782988768,-0.00642207359333644
-0.0294368906121358,0.0935626570195201,0.0177344648424314,-0.00574269377096495
-0.0213570042266338,0.108649265297275,0.0241032239828705,-0.00513115739791858
-0.0136004339257926,0.120474154394553,0.0267482779412156,-0.00463716044271374
0.00818245623710548,0.11124735723174,0.0220262093966375,-0.00394890369432226
0.0766949344389689,0.0651205452040577,0.0132885493183121,-0.00337755848893597
0.183755780307063,-0.0191523923780383,0.00183212527153705,-0.0029967845575645
0.238119063877676,-0.13904867559761,-0.0135340102970772,-0.00178456600527081
0.174756386402536,-0.226834378592638,-0.0273612930898231,0.000918331107814177
0.0452009651534887,-0.187258481654538,-0.0301825209181092,0.00392307641415553
-0.0687728076139961,-0.0435953856029044,-0.0149383590844496,0.00562437735467012
-0.147572597836679,0.0872108618857117,0.0105902390669349,0.00548597586905237
-0.200016886622635,0.125336609400009,0.0257246926979574,0.00366967222392129
-0.202454220460879,0.0788026782632758,0.0228413867660542,0.00116359536340964
-0.151512536082516,-0.00481064790932653,0.0108816542189092,-0.000491968888571618
-0.0975076680656474,-0.0870894053610601,0.0019241883595951,-0.000654657772364735
-0.0620386558439142,-0.15492911069913,-0.000848256135234771,9.96239484697767e-05
-0.0157239699629443,-0.162497387520277,-0.00732258782899863,0.00107077892545171
0.0518255123240918,-0.0559218763926382,-0.02147070153865,0.00194976711222838
0.101183133953125,0.0809356971439528,-0.0293072325182746,0.00243954886703316
0.10631206735438,0.122023021502415,-0.0236185659704115,0.00216906701685718
0.100225653081987,0.0681148896157977,-0.0155667913530801,0.00116850144690395
0.090338434452823,0.0019500901943115,-0.0100106073451837,-2.11839066688816e-05
0.0374986297312783,-0.0183608763234717,-0.00220585404748978,-0.00092529485843098
-0.0319512015287108,-0.00827781419908866,0.00468636282624092,-0.00156683896209074
-0.0553521298317824,-0.00944040881891252,0.00557936065464845,-0.00213629383794915
-0.0378449702641818,-0.0273744262662196,0.00233158149705874,-0.00255966813640866
-0.0171388383603037,-0.0406097481597559,-0.00157948930550754,-0.0025843700603584
-0.00730051962181651,-0.0400487629416769,-0.0012539513739236,-0.00187766676597189
-0.00571407424783134,-0.0454227912494808,0.00321237576558657,-0.000523597071746677
-0.00651077096726017,-0.0626287036798561,0.00246132337845607,0.00105987009123374
-0.00642365198898146,-0.065465029838216,-0.00230775291134428,0.00234353683927558
-0.00500478315337709,-0.0505967880988818,-0.000134526534602207,0.00237676249663424
-0.00349818241739224,-0.0453245075755129,0.00517709428147569,0.000812169440690631
-0.00444481467170013,-0.0570591262677792,0.00463905816428935,-0.00115713187803049
-0.0048537939518933,-0.0703597855257883,-0.000546448335403349,-0.00195968412428433
-0.00230293723648732,-0.0754394366354949,-0.00698763395127446,-0.00128406616607578
-0.000487065150138143,-0.0747257914629842,-0.0132027367223782,-4.21923186558384e-05
-9.30807627121961e-05,-0.0761016662759219,-0.0199556708034048,0.00100929635003751
0.000610321564522301,-0.0783972860566917,-0.0253964146722432,0.00193246036823398
0.00266960641610816,-0.0729511581948522,-0.0228431543537819,0.00253445999010253
0.00797060544956912,-0.0596396097176657,-0.0148103872871041,0.00196367997088534
0.0165345753273448,-0.0429731509302941,-0.012660264834801,-3.73845185426443e-05
0.0242993003446525,-0.0275299537143333,-0.0178413956603137,-0.00258304008830191
0.028264931537072,-0.0165404633228283,-0.0200463658726637,-0.00444449103294419
0.0267569391110807,-0.00971579570816216,-0.0142744041890427,-0.00479524258555603
0.0222855151465109,-0.0075995582292279,-0.00612964119680085,-0.00353164342635658
0.0214155087289761,-0.0112791417310591,-0.000486679150486211,-0.00135903936590647
0.0188744703063233,-0.032978499185178,-0.000451226496172541,0.000988742384394881
0.00957725664931894,-0.0781934211811924,-0.0069959191900341,0.00369697616215202
0.00538536893002455,-0.08222289401943,-0.0100133830908872,0.00679060450140961
0.00842382143263529,0.00054239245138954,-0.00176093273573543,0.00795168907285743
0.00620309067490384,0.0798727013288216,0.00774771033557247,0.00487147693977947
-0.000370441295181467,0.081400636943954,0.00914160836166428,-0.00044037389191388
-0.00260720491564196,0.0437327455731527,0.00623332198712876,-0.00370262436319392
-0.00185873279400269,0.0145944024857372,0.00248684337618406,-0.00301495326849457
-0.00530517964253053,0.00464739654431751,0.000199269163523682,0.000369128859926985
-0.0130453555477542,0.00396517778588753,0.00303842706867148,0.0036348226265406
-0.0164298923368442,0.00352314922010393,0.00858495923496795,0.00476215058509978
-0.0121455722619545,0.00421620949232161,0.0110791137207752,0.00377472752457934
-0.00501456255290535,0.00705483820829755,0.00781755859528762,0.00179352887202375
0.0025080171066372,0.0137963382649678,0.00277564147612975,-0.000126349448008562
0.0106755378428537,0.0221617329085601,0.00104150562620415,-0.00162475468332136
0.0169164535899188,0.025336705127069,0.0012690707450562,-0.00259220939393124
0.0186408256048197,0.0229582358405456,0.00226217781469889,-0.00277284054379904
0.016162864139523,0.0172890652221798,0.00397271624597539,-0.00233543812300877
0.0116426142207015,0.0050243481774759,0.00440123913364374,-0.00186143606642703
0.00752454302922634,-0.0187080910373966,-5.85286644248437e-06,-0.00136003648017062
0.00567340114961926,-0.0332015620362069,-0.00720668175051153,5.86929193310682e-05
0.00579357939542571,-0.0135257559976639,-0.00625108088839026,0.00232092386447848
0.00199418479828301,0.016040662580864,0.00127622242432716,0.00333064651142719
-0.00787471910760792,0.0233393891491009,0.00540008460171629,0.00148694807700606
-0.015308031097508,0.017045080477044,0.00620130756328442,-0.00287829529470099
-0.0151070571221519,0.0142868730618768,0.00590174902392995,-0.00852986655837244
-0.0102281319028716,0.0175452190964212,0.00557750298760356,-0.0139133051984659
-0.00414265801109733,0.0217804625979914,0.00665983996833447,-0.0177498657680963
-0.00095130438670212,0.0226058295681734,0.00809647212842502,-0.0194931016289494
-0.00117856345384574,0.0207125681032619,0.00752305758267397,-0.0190296221184885
-0.00208258392269389,0.0173818277624739,0.00614098607310771,-0.0162678449646906
-0.00341628729495732,0.0172093222642339,0.00725643579227396,-0.0116470805494411
-0.000511108277895181,0.0236666036118358,0.0105378252848872,-0.00667113687378281
0.0105547598104858,0.0330674470270635,0.0147379595467644,-0.00330642228345003
0.0206583374942275,0.0415198335775121,0.0197621973988531,-0.00256324956581591
0.0189360828443402,0.0427649404828832,0.0191520238378091,-0.0030885942216336
0.00652773380753715,0.0320120483876452,0.00474906408819479,-0.00195882643247117
-0.00609871826715656,0.0155673559884821,-0.0143145893314106,0.002734369447847
-0.0132038035711973,0.00320551479041949,-0.0198056856968701,0.0103979963544355
-0.019048067060823,0.000292467994318632,-0.00709112423503051,0.0186756786190169
-0.0243329066822701,0.00630229797241148,0.0135314350164623,0.0247709773131103
-0.0241032236648978,0.0130470608272853,0.0243054538112063,0.0260438868051971
-0.017277734517983,0.0147189085766999,0.0185564436688678,0.0223451943736916
-0.00751948163971765,0.0149558129186237,0.00931830574577025,0.0163188514488369
0.00109647079508133,0.0186056999808807,0.00707715573197779,0.00906999458918565
0.00672543575590027,0.0241714140566062,0.00762409785574913,0.000360695489025592
0.00902824512855676,0.0259249376836019,0.00774509447643733,-0.00830264688521604
0.00904902665494291,0.0241548860706648,0.0103377539918693,-0.0144485478732243
0.00837909425366702,0.02299929635816,0.0126051465708485,-0.0165251789549307
0.00730982052899911,0.0229110399052254,0.0108539588034986,-0.0151348882189845
0.00751991875163131,0.022362988291073,0.00782642385294556,-0.0120405197429776
0.0134527156966028,0.0195214720733845,0.0059650479779522,-0.00832498363169382
0.0252847512237453,0.0153866924262921,0.00400762907565136,-0.00386103740511718
0.0337922607442117,0.0159560665603099,0.00234199919462646,0.00229732654587615
0.0319887038650296,0.0231540616325553,0.0034071453722854,0.00962688140247152
0.0257601161215796,0.0277641228296154,0.00562202246317808,0.0162552337297004
0.0226844315436543,0.0254941378014584,0.00615466409040552,0.0216926063657489
0.0220477600215647,0.0230707002982082,0.00572604721511112,0.0257254714415437
0.0184163243392279,0.0219113277912624,0.00520146853725382,0.0269553433319661
0.00941400406070843,0.0168237205378622,0.00264323576243982,0.0247807624017107
-0.00081909780730538,0.00778448206056277,-0.00107105260596221,0.0208112835837751
-0.00605014830190972,0.000680339615115703,-0.00230003192990088,0.0179367639541554
-0.003089299812331,-0.00117135905837798,-0.00336388852328655,0.0175438330340481
0.00388432367742764,0.00296320535366542,-0.00588775580913833,0.0183825464040391
0.00629094962035485,0.00992896792280082,-0.0065435714980026,0.0188420367797579
0.00322676599025472,0.01293222734955,-0.00679553622711729,0.0174172755314995
-0.00141177071536855,0.0127085127163557,-0.00744355012919727,0.0129521541331084
-0.00610558737835399,0.0115927783509872,-0.00318107061012656,0.00737779981360642
-0.00359216773581443,0.00930375390487582,0.00788949223031086,0.00391832693893246
0.00394732374332527,0.00892964408602662,0.0181405475164917,0.00212657954784272
0.00161718266346473,0.0104857402133907,0.0180668252311805,-0.00128705284267708
-0.00041973163690125,0.0120305558286522,0.0111973177455831,-0.00829399811397638
0.0141594577596227,0.0124002082000186,0.00653333489616567,-0.0169332223923959
0.0351969550409861,0.0113079353993391,0.00363161484705037,-0.0202245983611703
0.052347184511545,0.0124740163203349,0.000164833047539224,-0.0114277163403212
0.0516337906372254,0.017754598972855,-0.000854255161912544,0.00685420435739219
0.0194335080372404,0.0264797574985222,0.00414527772876515,0.0246850810782582
-0.0155413712971161,0.0369385545651276,0.0127724626384455,0.0354070274924447
-0.00959779083382002,0.0418930858033366,0.0176894299460586,0.0374163847794072
0.0305997078904374,0.0405497650760682,0.0156817932994915,0.0312146876130556
0.0585166085672444,0.0413157914675214,0.0111530156958008,0.0199456374432015
0.0554211039053122,0.0411404592863863,0.00826609808478183,0.00690645155745534
0.0500503222102046,0.0346132507304454,0.00557655372888622,-0.00728467432578579
0.0657050881522716,0.0260730535157798,0.000791951523517145,-0.0227658061660695
0.0759422633555547,0.012147599170212,-0.00504549757503112,-0.0377044814498017
0.0443236542280713,-0.015965012712024,-0.00967358138796705,-0.0475730186337916
-0.00935761989712817,-0.0515194395307002,-0.0120672130387325,-0.0480914077154739
-0.0383071568924987,-0.0731230874412479,-0.0137680247314078,-0.040273090795155
-0.0379172082177624,-0.0696617821602533,-0.0137207183361868,-0.0309765685040122
-0.0375053283841929,-0.0520717391570931,-0.00810439416356588,-0.0258636908477229
-0.0518765277854161,-0.0359221365144265,-0.0015142720359239,-0.0231795599187402
-0.0579024834351038,-0.0232564739315622,-0.000325712874099226,-0.01806847313124
-0.0365963582479561,-0.00756170041219822,-0.00185650529443822,-0.00845741083355066
-0.00980452353520896,0.0128243784503101,-0.000950701033158871,0.00470532628033994
0.00809262890931869,0.0317295899874797,0.00320205509989205,0.0161767115319183
0.020007215121679,0.0406470649601932,0.00947716732318166,0.019968416916692
0.0143598065553467,0.0371543937118352,0.0132917804439409,0.017564779956976
-0.00254291362401695,0.026361868288399,0.00902806534581607,0.0147868099996601
-0.000452946655890848,0.0164414924006758,0.00248959328064729,0.0140828960667957
0.0189325546194205,0.0119998620603544,0.00146035519318698,0.0138361145904754
0.0273626575633935,0.0115922944732251,0.00218366129292392,0.0104761808789909
0.0212627633729979,0.00780847974288634,-0.000708426642324713,0.00221210761794607
0.0156750049240295,-0.00333113864522101,-0.005263168772365,-0.00905873600431056
0.010645856610593,-0.0157367118277582,-0.00766734246458219,-0.0192912511695777
-0.00474767367404122,-0.0236731288139525,-0.00642668066135855,-0.0250109949795735
-0.0239584434489066,-0.0290198618569605,-0.00592636174136515,-0.026100325269471
-0.029347758805003,-0.0315380195651368,-0.0110965254914268,-0.0249935171277088
-0.0247638942524087,-0.0225448302257393,-0.0126229060899471,-0.0234478086335159
-0.0239929618304192,-0.00865662002474049,-0.0077705557159848,-0.0212066534568585
-0.0216690420826278,-0.0106167893537806,-0.0100975529455139,-0.0172140666681347
-0.0107539216744196,-0.0281549996015018,-0.0199654626353306,-0.0110538035326399
0.00281040172522179,-0.0365260406011517,-0.0234809333229074,-0.00383145335563623
0.0126770183915373,-0.0257488448679766,-0.0140654259099017,0.00214826625521051
0.0143167609972692,-0.0136278267099386,-0.000982777713341244,0.00597216054146125
0.00874847597942896,-0.0123669934079146,0.00497067197354469,0.00853492086794041
-0.00081976120063631,-0.0182020892029889,0.0027641826178084,0.0103506192427492
-0.016306020794437,-0.0230877891602041,-0.00355568994950888,0.0114180078301778
-0.0339227431531917,-0.0190078502747916,-0.00729516104872091,0.0120359663525386
-0.0444458665719998,-0.00848273353071945,-0.00626259773406344,0.0114728557129681
-0.0469945563759647,-0.00244018245382796,-0.0048736017539972,0.00743551659506691
-0.0467752587727637,5.63710191994193e-05,-0.00591304782582254,0.000151034528901095
-0.0450348663536176,0.00388034097989556,-0.00743917844573653,-0.00580763015657904
-0.0339409394182041,0.00426813816195108,-0.00667883344516126,-0.00668004942883936
-0.0146217574029687,0.000499202365150174,-0.00517288710376291,-0.00288756242355512
-0.000418251153122294,-0.00109065346565411,-0.00375456817517967,0.0036605110704797
0.00735510516846688,0.00118955546672013,-0.000983583733965802,0.0109237161213364
0.00774670318312325,0.0024676280040978,0.00147765830565248,0.0156048843231347
0.00349550009175789,0.0022410303710845,0.00360114823754864,0.0153082353534649
0.0112348110727362,0.00616566055410525,0.00635233134443184,0.0110442722322404
0.0277604533655818,0.011783989871579,0.00637356184829112,0.00639959297665562
0.0341729573559361,0.0110808314740666,0.000206887980466692,0.00458785721382618
0.0304569982558798,0.00376671816189471,-0.0111214723421675,0.00600462885488117
0.0197418376536888,-0.00323537033870645,-0.0187885406809115,0.00797944353503255
-0.00593593348156705,-0.00806282345978935,-0.0133517928444971,0.00621353705084911
-0.0344512323196292,-0.0130560890336441,-0.00112651287497433,-0.000641043530408173
-0.0419904695172178,-0.0152760669554679,0.0059375004136361,-0.00827364369577852
-0.0325187813615528,-0.0118057010461279,0.00737838560119259,-0.0121773995673132
-0.0236741079460414,-0.00436075221949347,0.00636726055494511,-0.013242011777182
-0.0167692620072178,0.00389454402180747,0.00394035746500736,-0.0150153902911935
-0.00494020403486162,0.0102191343228689,0.000687795543852972,-0.0192662566192864
0.0100979177220904,0.0127257839294979,-0.0023785369777725,-0.025769782165958
0.0208292537655718,0.0106185935387531,-0.00314631674360975,-0.0316859808456159
0.0235396979706408,0.0058867064203338,-0.00224810152708731,-0.0329056304591785
0.0184382952077398,0.00440388242649589,0.00112212254965181,-0.0277040882913018
0.0127530302851938,0.00839274207956278,0.00845877254961146,-0.0162608911192521
0.0140829845964801,0.0154506057085272,0.0146417012339721,-0.000633457199243737
0.0184454237625855,0.0219061191061999,0.0159361727019423,0.0148277793739137
0.02076519060526,0.0215131476155856,0.0123135149159589,0.0270467040290444
0.0217007702421581,0.013802068688912,0.00597131496748066,0.0364408234154789
0.0257201960386462,0.00632384073201226,0.000509681094430958,0.0438236365093385
0.0335070447127622,0.00365892029609487,-0.00261189469549989,0.0452364099617323
0.0440689660294471,0.00349316467016733,-0.00323897040242965,0.0343853635520998
0.0544981430398345,0.000487728421627966,-0.00329267785006349,0.0127346694323633
0.0498795070998734,-0.00712286612361425,-0.00461502438727144,-0.0097234797144607
0.0243901488589787,-0.0195726202545945,-0.008806237825606,-0.0242341043560476
-0.00590740369336034,-0.0267081396683345,-0.0113445122104274,-0.0293582468310786
-0.0213448838707097,-0.0175087774632587,-0.00706232289682629,-0.0296357435193057
-0.0196184516298161,-0.00925362233565122,-0.00323851958158468,-0.0296366253617041
-0.0194081885154459,-0.0112921514062439,-0.00421464940874801,-0.0288656894379999
-0.034994639214174,-0.0087269216369948,-0.00423249308299232,-0.0240900570056223
-0.061411606509486,-0.0017722127178379,-0.00107075014999935,-0.0155740916567038
-0.078783686924719,-0.00185296384937587,0.00183111490750476,-0.00680467221241675
-0.0720117138678658,-0.00875532816812682,0.00238497464156989,0.000412781227675955
-0.054377107918398,-0.0160809208443034,0.000918511655771633,0.00746119533001649
-0.0402371090872224,-0.0186817267194799,4.12336974603489e-05,0.0161612720772591
-0.0258376772584288,-0.0137485893653636,0.000431348309858573,0.0252775490945757
-0.0106695886541151,-0.00432287480507935,-0.000615443015534634,0.0319004634766085
0.00629502499750846,0.00543761213583123,-0.00124466488153189,0.0348543235675064
0.0293436425554499,0.0162152601545804,0.000733359391605804,0.0326976307233396
0.0743615567785488,0.0263564156281785,0.00291338052596671,0.0229715712890001
0.14971545178735,0.0185639384485259,0.00227890173192243,0.00764367750216356
0.207653911542214,-0.0146986238658749,-0.00131559685610013,-0.00563033673694184
0.191143523831006,-0.0387883638945516,-0.00298031126330715,-0.0109553437453851
0.108151618351529,-0.0236029212752063,-0.000362084830600787,-0.00983226580862439
0.0196000960930695,0.0093271356172207,0.00254903038780969,-0.00716344912290122
-0.0250207262120395,0.0249830971461589,0.0022253014994817,-0.00554840979445894
-0.0291573670601338,0.018181582149665,-0.00185778965249246,-0.00546563466048072
-0.0290692344372715,0.00201336502323534,-0.00682432648172915,-0.00715433277805554
-0.0515641565589837,-0.0135980164935484,-0.00897881302972918,-0.0097869323881507
-0.0911898299790322,-0.0219336387697159,-0.00902288199352175,-0.0111412642477758
-0.116240024585498,-0.0190972992437799,-0.00712631613927887,-0.00954150257508122
-0.113318296835334,-0.0110701113981962,-0.00164375059187651,-0.00434450908633925
-0.0938619206309145,-0.00652460920783,0.00405271716235802,0.00461499146370394
-0.0569843867054628,-0.00202065896497387,0.00775585061414658,0.0150843241475903
-0.0100305964321599,0.00480140070620198,0.00993284904743127,0.0215129018974109
0.022453895972621,0.00875850008570881,0.00949413083375403,0.0212841191692865
0.0342514846468257,0.0119408065708482,0.00842656475153344,0.0175604635283774
0.0339255872473477,0.0129897136187547,0.00594101130224864,0.0127411957007942
0.0316380794773455,0.0070603125115127,-0.00133388234374425,0.0066846548658732
0.0355558630320606,-0.00254517158647414,-0.00768410653440448,0.000860195333243498
0.0409543944433175,-0.0132614545992062,-0.00863483988084426,-0.00151955886782704
0.0410370378541955,-0.01800148313989,-0.00694247115740191,0.000534719463374599
0.0406063931422912,-0.0107692490495667,-0.00503754762578164,0.00396205387643156
0.0410054450297014,0.00117260621818961,-0.00408377479129984,0.00476881424600324
0.037901705155862,0.0122535421879767,-0.0014173693446971,0.000865352084536603
0.030213755117031,0.0207945463269599,0.0054537528042713,-0.00735818648236786
0.0142191767092868,0.0239770906252443,0.0125862836080007,-0.0164389562689418
-0.00821593333677398,0.023344720809049,0.0148621993205368,-0.0218312844264487
-0.0271315686070224,0.0238359691267601,0.0133365747598533,-0.0217118317348228
-0.0365279390816528,0.0260622145121462,0.0114393543413754,-0.0176645867796146
-0.0350465812863279,0.0280408431428169,0.0117008744597948,-0.0123303544645155
-0.0158859022224473,0.0315250492242845,0.0122682419024741,-0.00713172320879774
0.0188728542755078,0.032519866589994,0.00640306294030041,-0.00186528341043198
0.0376999086786432,0.0220411940057194,-0.00395233498565167,0.00385587753622762
0.0276018948201538,0.00485198853158298,-0.00990522637887147,0.00932234211186617
0.0129522120778769,-0.00863017546517725,-0.00872545588674105,0.0129490730052986
0.00035582779802968,-0.0196568773940149,-0.00384189190814861,0.0133726807296677
-0.0196863142064946,-0.0312623975760193,-0.00158923781137352,0.0107972231735647
-0.0375550466243466,-0.0331026905332179,-0.00225287238725616,0.00647916316667163
-0.0374831941354092,-0.0162621097678741,0.000929841978987715,0.000663321659625155
-0.0245791339504929,0.00232070531658095,0.00586321424495194,-0.00647938898924579
-0.012356919699585,0.0084808144129247,0.00886811259247138,-0.013048863458288
-0.00912419642203535,0.0125902537552641,0.0123989880095505,-0.0162511797034791
-0.0161804360558633,0.0214712954052136,0.0148342474114895,-0.0140035673238304
-0.0203408145422177,0.0299075949162857,0.0146262236819661,-0.00848648957460053
-0.0145275272596004,0.0324149282128643,0.0134212596375381,-0.00664697136250672
-0.0059593014849824,0.0291882455103517,0.0126313622479417,-0.0110566504578527
-0.00129969554603755,0.0237993190695126,0.0120263920041284,-0.01444211589071
-0.000394905894430474,0.0196358648974541,0.0100901190275838,-0.00850014449257722
-0.00396774830253779,0.0181799567694435,0.00759536239052564,0.00494217792324437
-0.0198179939850065,0.0158144704371618,0.00573188603408936,0.0140663187156352
-0.0421764665858508,0.00751236134828605,0.00480131272446637,0.0109587431776613
-0.0542067350119832,-0.00355465579543752,0.00347219820314478,0.00263047927170482
-0.0553447076275854,-0.00861052109778261,0.00156010377981946,0.00117399735137159
-0.0499470516943232,-0.0060713931654982,0.00343507262982139,0.00777373630402433
-0.0369010181441671,0.00158517276732625,0.00790107946964451,0.0133143579532565
-0.0269799340524104,0.00866715142746052,0.00842566561168456,0.0113934716393472
-0.0284634306731923,0.00706793288504229,0.00646264028624092,0.00579464962041567
-0.0268423432780888,0.00624362753920776,0.00803411016421661,0.00455382883999374
-0.00795543792562116,0.0174606031966161,0.0117327399695129,0.0101718627243505
0.0348987479196529,0.0208626588172299,0.0143306449710996,0.0167485062093834
0.0993203693209452,-0.00272169651127764,0.0185918070076634,0.0142584283953134
0.136526302358691,-0.0310406974536176,0.0256291226356357,-0.00116902348917536
0.10354262912226,-0.0365815015188793,0.0289739750311682,-0.0198408485209675
0.0393831060560661,-0.0194194300752707,0.0234560930374904,-0.0305452247985958
-0.00248866072109125,0.0109279690273602,0.0108863532381319,-0.0362145873745914
-0.0161273116976413,0.0377052939136244,-0.000461626161847421,-0.045390173563297
-0.0192321291910808,0.0384020364801919,-0.00411051272028059,-0.0560864216968915
-0.0222384966283785,0.0048084457238611,-0.00512418124000462,-0.0549807014489999
-0.0112164733179423,-0.0340329215533599,-0.00580281935395763,-0.0324723744947975
0.0176766684950564,-0.0372817171426983,-0.0020231168016181,0.00358550988514084
0.0374200054954903,-0.00818824706911599,0.00317130725845607,0.0378555359601422
0.0389649057351418,0.0269636583407756,0.00522877455602509,0.0634994188147869
0.0363911777634802,0.0551467344262502,0.00714055721785716,0.0790141965338307
0.0292253878915353,0.0637494155876154,0.0115221356667483,0.0815305472728764
0.00768282777006074,0.0432314903546491,0.0141623721740477,0.0701739984128387
-0.0302529339925749,0.00889289238482338,0.0135157235755975,0.0485655410597904
-0.0608838510640427,-0.0112610339873773,0.0135091840486658,0.0211817799791399
-0.048329622140181,-0.0133572787435913,0.0124216736346335,-0.00601893961155563
0.000631170314881573,-0.0103337932241063,0.00842149590263981,-0.023421136331573
0.0361266744335769,-0.00495875034832124,0.007071340976598,-0.0285118178032382
0.0293275809055848,-0.00286666726608244,0.00905850689888194,-0.0292065992632485
-0.000751290740592162,-0.00612827318435138,0.0102907397450033,-0.0309975922528417
-0.025512519396147,-0.00352732075322402,0.00983685065159531,-0.0324487578104033
-0.0319405208464619,-0.000519672898369412,0.00559362456956029,-0.0293005019886011
-0.0164992024062736,-0.00356603436197189,-0.000929517727551074,-0.0192950118896216
0.0216586827418292,0.00160932382488205,-0.00218803577412075,-0.0053393377156765
0.0621607181469999,0.0157526311043764,0.000810659827921972,0.00669624076898559
0.0725179507312179,0.024382653853506,0.00137632696538875,0.0145035117557055
0.0535286950788064,0.0278454458727171,0.00214476659160665,0.0237722484865951
0.0315384022425599,0.0301141184324199,0.00664818366805059,0.0381195386803369
0.0211690944820925,0.0272226475439615,0.0108509349484376,0.0458613526952619
0.0134718499345186,0.0217927511114845,0.012313164069492,0.0324987104999903
-0.00131399602399136,0.0188902973613381,0.0125052952657646,0.00211361214750214
-0.0134633015551198,0.0180111115890534,0.012257798423803,-0.0271372625046651
-0.0161396274708351,0.0143618963077491,0.0110902798658963,-0.0429485400548436
-0.0181375005202103,0.00407943943001151,0.00801117647276989,-0.0447381215541981
-0.016433473749688,-0.00885271829237814,0.00115739788503113,-0.0365402610901286
0.0029901832987054,-0.0160014629401221,-0.00593710533902281,-0.020511692617792
0.0330019287661551,-0.0125947146114827,-0.00705470636371745,0.00348036633500997
0.0462896246072058,-0.00794274884573244,-0.00643669841459932,0.0326054867284862
0.0271480237759138,-0.0102517934397972,-0.0100074274803896,0.0633600964909906
-0.016494974034419,-0.010625194629177,-0.0126569271583997,0.0891004187719199
-0.0612188644996168,-0.00498788598989182,-0.00791703933042526,0.0919876854623017
-0.0798162448070665,0.000821205481713577,0.00156383447691378,0.0597030081743014
-0.0751130950954215,0.00499874560700165,0.0104998968848735,0.00553904053824245
-0.0718412696419204,0.00988509645557062,0.0152341493271264,-0.0426843350099248
-0.0686239526102541,0.0139223332211297,0.0110695810639407,-0.0675169481816194
-0.0506585903007012,0.0153645072267602,0.00309272820115921,-0.0691187728282717
-0.0268317146471379,0.0178316445080438,0.00445085682904225,-0.0553351010313757
-0.0167815893989396,0.0156889740507059,0.0144757652007241,-0.0336409670797775
-0.016942916083002,-0.00225845242590934,0.0157483783505436,-0.00920612116024427
-0.011516358558504,-0.0222851264336136,0.000998483136330711,0.0118177997684054
0.00331266115848918,-0.00659371895902454,-0.0056285244970299,0.0202672041786771
0.0142103371198422,0.0343086609163968,0.00860270023568974,0.013087629106483
0.00563892597275574,0.0469676401183011,0.0199222627919211,0.000133458086257296
-0.00977215160427167,0.0345031305564363,0.017813295839283,-0.00515520299403751
-0.0156309732082837,0.0296564957706084,0.0150144001976662,0.00153246778664206
-0.0222736648972129,0.021981424276757,0.01647558140397,0.0134446324559
-0.0353470859154005,-0.0142383488222175,0.0130427641906324,0.0196570180241162
-0.0410457154619562,-0.0444293397551531,0.00288428188659672,0.0129430124373662
-0.037992904459989,-0.0118498070601913,0.000346769533152835,-0.00424284749131228
-0.0351367008659145,0.0453448536048054,0.00768382831990267,-0.0211532839309815
-0.0246847225195156,0.0530387180652276,0.014595459221572,-0.0291650778618208
0.00390230538425857,0.014252839387001,0.0180034179703045,-0.0268980299274166
0.0398628129867224,-0.024677376687206,0.0175232260395899,-0.0169621724231673
0.0563067326873387,-0.0434887922261079,0.0113251405702769,-0.00448993015916443
0.0427174589745555,-0.0485958256742657,-0.00175438924916744,0.00575308479185503
0.0263679469126035,-0.0347941135469529,-0.0136746322856802,0.0157522335859714
0.0179865991242275,-0.0052258089508079,-0.0129127718796666,0.0297573332197887
-0.00413619532552235,0.00393268280008727,-0.00563546588399182,0.0424715039533462
-0.0266019710154056,-0.0123890684462116,-0.00186104194103339,0.0436738288648401
-0.0226473921230085,-0.0166148935648888,0.00202537617963199,0.0328009249827055
-0.00439309106098837,0.000184297064442361,0.00776076696208454,0.0158977778514358
0.0121956699599484,0.0138410411015886,0.0124644751244732,-0.00370365143937933
0.0294658035198609,0.0123289655515844,0.0133217203355216,-0.0206275901571557
0.0336094986963515,0.000441889477063405,0.00793351972109995,-0.0290303243270205
0.0169408719751022,-0.00540286968655949,0.00381555254508034,-0.0329317539471148
-0.00749913853954332,0.00210132940532461,0.00741405359667016,-0.0401705659363005
-0.0397682801889576,-0.000137406593491714,0.00902441037044961,-0.0480192150868656
-0.0606308343409428,-0.0153494469482091,0.00560798484866125,-0.0457629386192313
-0.0371979997811247,-0.0139807712398755,0.00813398112462678,-0.0331345285839095
0.013069203054892,0.00554256726918387,0.0166133029056376,-0.0282562421136442
0.0482708253427036,0.0189230427480745,0.0210421577978775,-0.0463722127017974
0.0568409452856875,0.0194959936569785,0.0179472800320916,-0.072750324958007
0.0432384998438347,0.011172117830939,0.0133907704173313,-0.0745860381555077
0.009000454698134,-0.0037549834205469,0.0122612263806507,-0.035906358802108
-0.0323951555410749,-0.0176035676419124,0.0147992297460956,0.0335647645570201
-0.0579983348466704,-0.0192292727622168,0.017701511116607,0.102672033174836
-0.05391127232514,-0.00872532929443057,0.013787403564339,0.134591785731493
-0.0219769915886046,-0.000942225514195497,0.00414792649884463,0.125628404138983
0.0150749290957573,-0.00131789099924404,-0.00356934334903341,0.105447513091263
0.036390457060323,-0.00387310108943253,-0.00816095150206029,0.0869608131736188
0.0495800780099011,-0.0103696812045396,-0.0111271139412583,0.0534092997621665
0.0649868357017394,-0.0263796732117713,-0.0140114831039489,-0.000850167380923611
0.0738634455158437,-0.0452503425405155,-0.017942765783044,-0.0555301295461577
0.0669245507281608,-0.0537276214727606,-0.0173548883037752,-0.0914935922274746
0.0455382378907673,-0.0496515991729313,-0.00731951087772698,-0.104121234352373
0.0153046593986859,-0.0416233797172628,0.00613469811766616,-0.096319129895369
-0.013169153177708,-0.0393369314225101,0.0115537734268255,-0.0751998923497542
-0.0358314020754531,-0.0448275616060834,0.00534456061628495,-0.0485545517149808
-0.0596258110969068,-0.0453319183488007,-0.0012328369699806,-0.0210768602465891
-0.075626154681543,-0.0275540610752215,0.00184325857212447,0.00231836166228996
-0.0623486990098408,-0.00133189680318901,0.00809851147893842,0.0176556940483863
-0.0260463506866002,0.0138831952886584,0.0098079202719167,0.0261661782533086
0.00145177441094188,0.0132351487865421,0.00726741606464068,0.0278884778462729
0.00978035671901616,0.00533633487346532,0.00253185231279405,0.0191150431658995
0.0106282434477855,0.000214128759748505,-0.00178748819634169,0.000656459266392082
0.0124488400249518,-0.00356757231102049,-0.00284710975666762,-0.0203394250431805
0.00925729074920745,-0.0153442669068705,-0.00246031979773271,-0.0333619671016092
-0.00525545891137449,-0.0313337329304917,-0.00423255236884924,-0.0285940178708787
-0.0155888377521925,-0.0351414967648698,-0.0040634803136723,-0.00441283908276138
-0.0150902341248427,-0.0260393189023122,-0.000963678848718216,0.0322346238949237
-0.0157506522928149,-0.0171350141514172,0.00139201197267264,0.0701021630782735
-0.0228326868139985,-0.0150212998846098,0.00339377760324461,0.0958648643605999
-0.030349881285496,-0.0179922604873478,0.00303372198506547,0.0997442367368376
-0.0253658397686643,-0.0196164558568404,-0.000307761136918536,0.0795634107996487
-0.0174174556972309,-0.0257656640855916,-0.00559555130177848,0.0413033291028484
-0.0254194262842946,-0.0412227967258827,-0.0105954928036969,0.00227033958925117
-0.0316416627647708,-0.0457696519824139,-0.0088066765210056,-0.0218419299398115
-0.0167017163168405,-0.0312844817533028,-0.00202769200707769,-0.0405496368109252
0.00857995053655446,-0.0143577103171725,0.00161694823587505,-0.0720049343498437
0.0290838900158769,-0.00403353974725656,0.00307545684954257,-0.109489671141577
0.0392766119053985,0.00129156610796775,0.00609630953684288,-0.129715426927923
0.0365772757890425,-0.000509802574162027,0.00577180772633532,-0.11641711894747
0.0250646087525841,-0.00978201728278605,-0.00281729733758784,-0.0671322064777685
0.0111781374104114,-0.0186511674865913,-0.0134570139729825,0.00849656505532057
-0.00613002789024509,-0.0218637224051428,-0.0166564468171081,0.0905881970790006
-0.0107666691017358,-0.0160480891114074,-0.00990759895450126,0.151692207153415
0.00639482148891335,-0.00646124488026707,0.000246452680379799,0.165032443647111
0.00966467017783229,-0.00788430357268106,0.00271708130693937,0.121675995973125
-0.0113948118509559,-0.0154152354407822,-0.00302644446465719,0.044207768788061
-0.0186247978798173,-0.0143899181748837,-0.00717393530765218,-0.0339530104392263
-0.0068304305330225,-0.00799686270526899,-0.00582234749687081,-0.0970017577897276
-0.00363041776858237,-0.00899669028363004,-0.00404369575428909,-0.138328195900982
-0.0171834673560099,-0.0232500530837079,-0.00542183253783886,-0.146144947502691
-0.0402877406348905,-0.0367767882096866,-0.00626798907022459,-0.113342856181685
-0.0567271873646134,-0.0341708124434704,-0.00238400905529728,-0.0571683952770751
-0.0478994025815559,-0.0210306375807959,0.00538984686123697,-0.00890066153002064
-0.0205190997530108,-0.00958249069115496,0.0130533293800156,0.0188454898686171
0.00146187757514311,-0.00487955285832087,0.0154944065009732,0.0316958625765678
0.0109531997382476,-0.00177230328957212,0.0128957256360467,0.0355044744486865
0.0128282016072713,0.00400178421971249,0.0100797351587295,0.0299796625369375
0.0104201627893875,0.00719496478321428,0.00727656711981972,0.0173830033770341
0.0100428710928096,0.00861247705038442,0.00255539293281299,0.0166709793502576
0.0134292153334794,0.0117568280068425,-0.00456784316752067,0.0453536000774904
0.0212725680530781,0.00808589917024173,-0.0109575512251344,0.0869849358196902
0.0392891363219333,-0.00214649427404021,-0.0118432316295089,0.104157692622838
0.0535572422448957,-0.00628495222856516,-0.00609774224759064,0.0794641300127912
0.040160935923854,-0.00909430702677912,0.000105682704424374,0.0270485330737152
0.00479580270477313,-0.0230400012322887,-0.00551867071320567,-0.0233453426401167
-0.0254201303855233,-0.0419934924724942,-0.0205925001716267,-0.0473005622090843
-0.033160936996859,-0.0476312390911184,-0.0271529090183879,-0.0451275031038921
-0.0215373136914178,-0.0338025275222433,-0.01782257917026,-0.040251288245987
-0.00642563994278269,-0.0185192237408352,-0.00422453663007307,-0.0447662507887921
0.000443338079981169,-0.0149954061615548,0.00287369481732534,-0.0414765769553411
0.00527767298109048,-0.0117152189053208,0.00634819446351107,-0.0205476793335328
0.0113086909328922,-0.00589776535960618,0.00694119012781922,-0.00405475680419567
0.00539462899643378,-0.00545234239584605,0.0053206983525728,-0.0108474379597139
-0.0106174781106783,-0.00388687797322582,0.00653026617756093,-0.0294369355097728
-0.0180477797264937,-0.00293847174941201,0.00641669301558541,-0.0384222984911978
-0.017159918154799,-0.013822207653287,-6.78922079986319e-05,-0.0284179393373881
-0.0174747162578331,-0.0255466496396853,-0.00831709664025392,-0.000213895620982493
-0.0115363132426188,-0.02259427716491,-0.00996129780589253,0.0365012154022525
-0.00235997016181072,-0.0170074037767931,-0.00873322871323883,0.0652028469497407
-0.0141977497393379,-0.0202510948146704,-0.0120653361263447,0.0806791394481527
-0.0387054358686966,-0.01716759617054,-0.0133391877232031,0.0882164132540105
-0.0360938801731856,-0.00837300581983408,-0.00850946950070763,0.0829244660291043
-0.00959943448123588,-0.0148328861712608,-0.00566816583444279,0.057181583172836
0.00905324770368916,-0.024757810990634,-0.00860008748962238,0.0226464313471587
0.0140393192317795,-0.0160953813439866,-0.00848071390583256,-0.000307436130732926
0.0120372637806128,-0.00335144688168734,-0.00509260429229226,-0.0069779010959549
0.00358363421158303,-0.0026000937433582,-0.00604816478145356,-0.00546624979807309
-0.00577289563051524,-0.00353413223284199,-0.00679264457574155,-0.00140146190792305
-0.0103767336097254,-0.00176290633950623,-0.00431600633956668,0.00369720939435185
-0.0129640462035286,0.000267152957364025,-0.00215947162090167,0.00582284629765893
-0.0107675930207742,0.00517432916032816,-0.00108931319127978,-0.000541753331358638
-0.00799892407862152,0.00200867314167459,-0.00602901025963011,-0.0119772824643614
-0.0112502865785268,-0.0149019864951211,-0.0167036541879804,-0.0160014711288707
-0.0116116421203955,-0.0291954805356478,-0.022976775287323,-0.00737561005285809
0.000194995071351935,-0.029752011552401,-0.0216814472632301,0.00511698818555398
0.0208321342014466,-0.0208238997417904,-0.0160894391578823,0.0107798713545502
0.0440260648738483,-0.00779182628297226,-0.0104985126302287,0.00929484372341407
0.0513345846088212,0.00166696711263663,-0.00640913242392966,0.00781836303654847
0.0200124659248392,0.000408722875042209,-0.0020815937586307,0.00586615702788685
-0.0211839583736624,-0.00376090252513953,0.00187554431087106,-0.00347770535394437
-0.0349920493576198,-0.000594930479983668,0.00659110944050607,-0.0168410705750719
-0.044631651277805,0.00762950626168164,0.0114101407165059,-0.0253073692389086
-0.0708096873133595,0.0142550577526439,0.0101117375433504,-0.0268917623273028
-0.0849269773117692,0.0163219482473866,0.00238652330603312,-0.0232317534027265
-0.0656087873867436,0.0182513622852817,-0.00170058247113477,-0.0187895265279747
-0.0269094763438776,0.0243554055630225,0.0020318190413907,-0.0218792095527092
0.00421341522284251,0.0299965844352681,0.00502923573174262,-0.0331446271592118
0.0138666254258247,0.0325946077157427,0.00660529230661191,-0.0415799423113909
0.0162410026365146,0.0322367861123221,0.0124345445946528,-0.0414665093180155
0.0213944533287136,0.0237778395724685,0.0162265589821344,-0.0412609478940469
0.0187601899719245,0.00958478644473414,0.0110123690958112,-0.0461146844445409
0.00625722679828107,0.00389700767133933,0.00345213735234325,-0.0407464795815294
-0.0099114978800074,0.00961635393920947,0.000781552743696821,-0.00460624224932034
-0.0184497183970607,0.0119324197974686,0.000802833582975917,0.0549695911583728
-0.00248707504305788,-0.00686931707744131,-0.00412605143300961,0.0993844855191288
0.0163631107658901,-0.0439339202181925,-0.0192326511005401,0.0995091616998171
-0.00210853690122207,-0.0644264075237108,-0.0312610511482299,0.0637831015171222
-0.0444552412243432,-0.0433764233498766,-0.0236508481837907,0.0171047218413016
-0.075735567028277,-0.00323052886801309,-0.00598652866574689,-0.0238579777159598
-0.0854489885521449,0.0234034616061187,0.00655047022804914,-0.0507155482199295
-0.0754276997178439,0.0339154297917756,0.014366740997573,-0.0633427945070208
-0.0495809643330821,0.0347286073856712,0.0165533304194652,-0.072595474725771
-0.0208427319078914,0.0318606339121187,0.010163670356302,-0.0830448079901282
-0.00690887596618714,0.0420510891878659,0.00594315526530111,-0.0822923009424099
-0.00544180615495569,0.059440464298059,0.00594641376200175,-0.0628876409771528
-0.00229881413877964,0.0549610942264973,-0.00349830399828205,-0.0334078030048722
0.0135817752978151,0.0290630678840744,-0.0171189258919314,-0.00524975648217754
0.0495420157259699,-0.00360821014870392,-0.0169037729730011,0.0159226730176053
0.0876236188776582,-0.0363369653193271,-0.00145574726746624,0.0303186999641845
0.0900696282950952,-0.0489316672304928,0.0154164110018937,0.037231666251732
0.0533343694023361,-0.0359414576599708,0.0228391450243292,0.0289166838505955
0.00680398676511969,-0.0188651764800409,0.0242903520966777,-0.000143577893120053
-0.0292843981101242,-0.0055100083285778,0.0275355021602312,-0.039544536792422
-0.0428566308787644,0.00137641028545364,0.0251281277415351,-0.0646779607049645
-0.028296353659746,-0.00628368168913753,0.0114320684594241,-0.0535251372199711
0.00836395601895975,-0.0188665061874714,-0.000945620600940847,-0.00573135365112352
0.0496815043081179,-0.0257086694458742,-0.00604452550097105,0.052067655200998
0.0627346303841245,-0.0325607307436891,-0.00666889353216717,0.0863271550900585
0.0309756583026352,-0.0448792234148623,-0.00434063813554836,0.0824815233241636
-0.00813912535996134,-0.0599071174225096,-0.00640283659226867,0.0504304221855004
-0.0260145674288287,-0.070523673108914,-0.015611720841393,0.0176997125460311
-0.0190400082855318,-0.059473631151872,-0.0195483516695012,0.0102409632906604
0.0592365420994044,-0.0172535548084043,-0.0132952147085746,0.0240759482660695
0.184255411214534,0.0304814026937643,-0.0113728229096642,0.0319995454382786
0.229901916687991,0.0482582652659046,-0.0202970143566492,0.0242928247040504
0.165920767458029,0.0410163899937513,-0.0321407174240929,0.0135107099134451
0.0666356446855783,0.0428076256337343,-0.0365104311071091,0.00534391243373409
-0.0168395608048945,0.0528058423826656,-0.0229610001055658,-0.00847766271467874
-0.063968159182999,0.0488821973884721,0.00335029858757561,-0.0351547442111399
-0.0714473390732181,0.02858526819493,0.0216852805100873,-0.0674618090907195
-0.0573109579541603,0.00280066056306565,0.0256392557573384,-0.0861338717461713
-0.0308843165293143,-0.0156403649640241,0.0255680319980098,-0.0756851939452895
-0.0111742290985093,-0.0260628428464991,0.0236324223232374,-0.0435220237338436
-0.0157772005358256,-0.0372693709328224,0.0124955687535625,-0.0139458160396254
-0.0197978872149676,-0.044649633835885,-0.00390887070714482,0.0105126810158112
-0.000367379319606106,-0.0299580214172906,-0.0105853486299272,0.0473778621339864
0.0323154850288883,-0.00484001507307749,-0.00679563385387628,0.0859892225537478
0.0534907266862747,0.00375412444812503,-0.00553584308554901,0.0948983777912073
0.0575171089823208,0.00333128752653218,-0.0116277713211032,0.0753341964426208
0.0551080116336278,0.0112008366690487,-0.0183978517944652,0.0551867300287143
0.0375126595847472,0.0207016718064686,-0.0209931172999504,0.0418861968760191
0.00307165362546967,0.0151436359916171,-0.0203355041717261,0.0272206576559811
-0.02234549241882,-0.00287291641056996,-0.0170889257310407,0.0129755192868182
-0.0361873692839019,-0.0121217814704472,-0.0112061015530252,0.000173410931613965
-0.0462192971358538,0.000523250531111769,-0.00290421715872736,-0.01475708531292
-0.0334728054698842,0.0237735930449691,0.00484708377731576,-0.0306075500830041
-0.00371515297492125,0.0356465919347119,0.00652984332038232,-0.0441287529883666
0.0180144396768614,0.0332428491975179,0.00141449944887764,-0.0486526436087158
0.0316064174263003,0.0303111258020425,-0.00556181248466531,-0.040221577175698
0.0420402627373595,0.0255505121354693,-0.0138949128508748,-0.0283949116877724
0.0536136213833186,0.0124920385263107,-0.0215101871343089,-0.0195678559850201
0.055751113662666,-0.00387573830894439,-0.0205106447270339,-0.00478887092722442
0.0178455496579099,-0.0193955335020613,-0.0142141682257848,0.0187567293614108
-0.0463929568114252,-0.0284938871176748,-0.0122830806140217,0.0394659788415147
-0.0870399257861177,-0.0243623091565217,-0.0113166272524024,0.0469833786664214
-0.0901307300961101,-0.00697253468515227,-0.00351049142955052,0.037124072456586
-0.0775831696946835,0.0140565636711227,0.00527911405533406,0.0147782337959038
-0.0663739946700941,0.0281851266706801,0.00818582689717629,-0.00492055955398382
-0.0513677437486093,0.0320388814011996,0.00622290812696737,-0.0134536811656787
-0.0305714403765828,0.0283122030899536,0.00133546183169789,-0.0149485832209987
-0.0151347813407888,0.0255057884798434,-0.00157907823776157,-0.012206098552266
-0.00934579127939176,0.0257648415619924,-0.00166881760210746,-0.00411081576119556
-0.0111065592681575,0.0231601645271565,-0.00306627392657067,0.00744567300249024
-0.0172993104715445,0.0127639038657401,-0.00654749024032934,0.0167028256313524
-0.0158167232107456,0.00021655160784035,-0.00833484117393911,0.0187185528409777
-0.00223770713853552,-0.00219100750118081,-0.0056698187031577,0.0143899386987813
0.00726577550784549,-0.000687091626160579,-0.00506066973637102,0.00926874297134747
0.00107900262903568,-0.0110783450986478,-0.0122055192371421,0.00647084224195726
-0.0220617520885072,-0.02850382100058,-0.0183002652219757,0.0057886556484565
-0.0407485796620078,-0.0295809252790984,-0.0149866326690407,0.00860213029483591
-0.0291100872197985,-0.0128771998627896,-0.00633209283001628,0.0135795310799732
-0.00326234438181143,-0.00572360818955574,0.00113546146732732,0.011469896643544
0.0100699180346587,-0.0160892218542331,0.00428900669817038,-0.00296363913111789
0.0100365819792837,-0.0230730375506158,0.00616739456694925,-0.0178580778825545
0.0129604022178189,-0.0154701872140756,0.0105714701884277,-0.0199214630914858
0.0231791591446339,-0.00269416081902697,0.014636876778259,-0.0167248037070286
0.024542146183031,0.00544384331031111,0.0154446389249351,-0.0226655504688477
0.0160355584286024,0.009917986275712,0.0140710285879985,-0.0347600209062962
0.0119701237376012,0.0093838974266794,0.0101216214776662,-0.0400422522906478
0.00773447750905127,-0.000122228400023175,0.00356711281719892,-0.0372600316047689
-0.000574861491274899,-0.00905197372000433,-0.00278230234277086,-0.0380084163342255
0.000972747547626562,-0.00862487265233048,-0.00870444458308256,-0.0440879469310931
0.0127729475816654,-0.00218202433304677,-0.0100188646832636,-0.0431769596588298
0.0231129950206106,0.00217919506124406,-0.00167099189865847,-0.0299429171376166
0.0277892349943274,-3.95955733547108e-05,0.00731131453839707,-0.0112251636579534
0.0340185188919529,-0.00312785565380173,0.00774181221400331,0.00767854640124228
0.0473189917250355,9.53782113703658e-05,0.00335549574083889,0.0308456071034104
0.0547491357751121,0.00367287822612112,-0.00382180924380528,0.055888744227157
0.0462111513651947,-0.0032643027298573,-0.0162692094372421,0.0631563871578773
0.0214870227393837,-0.016571359571422,-0.0292447880884659,0.0439193105011269
-0.0160460238455629,-0.0242393283985796,-0.0307330205846611,0.018104417804908
-0.0362759652992199,-0.0192838158557479,-0.013723966764647,0.0112655118414384
-0.0292489905941652,-0.00508588466783166,0.0122892052044876,0.027193238019619
-0.0391044623015679,0.00161631993742229,0.0276359440597953,0.0408022348178042
-0.0738204822230933,-0.00489634480120374,0.0234535062875804,0.0243941648546454
-0.0910984966626753,-0.0131205566631587,0.0128941365140101,-0.0181510657466773
-0.0726592026569191,-0.0146233696801576,0.00805498603679546,-0.0591108972614992
-0.0319109204841967,-0.0032156303026854,0.00582502797173626,-0.0792165844983879
0.00950664655788502,0.0182477659426482,0.00601895610256462,-0.0736637882948039
0.039618859125627,0.0315527981544349,0.00589461747706336,-0.0509768590854493
0.0577666423461152,0.0325168804939856,-4.54816565043752e-05,-0.0324004400196072
0.0617817622910025,0.0329624984553114,-0.00594801422192972,-0.0285012571649831
0.0594481085090482,0.0302303401908336,-0.00901720563110758,-0.0270920991247032
0.0485936266185346,0.0188158815786035,-0.0112778002243539,-0.0110757398818355
0.0109465105533947,0.00297557830983872,-0.00941126961404007,0.021133355891327
-0.0366932016278517,-0.0125683366623783,-0.0039361908020473,0.0564329804685648
-0.0560987955638483,-0.0186636058869858,-0.00148048709443933,0.0743568547010307
-0.0343124778001464,-0.0123038760827746,-0.00421622919989666,0.0587143249512855
0.00747954248752887,-0.00891290949658561,-0.0082107570566342,0.0190598340435624
0.027033630796907,-0.0200211400276107,-0.0109245638857602,-0.0197909637754283
0.00828859249496286,-0.0320957170052678,-0.012630211793151,-0.0415800381619758
-0.0242264547876612,-0.0275419213496823,-0.0109008537593604,-0.0351958307256488
-0.049300464369706,-0.0148760412172882,-0.00503390479646783,0.00140380749072642
-0.0606509172049811,-0.006234803683042,0.00337842716652026,0.034392675978451
-0.0527727583315333,0.00398585368052485,0.0123462261369217,0.0248018373698054
-0.0271420200134246,0.0154695195002329,0.0138059513901044,-0.00349390533253632
-0.00972468635171854,0.0168654012363727,0.00404678636741857,-0.00489480897864459
-0.0217404526236534,0.00978727798753219,-0.00644549833018312,0.015575684921583
-0.0348369320887312,0.0100740770522345,-0.00707123289465976,0.0261700940217505
-0.0222819786763173,0.0124170097834817,-0.00487434985050718,0.0223272774436788
0.00293863806770106,0.00630737992825964,-0.00754738026175653,0.0309262292131088
0.0248934524921868,0.00093321349167981,-0.00854035461185445,0.0441800790943391
0.0333880237418259,-0.004084947472761,-0.00798284670370279,0.0164129005562397
0.0271209787544139,-0.0122258809632292,-0.0129666174507447,-0.0317341822498475
0.0181610639293256,-0.0127996049250087,-0.0188574945076232,-0.0301947332234477
0.0212705203063387,0.000941072294173756,-0.0142853159721554,0.0230523817247377
0.0286239615458021,0.0165536833330613,-0.00199884567737787,0.0726691224075193
0.0161498755778784,0.0227522479191079,0.00573381858657875,0.091334027551871
-0.00662923257734506,0.0248401569870831,0.0068735489782773,0.0847201016254467
-0.0216559225690897,0.0224487477757779,0.00524123261246592,0.0492084982185596
-0.0271373756705626,0.0125281552618274,0.00559629783187906,-0.0207727102312298
-0.0160259307509484,0.00467403473614779,0.011628236077916,-0.105074170761283
-0.0037629778959096,-0.000531357546283903,0.0142629304912807,-0.16247471355965
-0.0116701684524683,-0.0129234069282797,0.00377622237156905,-0.15822515421558
-0.0273918678169761,-0.0288191586088055,-0.0141253889593726,-0.0941280949527944
-0.0402512319478678,-0.0431008176329267,-0.0294903478628745,-0.00443152531704671
-0.0505821092927657,-0.0517232639073568,-0.0358637993986366,0.0682375544629871
-0.049201223265584,-0.0368991160763762,-0.0296351926878781,0.0972451143874714
-0.0243796486296786,0.00791048356640935,-0.0103115340419274,0.0893513306085795
0.0135724003010591,0.055270056982499,0.0129755203934967,0.0581860401451456
0.0303924737906827,0.0655231251932576,0.0209465511721561,0.00706627585966384
0.0213001505039642,0.0291671255882649,0.00578673644256417,-0.0451698122757571
0.0130507165863883,-0.0234125118272992,-0.0161395892672762,-0.0660563037024736
0.0175311128570088,-0.0558584415625528,-0.0234982791436039,-0.0452992610866991
0.0303635426484195,-0.0551370688783557,-0.0128813674869358,-0.0105258787036424
0.0369001200886011,-0.0348128023882443,0.0012797190151493,0.00930174112427585
0.0261722445120973,-0.0210364905896914,0.00252028130832883,0.0270596300258505
0.0107064601734739,-0.0195442384716808,-0.00834184744505241,0.0670756807812725
0.00721517474484167,-0.0140835902643037,-0.0173779741258096,0.111011469258328
0.00776799560955875,-0.00545496937596174,-0.0194077145169444,0.114310017606396
-0.00224761348228386,-0.0065925746822027,-0.0186413893245466,0.0658412696679156
-0.0125971849328264,-0.0156195602973327,-0.0181652292948346,0.00076948201217597
-0.00413099665943854,-0.017606526843379,-0.0144252328004936,-0.0476705234163082
0.0151615751969688,-0.0131700476643874,-0.00813472695305911,-0.0772183736000989
0.0138359361201163,-0.0170025255374731,-0.00535599141736736,-0.0987140573377259
-0.00936877857515605,-0.0188526733989434,-0.000410724291192467,-0.115569082395269
-0.0207283081231181,-0.00878342436687442,0.00657832981424292,-0.120570865895436
-0.0168327162616493,0.00264622779613746,0.00532707531283126,-0.105338189134712
-0.0169208448614241,0.010687558784099,0.000330008584570726,-0.0626986142792144
-0.0135556975049643,0.0120441390075399,-0.00388590358898134,0.0093326249241758
0.00514407399187073,0.00324128377495806,-0.0153022141513522,0.0885589424755792
0.0390927448619486,-0.0118935466847554,-0.0299067458354839,0.140410849428094
0.0697541737282849,-0.0238919482332302,-0.0311359886768161,0.149221076203333
0.0634791334931127,-0.0254666726533234,-0.0182807688331015,0.121683354392012
0.0283572355164196,-0.021333393123616,-0.00723054397351368,0.0733401103283466
0.00128606504139303,-0.0188765549097379,-0.00496424531938631,0.015498386327626
-0.0201788029921643,-0.020934993809185,-0.00517631212311068,-0.0395700834152984
-0.0585244467919108,-0.0305106946081172,-0.00652290359322039,-0.0699144219023931
-0.0879035143189306,-0.0364174089769672,-0.0112622194856162,-0.0600014292497327
-0.0687849030642631,-0.0217768330135601,-0.0128167474252774,-0.0277752891146306
-0.0313891613519613,-0.00259449751872828,-0.00889929614972067,-0.0140506896584677
-0.016014485771998,-0.000644875428050383,-0.00635982788155826,-0.0336921153626079
-0.00191017126485404,-0.00503327484327683,-0.00519802784911744,-0.0656654547984869
0.0314199555207556,0.00169156595878099,0.000114412511373013,-0.0860383401517753
0.0606876828747832,0.0177893111833762,0.00928175643409709,-0.0822065314306174
0.0648853344052701,0.0255345876646141,0.0160388703448054,-0.0498289443639271
0.051005233214381,0.0109900956916362,0.0120892492793032,0.00325191738612013
0.0311353889253676,-0.0217066975632008,-0.00359559292461421,0.0636806017711855
0.0205049909833057,-0.0534562853754069,-0.0196227526773247,0.122874302335196
0.0192995518533187,-0.0651422514405412,-0.0247483936017362,0.156072266227162
-0.00409871955753679,-0.0535547487215556,-0.0179860953070655,0.128673398489195
-0.0380649659983081,-0.0285560076343544,-0.00582999569671676,0.0519320279207757
-0.0476018652975452,-0.00523878134851155,-0.000223935815659446,-0.0242011862684189
-0.0613853797241515,0.00116285183405042,-0.00862778082009082,-0.0680462467088114
-0.0817954429798764,-0.00161948546130884,-0.0186589694101381,-0.0791027014118276
-0.0780920096212946,0.00190841348560638,-0.0204186025988972,-0.0756692980939473
-0.0630768703984265,0.00750343433667917,-0.0196066873759332,-0.0709438850431556
-0.0453723048744953,0.0114837690361037,-0.0183038827696938,-0.0549239315492003
-0.0201345328833203,0.013417860592177,-0.0175795687814283,-0.015285595762514
0.00647665094314477,0.0119278939481092,-0.0173875383570083,0.0341879932314368
0.0241652971631773,0.00903787575147011,-0.0137777506687435,0.0625634099561326
0.0205612660028341,0.00416116563462698,-0.007868074863772,0.0570148344690337
-0.00258936877485917,-0.000212051823342105,-0.00477029066341714,0.0286097852541676
-0.0312321496793289,-0.00260685329415023,-0.00362034631515291,-0.0033654801208569
-0.0457232458775637,-0.00895767044728532,0.000326476373112904,-0.0209398944742903
-0.0284590393242604,-0.0132207110551932,0.00533420235010574,-0.0221836018977172
0.00382074220112959,-0.0131558713044355,0.00740093599064741,-0.0197720277174983
0.0238306602368993,-0.0184697034256835,0.00492803253866791,-0.0195622496711339
0.0267434594115677,-0.0212922859182534,-0.00222184119621038,-0.0193414469512783
0.0195264470154849,-0.0143901386850953,-0.00978265743359608,-0.01660546467843
0.0114530578026109,-0.00463970872910031,-0.012199325624219,-0.00581299564440169
0.00633293032729113,0.0033509393063599,-0.007498934914016,0.00943600747138209
0.00434668304879014,0.0133159417073229,0.00584746360367704,0.0111433660515561
0.0144788452190337,0.0251039078552986,0.0185035500751945,-0.0132651702680129
0.0329826843045889,0.0227414283328496,0.0160030694858265,-0.0602793670661695
0.0288084040461793,0.00277272559717365,0.00240032335596051,-0.110122902049884
-0.00290271424896506,-0.0165001522546929,-0.0126797638645867,-0.13323731171609
-0.0392066928541805,-0.0219440872902508,-0.0242494103533343,-0.105720203029258
-0.0748271115761379,-0.0174531907547431,-0.0327207433881773,-0.0259807694445627
-0.103424025348573,-0.0117031773759957,-0.0414238249943386,0.0751528843226743
-0.107665601614386,0.00166306032401342,-0.0367512027125728,0.154002163679859
-0.0888325176949452,0.0260180288258451,-0.0132783007516805,0.187297660293347
-0.0690925957286307,0.0446588411843196,0.00577178688321485,0.174501480649811
-0.0613736249817502,0.0486356936661268,0.00839340885520696,0.119245368077518
-0.0608948325934399,0.0420174681279796,0.00227152415648838,0.0350217137142743
-0.0509464679942166,0.0270550965185894,-0.00510386623030209,-0.0387795536572419
-0.0107773828977265,0.0108536890237334,-0.00870871573330637,-0.0667710066985803
0.0433273592267295,-0.000596176467308633,-0.00856943165971492,-0.0618934716635778
0.0734618158439578,-0.00359939484361211,-0.00541897655801572,-0.0574515380884023
0.075120332640146,0.00491937702316924,0.00223976271255727,-0.0580999498766447
0.0750652765975507,0.00965690518625197,0.0129138895457589,-0.0581801581267671
0.0903528487182224,-0.00299438786451774,0.0200987723003494,-0.0632036100557706
0.0998630029754863,-0.0173058736562914,0.0182176710012026,-0.072217106442708
0.089384358159755,-0.021679117864929,0.00781836659597765,-0.0754827193642249
0.0742314245657708,-0.0255657627036829,-0.00674911672560643,-0.0647950788906485
0.0601902269791776,-0.0263049255562522,-0.0147317581933308,-0.0331402512079368
0.0366234446645362,-0.0140758236649026,-0.00877189667723734,0.00976777416669719
0.00855141312538565,0.00651321055182037,0.00403360216279934,0.0344936600524401
-0.00681422598847438,0.0225549835247968,0.0117971750839046,0.0220964439220114
-0.0233897167141656,0.0237448851760052,0.0100099425587453,-0.0149784953229495
-0.050573101450484,0.00632331819971586,0.00482035210243701,-0.0403481566434139
-0.0539375579249773,-0.0217989901026224,0.00290415187685001,-0.0373081123166429
-0.0245407748650613,-0.0411575785080263,0.00107322082931215,-0.0316226792479576
-0.00154024951271878,-0.0386879693369392,0.00155334811759282,-0.0396835168705751
0.0102977380197586,-0.0171524538833877,0.0122829426544426,-0.0292274398753987
0.0371870526537606,0.00265683843471935,0.0173168620963293,0.0243370662740835
0.0646284655084626,-0.00191108762026959,0.000847735302815811,0.102951548776216
0.0671455791541378,-0.0210723170769348,-0.0186301841526287,0.182339362355288
0.0441694623152738,-0.0269154416664624,-0.0219986198786868,0.227315930970549
-0.00840048112915923,-0.0168085259238569,-0.0152785658249528,0.205412746527565
-0.0787805078766515,-0.00941270307229019,-0.0063026728777051,0.129728880899573
-0.112287942164917,-0.0106615788183073,0.00551887797664581,0.0326012903306064
-0.0836578333760727,-0.0109784498864845,0.0188884747449464,-0.0605842543773899
-0.0277198936356768,-0.00497615712522247,0.0292485704107049,-0.118102313018032
0.0255239773580168,0.00100635838800201,0.0299605787293818,-0.124316878287502
0.0576015961201703,-0.00842537182083591,0.0195764711797545,-0.107003722081631
0.0576103394879667,-0.0372649963512494,0.00199405466811505,-0.094858313402647
0.0444212156207521,-0.0631809909901069,-0.0170493166222338,-0.0810564379778003
0.0321719344277892,-0.0563404761345866,-0.0288535646473184,-0.0533148539601393
0.0234936441029705,-0.0131638419065594,-0.0273930508559832,-0.0232820851444195
0.0527617727915439,0.0246508601225511,-0.0131290521348723,-0.020920543907025
0.149908022230252,0.0112705110866988,0.00406472241741165,-0.059085332721753
0.26789309290178,-0.031545056598883,0.0132251706255221,-0.104043465115124
0.303640039342046,-0.0545270726366353,0.00934964593398701,-0.102291184501727
0.204296869661698,-0.0582722496626702,-0.00678493114787454,-0.0290401203159011
0.0179867898541081,-0.0553899473628131,-0.0207892018498614,0.0938130186156289
-0.151247909926136,-0.0426992066489936,-0.0202166503815514,0.22485743127959
-0.215241288974922,-0.0221543798740786,-0.0120862420733197,0.324465557404727
-0.174992936685025,-0.00298393038932351,-0.00636996704409453,0.336703615791291
-0.110104293735081,0.00900846449966498,-0.000930045354333754,0.233094470476881
-0.07368143735068,0.0192773980391512,0.00716124103516838,0.0745131416208601
-0.0512901472283726,0.0256223973096015,0.0101398676330035,-0.0505630033338663
-0.0202396866679819,0.022509638846685,0.00366184105871283,-0.107634698168638
0.0229582461147553,0.0195358046389786,-0.00272410306479615,-0.110695970198551
0.0617251465608823,0.0165650153826152,-0.00658000150137148,-0.0909523532293563
0.0726571956768483,0.00192145517928643,-0.0164284701862505,-0.072834423193027
0.0637634023763784,-0.0278523906312863,-0.0274670579491249,-0.0596674157240236
0.0490680234417849,-0.0530545130139616,-0.0294809804618613,-0.0420172269706696
0.0283797332735135,-0.0436664374753616,-0.0231635101158275,-0.013004650197292
0.0156786903219778,-0.0124859889317613,-0.0148579174910723,0.0226377551604634
0.0203579521534831,0.00923405538193134,-0.00917624661634007,0.0493449591961807
0.0195773315913863,0.0145869978099626,-0.00542995190980344,0.0536859574055515
0.00572434343229528,0.0116792744035272,-0.00411747045460428,0.0356860395710367
0.00182003107807373,0.0109421629916465,-0.00641041714867573,0.0085667689457092
0.00771771329853677,0.0134044980262957,-0.00620254565111739,-0.01191693638606
0.0116860005266472,0.0165242442078499,-0.000563587549330073,-0.0201862558979653
0.0150603624219257,0.015580564414461,0.000666657650127503,-0.0215696933522469
0.0210584403617288,0.0122425025538101,-0.00386674558032528,-0.0217237710311689
0.0268004659041809,0.0132051732481593,-0.00826108019740247,-0.0238340476516467
0.0240677001905356,0.0131835425204938,-0.0162357663349435,-0.0276374602946231
0.0271620854223159,0.0139199158019812,-0.0218729119676933,-0.0242270372422579
0.0487907336209693,0.0222719974156637,-0.0157479648335899,-0.00665813195026393
0.063234649640273,0.0318535646700472,-0.00288917529011523,0.0184146129749309
0.0444444607979439,0.0334858129935979,0.00664867338581409,0.0377975134366764
-0.0159724712743228,0.0173638279246897,0.0025313603891238,0.0417345872547186
-0.0844809545254509,-0.00572571011913979,-0.00765823205492633,0.028093399950142
-0.0916705912327911,-0.00528380664771049,-0.00413285866605474,0.00183539273823103
-0.0342805999311874,0.0141754979274563,0.00566538346360942,-0.0292528828188006
0.0123162940750715,0.0208873698055295,0.00402249334658089,-0.0529242791642545
-0.00633037314812004,0.00285049439271027,-0.00676774025423456,-0.0582169177308338
-0.0522542658631109,-0.0238828843448072,-0.0158437832682607,-0.0506922932852079
-0.0422811292748475,-0.0356403949645691,-0.0168485593093628,-0.0474884361318263
0.023031653105847,-0.0327134169845787,-0.013509255097472,-0.0549896798534448
0.0678627050873493,-0.0285806429231155,-0.0122673332922247,-0.0585844076276606
0.0723869723460923,-0.0197717415558422,-0.010393841171454,-0.0444138181482024
0.0644125121726583,-0.00243316608818455,-0.00323154224438489,-0.0232855834061997
0.0449685671513973,0.0196403483974374,0.0109046340212874,-0.0119426745558373
0.00315132682358141,0.0397284221357021,0.0281154436378635,-0.0126681282076561
-0.0485083814490242,0.0455531739766825,0.0339275442587731,-0.0244211479166454
-0.0671685773461953,0.0413381463104113,0.0236304262099567,-0.0422408431910159
-0.0365583321270627,0.0372206160931252,0.00912044663127384,-0.0548001996655264
-0.0111974626189019,0.0244348085372379,-0.00298840599453824,-0.0573354407748011
-0.035797431504798,0.00558547346585738,-0.00919380153672601,-0.0422442818265891
-0.069928552331958,-5.82304785345725e-05,-0.00507404169155117,0.00365207169497569
-0.0564648880027268,0.0101689176798011,0.00491866647463216,0.0645936974870157
-0.00723004465016197,0.0248405318048793,0.0139280062534447,0.0924268301247746
0.029521953879818,0.0313796809036833,0.0157602897373067,0.0579003006892884
0.0370335032070173,0.0241973680532302,0.00966894964463537,-0.013860043938918
0.0360181645058853,0.00884944542445745,0.00472317412617427,-0.0749086885377798
0.0384437738383023,-0.00874718185339882,0.00329940010148043,-0.102203646991049
0.0206030603827112,-0.0286539140278447,-0.000696222897152239,-0.0956760439123999
-0.0274990204598854,-0.0468693371343339,-0.00540855679207073,-0.065689968111042
-0.0710677859345426,-0.0461648497498776,-0.00242870514658174,-0.0378709107458021
-0.0770468892981279,-0.0249926231257646,0.0066718174749868,-0.0351498469461857
-0.0551758890709661,-0.00596076103349119,0.0103819113711159,-0.0434926267088271
-0.0310976738219323,0.00586199133439999,0.00427701894052379,-0.0243815524247072
-0.005042477115663,0.0219027441059951,-0.000938717949486025,0.0245455524681874
0.0219463190711396,0.0419515128048841,0.00499150825567965,0.056761213670643
0.0395754063432473,0.0552804668410735,0.0139610330144916,0.0469593454225856
0.0600203001217089,0.0597061788713559,0.0152929140326993,0.0352084589806113
0.0791784966680216,0.0561243137017703,0.00779870898398011,0.0656416639868845
0.0567108348349021,0.0313916153856195,-0.0078378555568393,0.123018141153668
-0.00104971675707202,-0.0037688260999554,-0.019504538362877,0.16987162123517
-0.0386355777583152,-0.0110964751693173,-0.0143846216549359,0.185976428379327
-0.0489874071259084,0.00545751197489215,-0.00266419208100751,0.145915850533851
-0.0622271268775456,0.0117465542189731,0.00290891558822531,0.0377548170769243
-0.0732822262149915,0.00485842124799571,0.0061281932194329,-0.088455030244966
-0.0667510610156405,0.00128806115232214,0.0116615706655757,-0.162603115812418
-0.0501995968353934,0.00188597501672967,0.0145637491195302,-0.168368556501793
-0.0249102473321441,-0.00106234513813406,0.0125285109453806,-0.13368598978567
0.00781070125391344,-0.00219647851250025,0.00828672902952576,-0.0840650676376994
0.0316605230105099,0.000537459543605483,0.000944613958775552,-0.029431880173496
0.0395888284724282,-0.00646171828782087,-0.0111295478293362,0.0253036550010987
0.0400834567794087,-0.0252760041060394,-0.0271326935304727,0.0731616635037523
0.0345922109481646,-0.0333866765391133,-0.0364416115279822,0.107992128718273
0.00877686910665331,-0.0178213809208016,-0.0286485632325269,0.121395096708568
-0.0384426001714443,0.00623062188685378,-0.0133017072914588,0.104835866183563
-0.0688812088601479,0.025627031076165,-0.00052456918895611,0.0717472080221132
-0.0474356239069582,0.0435220584087575,0.0130917897628314,0.0492268956409761
0.003489237183965,0.0667299153701417,0.0272930597161012,0.0404924260632911
0.044193564200262,0.0883505479471188,0.0351396630429952,0.0244397250415787
0.0538860936653259,0.0897818529956287,0.031845002226662,-0.00720215729184278
0.0229169765759795,0.0701244998486403,0.0207651969476241,-0.0322182851326163
-0.0225376977291021,0.0498893402759234,0.00946024734797366,-0.0256411834168054
-0.0426252455386682,0.0306087730645148,-0.00532824270263536,0.0105668850017247
-0.0424693486519089,-0.000341142882414006,-0.0241515415631232,0.0551080715920202
-0.0412838540790792,-0.0303533483651641,-0.034580317338488,0.0841960282231957
-0.028413895653756,-0.0406753710899274,-0.034647373097633,0.0756061716230683
-0.00562206978956491,-0.0351922386336458,-0.0295846371486917,0.030998297978822
0.0118865548187934,-0.0333447955512121,-0.0206335044529316,-0.0146526415568351
0.028078955134012,-0.0345256889548616,-0.0111827152074239,-0.0341460700403331
0.0350146512885772,-0.0258702320266297,-0.00588896793036833,-0.0336598834431228
0.0208308857226463,-0.0167489381371663,-0.00615141492665914,-0.0304440639923528
-0.00566006319805507,-0.017324763867289,-0.0098408788960104,-0.0293351957430285
-0.027846897876261,-0.0189765958562217,-0.0121465687391114,-0.0274762090859226
-0.0252244994304067,-0.00726678225664266,-0.00535465911586825,-0.0271556920096568
-0.00326442641263749,0.0133398545935905,0.00825067796577271,-0.0332618052899084
0.00777037595942748,0.025797138891695,0.0151587639705963,-0.0440628213913146
0.00259742321602002,0.0283984823459647,0.0117824209195685,-0.0498183659957167
0.00323763681618152,0.0298100692167124,0.00585294970246301,-0.0394821474105738
0.00834403048641144,0.0284685179397636,0.00317727945678161,-0.0140481906588107
-0.00683999489557472,0.0163910588197699,0.00208322523919471,0.00795958320029472
-0.0334299380639961,-0.00178318027961659,-0.000610295719562667,0.00988148737454926
-0.0465394736988973,-0.0168523884890482,-0.00513577330149884,-0.00609121592580705
-0.0478430764223546,-0.0273693814630044,-0.0140129222530559,-0.0277697635777913
-0.043612771458603,-0.0284926853520284,-0.0218220381233133,-0.0461813339830892
-0.0263344200644911,-0.0140845476903082,-0.0166174757764994,-0.0573014377757288
-0.000625853044785726,0.00533743920276732,-0.00541093464953751,-0.0543504152802127
0.0184176202478478,0.0171431548114004,-0.00262952805884685,-0.02465198066419
0.0319610102534523,0.025840367474268,-0.00327395554252318,0.0331649209679498
0.0371812066522992,0.0266538442284896,-0.000692995851036477,0.0880362211519459
0.0218187690626791,0.0066715264412821,-0.00151210648104814,0.102588451108245
-0.00201097677193315,-0.0192138252921691,-0.00528214968948315,0.078591663587859
-0.00971963665103243,-0.0281505899226122,-0.00371615313346094,0.037254578125281
-0.00518305275281327,-0.0253261141051462,0.00152563464429781,-0.0125772347718037
-0.00549453991338804,-0.0246509823562958,0.00310616587304863,-0.0598188466710034
-0.00436198626828125,-0.0209960311163055,0.00343314724857488,-0.0869388220162678
0.00542193493588989,-0.0101881208431251,0.00579116600297995,-0.0910814776759492
0.0113365058328394,-0.0040939430746892,0.00604973564027612,-0.0882079022965539
0.00416794436499135,-0.00742925996743352,0.00497292586538859,-0.0907214404580607
-0.00614772278506724,-0.00837282021070998,0.00495028430881462,-0.092352718022367
-0.0045739049687117,0.000724271072588746,0.00806640538257526,-0.0814153264211521
0.00443965779180047,0.0120413168680873,0.0150143414049724,-0.0525814771100873
0.0127173213941787,0.0185258317283492,0.019960289313663,-0.000606854838665044
0.0234869804534128,0.0192036521999882,0.0180610260734897,0.0697255697410597
0.0257148142418283,0.00721890016498897,0.00728884341823304,0.124616275972723
0.0104640322111159,-0.0180888222533831,-0.0102024584559854,0.126536738655189
-0.00210307478825908,-0.0347070721755368,-0.0233189290965418,0.0798802678509208
-0.00433865341886232,-0.0234941124076218,-0.0204909895164645,0.0204701663536983
-0.0118700034970279,-0.000635381437828906,-0.00831868055747055,-0.0257573540545078
-0.0189881675043142,0.00725361637614053,-0.00323187147063614,-0.0462182587288687
-0.00931908444277976,0.00303805969013768,-0.00441576872058625,-0.032982074448835
0.00607194542897394,0.00149696401482342,-0.00281466163399049,0.00457854763380529
0.0112896184279898,0.00380076764925091,0.00197740879499369,0.0435341745807947
0.0139136798409769,0.0028280353102582,0.00510237058941222,0.0630466911994361
0.0151412792962996,-0.00739994000960096,0.00203036097711518,0.0463944870147591
0.00381753331956714,-0.0229243103960438,-0.00354701471347628,-0.000710924444881342
-0.0139552706431988,-0.0274024932992292,-0.00173470858487053,-0.0475365948112676
-0.0251059693077423,-0.0154786788289926,0.00697993483962644,-0.0715133465719275
-0.0183777398463076,-0.00124756076065353,0.0112712261502483,-0.0645086723928353
0.00363763606548666,0.00932799321603309,0.00870888039780428,-0.0247727441086808
0.0135501433101815,0.0137871945312876,0.00523716852464874,0.0259280321479534
0.00226130784724503,0.00981274812939763,0.0025795534409747,0.0485583851409875
-0.0091564842190491,0.0115784919674963,0.00146579771809093,0.0333877326022844
-0.0115223387880598,0.0247588150379365,0.00322230563500449,0.0040687528445931
0.00158462218654245,0.0351985762889713,0.00448582023969086,-0.0163954276145149
0.0415470564360569,0.0306274618430098,0.000201275726862483,-0.0106969214601465
0.0855608548691473,0.00672097719555116,-0.00602369307532066,0.0127578669521225
0.0980950189338835,-0.0232277181567111,-0.0066143024179349,0.0157743859063657
0.0726640166925186,-0.0285296878933991,-0.00136231062689992,-0.00552805654496727
0.0291812104659227,-0.00764557597030509,0.00468501198178762,-0.00799584244767277
-0.0122588383148405,0.00513286421877482,0.0062385740848516,0.0248130038284143
-0.0432920057067739,-0.00410568086638614,0.00225677712459625,0.0588021624191272
-0.0397619180279055,-0.0192743329879482,-0.00293194353128292,0.0714808680465105
0.00376839122148274,-0.0207068283011564,-0.00146258997511559,0.0637986319981765
0.0231280936799384,-0.007451565193144,0.00666051960061133,0.0191429830591543
-0.0171706221936296,0.00451063577360188,0.0104439276650418,-0.0597027958710178
-0.0638848824430669,0.005393259924319,0.00250362808162169,-0.115303561783118
-0.0615487898250606,-0.000480897497941384,-0.0106869405494864,-0.0986407322143603
-0.0198039569120481,-0.00117096919780728,-0.015112248023752,-0.0226311336410945
0.015494577457847,-0.000680282884820655,-0.011043689808885,0.0589430716095482
0.031055309074935,-0.00421448621831983,-0.00801443416272945,0.109744934067305
0.034775341658749,-0.000379028164349423,-0.00694141468431469,0.125466696897368
0.0277577804421181,0.00677620323757464,-0.00658352575355171,0.100166742740774
0.0123202383030691,9.26521023143223e-05,-0.0105535337686016,0.0433585965723182
4.17259032172261e-05,-0.0185614851644406,-0.0167988954691624,-0.013247247342817
0.00179115169965098,-0.0327316177874902,-0.01830864417596,-0.0695157521951517
0.0107575834684439,-0.0317586095081842,-0.0136446718349538,-0.133007190460096
0.0156224019415261,-0.0125603797666461,-0.000396530926556171,-0.161422186237553
0.0100110709625029,0.01629325239745,0.0207684576800192,-0.114649940081886
0.0018149731552203,0.0328615189211231,0.0338749478848101,-0.0171142645140901
0.0139078410150029,0.0282189697296516,0.0274337631003883,0.0721919146247748
0.0401457083881898,0.0170649808961276,0.0115440570501372,0.12135205898577
0.0450809233154371,0.00600594136072976,-0.00295174779308844,0.132523262314797
0.021815229050029,-0.00890128300995613,-0.0140168035836898,0.109602983663207
-0.00375026737392219,-0.0143415982604796,-0.0159898362719027,0.0633814524661814
-0.00866597442271326,-0.00106381273853532,-0.00602911104211461,0.0206459974171197
-0.00224182732584673,0.0129038092895837,0.00400032010876729,-0.00511231013063419
-0.00589698581929497,0.0133504830164778,0.00559555193678398,-0.0238923200199901
-0.00853409401575457,0.00608924843899336,0.00282667614339547,-0.0407060318181728
-0.00273774841798312,-0.00281946835199343,-0.00227234734145451,-0.0451436440904286
-0.00262814228216958,-0.0168338555680727,-0.00950339349273628,-0.0318915098142785
-0.00671035472502475,-0.0341425711454889,-0.0132299033523549,-0.00997933277792411
-0.00630879847317746,-0.0321331310891869,-0.00539705621541645,0.0065083767968003
9.24138977765974e-05,-0.00377887781531294,0.00992118532805729,0.00876136473358184
0.00477759745378474,0.0166616395783454,0.0162147466089392,0.000220020226740681
9.96630257897937e-06,0.00859106573942924,0.0097967064011005,-0.00866344796668355
-0.00844655985926009,-0.00656344613290389,0.0018482308727771,-0.0112535254321719
-0.0107177920753086,-0.00364890548485284,5.70224625656493e-05,-0.00513009931394862
-0.0101860663030807,0.00856014717843977,0.000666550887209075,0.0060095620643157
-0.0299862028790346,8.22821588025195e-05,-0.00395027558681109,0.0153687588947906
-0.0681684739545177,-0.0253681177205635,-0.0113729395699108,0.0221529206882598
-0.0781762970680013,-0.0367895590377032,-0.014480532812268,0.0210600432359301
-0.0404795919284092,-0.0254370979075103,-0.011814452664113,0.00671340960865546
0.0136757609263287,-0.00797072712127074,-0.00625225885776692,-0.00569575441138877
0.0475628319213237,-0.000700518004954812,-0.00115389291759905,0.000838448292038353
0.0400867867142616,0.0113351333878661,0.00335726670478345,0.0182379640614189
-0.0131156860084315,0.038692818741802,0.0108863428659892,0.0248284067673944
-0.0855954593637051,0.0539195139604499,0.0180173275283033,0.014578215040171
-0.133200030832545,0.0464748706808511,0.0188293987259341,-0.00035271108723578
-0.160282880868188,0.0349991865261094,0.0173817747931721,-0.0111512483915943
-0.205638645956168,0.0239135782386346,0.0132586315446922,-0.0179652303635983
-0.239641413031402,0.0130592586314741,0.00374918865598267,-0.0244337008137865
-0.211597404914664,0.0135754704254496,0.000920943668217409,-0.0366998879343985
-0.152920709898444,0.0163243545758609,0.00800375320460977,-0.0597379162201599
-0.104417379248133,0.011365561808929,0.0101214479029793,-0.0927863670557854
-0.0742600096204211,0.014931722358093,0.00562228473937425,-0.120635294049805
-0.0644490733473573,0.0324861492499811,0.00467250899978052,-0.117933793843722
-0.0468233152558044,0.0518945959039432,0.00873512584951981,-0.0822886050429227
0.0122126633541347,0.0614816626752113,0.0101520371718368,-0.0335089952680385
0.0917859132625303,0.0379347160499819,0.00496595615444743,0.0221397852208002
0.138370041446677,-0.0211728485335085,-0.00253350371012717,0.0837575226672218
0.140667724259726,-0.0640917896658444,-0.00706346146207036,0.133574798179772
0.129079698449122,-0.0634235335803576,-0.00242692357711754,0.155143927490447
0.123209070097688,-0.0545802335373549,0.00270453724677594,0.145783674924849
0.112073701466063,-0.0613041686121902,-0.00134612898353488,0.102640474021524
0.0756919876222851,-0.053572785724776,0.00277166448711288,0.0293550157865358
0.0146547378777637,-0.0165781575029177,0.0194668415980232,-0.0521747096914481
-0.0437379132855361,0.00721515582945086,0.0300322350429288,-0.12290693834786
-0.0679394321898124,0.00647501688496957,0.0281712719862895,-0.176514613895802
-0.0585756841702556,0.0163134611848899,0.0192456578510014,-0.20042046585564
-0.0378440569405897,0.050858976587554,0.0114871567685831,-0.179031205356894
-0.0210906413080104,0.0900060704582061,0.0110024397043601,-0.114080273950592
-0.016701542154733,0.0957060389779564,0.0141847498360813,-0.0269590224577405
-0.0198320367107483,0.0699842984829033,0.0169100340049007,0.0444425906390648
-0.00874582044605335,0.0591378458816816,0.0209197366963787,0.0685306358690289
0.0237186309745923,0.0575748276219395,0.0181932684702212,0.057800147451826
0.0475649292902096,0.0263863906184389,0.00222713632011552,0.0566083456101905
0.0460515258043427,-0.0230161563692469,-0.0179904320028948,0.0838412853927329
0.052912275407745,-0.0533450341704358,-0.0326491249680638,0.110692276178893
0.0907157644962364,-0.0523220173745123,-0.0292153314826699,0.108673125042366
0.115449918165564,-0.0438170941034291,-0.00999106502331357,0.0801127331204747
0.092177267189146,-0.0437938700429765,0.004294976734094,0.0368577809986805
0.0606934115096808,-0.0361404507354239,0.00832604873049735,-0.00516875606292728
0.0505004148474421,-0.0231065512643416,0.0061193784646769,-0.032399776766528
0.0500088109842567,-0.0243249513568878,0.000741740338035931,-0.0438477325403743
0.0691035931070784,-0.0281329590300485,0.000210525577846518,-0.0403954177169706
0.11735728766724,-0.0235507931986679,0.0034774848795814,-0.0237610827701904
0.163434878236137,-0.0228850537943225,0.00241833782422948,-0.00482511324877931
0.176166555016835,-0.0217067510759899,0.00101902895652084,0.00250058700331535
0.155075517988148,-0.0110848319643843,0.00336596711074711,-0.00279523189893507
0.106407719971307,-0.00183336535083774,0.00118811623515109,-0.00855634474195578
0.057318344613662,0.00220759323583023,-0.00876810338274362,-0.0035818590533411
0.0440444076821526,0.0116525488462866,-0.014750806008793,0.0123446623882939
0.052776546474262,0.0221940600361886,-0.00735243486585628,0.028076153182957
0.0490127398753032,0.0196947300686633,0.00598179845100242,0.0330496892568359
0.031943518257227,0.00809287508795143,0.0137807856572532,0.0279210417980808
0.0202802878145529,-0.00324437282323297,0.0134741613162763,0.0135096557151062
0.0205756233328939,-0.0143101274437673,0.00598787482233237,-0.0206930016390997
0.0220049027214446,-0.0202045237201744,-0.00548227575426517,-0.0684324799618775
0.0140592624742962,-0.0149781049320727,-0.0137259480362767,-0.0863251787170491
-0.000365233660973475,-0.00373017284049827,-0.0132618862951913,-0.0397298734359127
-0.0115472011741645,0.00657699127414748,-0.00525830003104762,0.0490997353267026
-0.0177481849099086,0.00934208350385173,0.000112339971569517,0.126924044605694
-0.0261890350161828,0.00341328844716756,2.20264154506431e-05,0.162126726521838
-0.0310979301225467,0.0021778721668343,0.00411431548355551,0.150026111668727
-0.0150570145521136,0.00548853837571523,0.00815784695839193,0.101510431327382
0.00736054886612971,-0.00203079642444517,-0.00113766299008891,0.0422129603571497
-0.004879932983101,-0.0153577543819801,-0.0175814289572293,-0.00441888745341761
-0.0456388164832662,-0.0185905988774007,-0.0214793606272871,-0.0344826053908078
-0.0575322226936774,-0.00474878837012524,-0.00801916650879892,-0.05456848136383
-0.0210958080989752,0.0169284461929267,0.00952556981837308,-0.0674403648121221
0.0223986863941787,0.0267995971693653,0.0155211747123494,-0.07370120168346
0.0406165539190562,0.0246545054991959,0.00518176462094342,-0.0730360710862702
0.0305708761002302,0.0222703216750468,-0.00859371410568528,-0.0605413331264132
-0.00729547280703245,0.020911400786098,-0.00899834932402545,-0.0353290620372199
-0.0558896604360775,0.0168849140071735,0.00448405114026687,-0.0198183134908146
-0.0800669502066977,0.00980610747929632,0.0178606591844824,-0.0424252787370643
-0.0723192937731166,0.00786291590874082,0.0222005541333277,-0.0873892172977132
-0.0613611065579095,0.0130568081015326,0.0189650611720975,-0.10233616273784
-0.0555125424412824,0.0145097146522775,0.0155797774850318,-0.0623070082707267
-0.0345652665696725,0.00495313389779378,0.0150012530967948,0.00491242261309932
-0.000301766334232255,-0.00837652291054523,0.00846018758452093,0.0630200161953004
0.0252078337906558,-0.00870770121832517,-0.00146795317619803,0.0997042743173052
0.0312034875057409,0.00373767958399798,-0.00351058122840732,0.110655846671232
0.0294955733981743,0.0128801082120828,-0.000730500594324415,0.0927910668531159
0.0327263592142951,0.00766488093855182,-0.00268404216079679,0.055119241189543
0.0288140507927339,-0.00878966965677591,-0.0114412906053445,0.0178009539848348
0.00771015352369761,-0.0114951003670734,-0.0140880650496621,-0.00679467505587335
-0.0170513711191621,0.00906201033491652,-0.000551634315872813,-0.0245205425022872
-0.0248006420468814,0.0310386527286987,0.0175015540347319,-0.0448946415066471
-0.0126257401379951,0.039651247599528,0.0244938816617169,-0.0683770171530959
-0.00108532059138516,0.0294598250703606,0.0159272753428757,-0.0884463914700945
-0.00857088275028406,0.00129256755553896,-0.00401210662180355,-0.0947554173077965
-0.0268623894882368,-0.0259912164087069,-0.0222950501783323,-0.0773478558139939
-0.0352732400908233,-0.0319840598392395,-0.026091514324292,-0.0435939633056954
-0.0327546584802837,-0.0161564597954738,-0.0154142940263271,-0.018894777800996
-0.0196983552352305,0.0130282330230378,0.00155937421055694,-0.00503764128308402
0.0076483152417998,0.0395377810814076,0.0143593706259427,0.0235859619808657
0.0278224839192899,0.0415153254366769,0.0146341365649278,0.0632160289221799
0.0288528938562022,0.0245043823216703,0.00618588529782053,0.0761636482364734
0.0255591796985917,0.0141652769758244,0.00158643639721113,0.0532160520071007
0.0214735629410853,0.0178249752539992,0.00570761121930557,0.0258343483868461
0.00939867269025525,0.0200017597812677,0.00918324084656579,0.00923781547702365
-0.0125416359706129,0.0065732199081322,0.00229224889936888,-0.00870854082127495
-0.0351908976362713,-0.00389436201766891,-0.00805619378617923,-0.0275631535679657
-0.0449657473221819,0.00944132869923717,-0.0110222738431428,-0.0315615388097041
-0.037873463090149,0.0233139847828186,-0.0121353490121552,-0.0209334518886395
-0.0291367751905527,0.0151016839433377,-0.017889399706731,-0.0126748954705017
-0.0312042758283606,-0.00164344275333616,-0.0200690617987418,-0.00638423014106011
-0.0249494785637855,-0.00759193670211609,-0.0103668373739586,0.0123255276564202
-0.0129707505488202,-0.00934487243882228,0.00325311565984487,0.0375728518655027
-0.0205157298843294,-0.0173478013114074,0.00595684109647229,0.0542227342688749
-0.0215701497672332,-0.0170907896263784,-0.000480035348278951,0.0607511144431862
0.00807186970898693,-0.00555945421689343,-0.00576243311739441,0.0543629967596549
0.0280688158669559,0.00166845303972284,-0.00733431043236215,0.0266125725912719
0.021116780849373,0.00178761239376811,-0.00729615092755187,-0.0159156881591448
0.0194864200328767,-0.00407261204668252,-0.0097411676652115,-0.0498534477399397
0.016922201252556,-0.015135029972781,-0.0131035987723635,-0.0634192788315957
-0.000378202511564049,-0.0251117368124629,-0.0121582887280446,-0.0745105242026698
-0.0123419832546952,-0.0302220775834195,-0.00906769297690503,-0.0934001899726387
-0.0158757917719365,-0.0287995158004573,-0.0101664562038952,-0.0818288848912001
-0.0209265811608094,-0.0211900244845087,-0.0120743172642625,-0.00167224783851858
-0.0280019375537843,-0.0136573661847812,-0.00946905495499566,0.110196367886502
-0.0244249751511083,-0.00946523990986085,-0.00612098796834837,0.182462366030136
0.00376658081645065,-0.000106816435861141,-0.000272873970039018,0.189828441621386
0.0401395708550333,0.0165447044205357,0.00760052107072739,0.140984754782495
0.0544650201484107,0.0228370297720895,0.00603369454984739,0.0561373255090936
0.0439869875824254,0.017168544424813,-0.00212927126651093,-0.0274087558145671
0.0256421961495505,0.0194567091848451,-0.00366743263195519,-0.0768795900258132
0.00209891339453125,0.0215367141292523,-0.00362759070432125,-0.086560617714026
-0.0285057242647941,0.0035216700844122,-0.0126886227136224,-0.0704682954733109
-0.0520803644930398,-0.0250447279921004,-0.0229116451272957,-0.0414405285556292
-0.0570275719686097,-0.0404740669970102,-0.0207645789886392,-0.00767013902545893
-0.0452495516849983,-0.0324992496078195,-0.00788337850069529,0.0162204007346512
-0.0254329172434088,-0.0129741876996909,0.00529524845402636,0.0169685090030692
-0.0143247262328152,-0.000860464956331764,0.0123833679810318,0.00176256411192731
-0.0200410596548078,-0.00321055475961538,0.0115365575577023,-0.00979248500679729
-0.0260192388074791,-0.0121820176965878,0.00479318727930288,-0.0120991693955998
-0.018429415476194,-0.019444984208387,-0.00615225362179798,-0.0119562004075543
-0.00358262866727415,-0.0274775585611702,-0.0179680975987222,-0.0079677670283995
0.00385110577518148,-0.0368887789104291,-0.020856240012553,0.000861999063432338
-0.000740121675034705,-0.0355441644712285,-0.0121804502975827,0.00432735730227839
-0.00370703516681869,-0.0206619950296766,-0.00327473048294053,0.000122974635791896
0.00596806569157916,-0.00424383558778868,-0.000594519555616953,-0.00305773324269046
0.0272806466618532,0.0158011069869772,0.00315004027745316,-0.00433990933569325
0.0471131143310938,0.0429112290167496,0.0102701058849539,-0.0110417078725398
0.0397816437445265,0.0595925263770379,0.0139791641606581,-0.023580972535071
-0.00649050065265425,0.0505642743066353,0.0121532786842237,-0.0314216890458635
-0.0713391955514585,0.0133809635014457,0.00871558205480058,-0.025623957476473
-0.11573828277262,-0.0383624403526815,0.00371351118407746,-0.00143981107159293
-0.116596246827844,-0.0686864576838764,-0.00699705496631975,0.0405641159879715
-0.0826523963624013,-0.0572993668990989,-0.0183063484147609,0.0739643451747772
-0.0350928606736553,-0.0253495294109584,-0.0233827075511183,0.0617159540918842
0.000867696044398639,0.00194588014724159,-0.0206645688592957,0.00480602806119655
0.0150820257537965,0.023743018831794,-0.00875207634636666,-0.0562618517538654
0.0236689210259841,0.0409912827377541,0.00495790208341772,-0.0766295745216796
0.034650587938424,0.040227622943492,0.0115121395047685,-0.0425272287837524
0.0415648957030901,0.0243782064292627,0.0107765929107252,0.00832709970814102
0.0455809932635339,0.0128085321215087,0.00627467025283187,0.022596214738232
0.0425072990103463,0.00406950448647287,-0.000373247537990987,-0.00746698929857513
0.00510929135027219,-0.0060746521947328,-0.00532449425323629,-0.0420848667006208
-0.0519042436870185,-0.00153930688255767,0.0023793178940709,-0.053727410085746
-0.0667904781046736,0.0168979288520173,0.0154492071237316,-0.054509859455941
-0.0399836789638449,0.0189724568372849,0.0131151661510179,-0.0585001583421055
-0.0183743251225506,1.44022402688466e-05,0.000983493834323683,-0.056626734337951
-0.00745850975543707,-0.00802387671935032,-0.00618771188103752,-0.0318913244490995
0.0140637755469971,0.012384944541758,-0.00667833643081031,0.0167287306211914
0.0383130098962274,0.0492587076695327,0.000579981821464942,0.0659021004871047
0.0317795330323971,0.0761430978642367,0.0107350866097086,0.0870029831823318
-0.025343531549706,0.0682361163594574,0.0143145107425295,0.0735205940596486
-0.110029027573969,0.025477032745265,0.00819796046939671,0.0429763039514492
-0.172700202876685,-0.0149578636422166,-0.00163969364794017,0.0111487153249839
-0.172565660234862,-0.0155135905876738,-0.00160792715826807,-0.0291146063731655
-0.0959225255018551,0.00400358495570236,0.00944567505351237,-0.0868121948919951
0.0114802444761517,-0.00203277614888949,0.018607952572463,-0.133422813253872
0.0873674831832858,-0.0246492829067357,0.0180931211323905,-0.127627100716845
0.107799153271133,-0.0312063767215534,0.00684640540479735,-0.0693008035905993
0.0820781887013008,-0.0317776293259329,-0.0101171178517197,0.017156322044759
0.0632668986502478,-0.0356096032089978,-0.0207132137627998,0.108679658038327
0.0780730006416143,-0.0228075076679143,-0.0149388760618311,0.155729498461723
0.0842601939454019,0.0084452529366905,0.00159917631611574,0.113521578517422
0.0596074746241259,0.0271689233577421,0.00716661999650404,0.0224826090512842
0.031998394077114,0.0132617946608731,-0.0011593763526963,-0.0302136026450371
0.0319352059897245,-0.0189498065212986,-0.00268799579926036,-0.0203812924304645
0.0464764243159134,-0.0455004344234626,0.00223823819093968,0.00772048204119163
0.0385056204799893,-0.0443081568111929,0.0017355923867989,0.0177316827064636
0.00624597954887483,-0.0151489901362137,0.00236126909000761,0.00815870297062923
-0.0258232368850397,0.00915339271371887,0.0077320758309553,-0.00976505199405921
-0.039516507859993,0.00440292684578765,0.00681637258358406,-0.0248980392511966
-0.0293416370225927,-0.0101150117653125,0.000827708876835761,-0.0307122748758462
-0.0134100053348144,-0.00812304589554298,0.000578745272469666,-0.0249237566656423
-0.0137514384808162,-0.00011099878211282,0.00321602355645941,-0.00930570508770407
-0.0107425785851366,0.00351569875115129,0.00286952995437074,0.00691067349828453
0.00876068778838225,0.00393266386488334,-0.00102027581803867,0.0148823614432243
0.0152731832549189,-0.00575779815541981,-0.00897194088089999,0.0174742771554879
0.00905247224078579,-0.0155992447898793,-0.0106889245189637,0.0226574457716819
-0.000160881589070211,-0.0109376713891115,0.00503556339354362,0.0291335426469875
-0.0218538935820964,0.00182548445140176,0.0238105079717064,0.0312867653699131
-0.0296818190217785,0.0107540027017443,0.0282045313386774,0.027714230713599
-0.0119639549014827,0.00844448670227154,0.0218234714590265,0.00845807832853702
-0.00216708973083448,-0.00340443129456346,0.0143079651449876,-0.0328042211133672
-0.0137109143479285,-0.0169307911185233,0.00788873727582282,-0.0697062379891868
-0.0374451100388093,-0.0272970123218722,-0.00148730472513513,-0.0634746644581601
-0.0518791118205954,-0.0238559347703989,-0.0095152558735622,-0.00281092715512472
-0.037836214214736,0.00093694589112887,-0.00728456344610069,0.0796793092244524
-0.0140196768309363,0.0308781534529855,-3.48428170489721e-05,0.125842768955429
0.00656987515257684,0.0449008669370721,0.00454959958777554,0.109387024302106
0.0374996690387264,0.0349212904869035,0.00666147034055353,0.0568173493120602
0.0668132150623137,0.00398196779786236,0.0031888236418328,0.00194908476782531
0.0886074345630345,-0.0266101598564252,-0.00221161830224974,-0.0363000244563662
0.128009080390937,-0.0360179814287703,0.00128161251895871,-0.0577882986288568
0.170577094942239,-0.0327631719080397,0.00726081174787999,-0.0762513484095996
0.171948521470028,-0.0357463849754806,0.00551407798687137,-0.0828314987782727
0.132155940193461,-0.0393832033554006,0.00313115000059596,-0.0558212172170065
0.0759355882620905,-0.0313675093253937,0.00235761579458398,-0.00500531842089283
0.00575685894320604,-0.0195459825899527,-0.00417422224112051,0.0383669567534802
-0.06258367413522,-0.0134105034151601,-0.00936314323770609,0.0613431349875262
-0.0830191750827122,-0.0054376950735736,-0.00366324398616243,0.0636525590912059
-0.0636002672174713,0.00784214349060242,0.00605685106069333,0.0406732419851943
-0.059340815797333,0.0074642104215812,0.0105790742503556,0.00280402802356723
-0.0637738494666156,-0.00602230417999075,0.0103596448088826,-0.0257869677094981
-0.0490855565119955,-0.00490684298219428,0.00895011256889774,-0.0301076575675946
-0.0341350302633215,0.0104005795689352,0.0061319104008431,-0.0119126937536884
-0.0308053197838855,0.0179347228893986,0.000940864260394676,0.00707042457972692
-0.0208606803336232,0.0193706164856937,-0.00155326599411118,0.00541938356092253
0.0086441710087888,0.0280867411299673,0.00841592013322058,-0.0117863834675403
0.0392945553466433,0.0394127845120606,0.026669171514484,-0.0296313668626709
0.0557181250201525,0.0440948260545667,0.0364910176150661,-0.0392235748634892
0.0576971298616732,0.0378493570883131,0.0326595786123009,-0.0347881142562621
0.0323089228877426,0.0187297558083969,0.0206827728923014,-0.0187385339791713
0.00506020937681484,-0.00644330372392357,0.00638378357235287,0.00332504963850808
0.0149232485624751,-0.0365546220686293,-0.00979873645068836,0.02111975287792
0.0427316769649547,-0.061872084697636,-0.0216116849453447,0.0201158005065023
0.0693842835861651,-0.0562210705258921,-0.0147833785354425,0.00448538706038103
0.0889681491519926,-0.0232425260684959,0.00504403909695355,-0.00482535549753238
0.0822144422796418,0.0111999100900388,0.0209308189806206,0.0057901663502905
0.0506387093591729,0.0300260289160763,0.0291657904849529,0.0280983246389723
0.0185264013945255,0.0362055530174977,0.0388919896873603,0.040074212788536
0.0121095191896543,0.0429374857902095,0.0528011344053778,0.0173254095052939
0.0231668042547034,0.0286580505574969,0.0499278741740627,-0.053498854433418
0.0207110580945485,-0.0242309352889945,0.0190768679457713,-0.124730055337209
-0.00136300912510992,-0.0787876793205446,-0.0199335039139435,-0.118445267019346
-0.0174471566358951,-0.0979248763558476,-0.0432716710269777,-0.0273500006216399
0.00465874462714713,-0.0837908980006774,-0.041927619723129,0.0846797800959093
0.0364011905066393,-0.054837825004491,-0.0249330682610946,0.148158708546287
0.0304542318248389,-0.019285908974303,-0.0104050976166897,0.151154907880069
0.00256994173401646,0.026779113623448,-0.000200031276783034,0.131924706205596
-0.0278304943084234,0.077225259408049,0.0202636988198254,0.0962241868065736
-0.0668640779195967,0.100082742325076,0.0434745233414418,0.018298266634942
-0.100166230111028,0.0780225645412133,0.0472745871208201,-0.0883873460030849
-0.0983817866299761,0.0385595690165139,0.0282862967765381,-0.172109870727849
-0.0799419690767974,0.00257798720785846,-0.00458247106287842,-0.193308731541102
-0.0949263593508109,-0.0302899697656507,-0.0351850481797834,-0.149608425371832
-0.121422206885565,-0.0453915194948901,-0.0458255051004945,-0.0629382998030035
-0.108705324800058,-0.0306409503906212,-0.0357210774204138,0.0366676605491383
-0.0757512262092714,-0.00323497275348979,-0.0187930846967048,0.112067328896521
-0.0559934210338071,0.013453144015179,-0.00590477839699852,0.134068609953117
-0.0371910775856217,0.0166229025513028,0.00323605526797929,0.102074197356223
-0.00654589150099458,0.0103979157677695,0.0077508681704757,0.0436440139942286
0.01962597292139,-0.00336707806995416,0.00823917173099759,-0.00889138731441329
0.0312778268413414,-0.0161877532596373,0.0179079730897957,-0.0457078530369903
0.0312120689425509,-0.0212287415866922,0.0344673141357267,-0.0761480988716387
0.0252130905183115,-0.0200001738288489,0.0369792048807617,-0.0971375065306413
0.0305216885224258,-0.017762889548824,0.0195793741545033,-0.0849732087306466
0.0519354253461293,-0.0147175097901226,-0.0047272163969201,-0.0239006270444313
0.0773202774980543,-0.0100795984302026,-0.0197195918742228,0.0709086485701052
0.112172026871732,-0.00347264925629307,-0.0218081656584249,0.14770359821032
0.141772258067211,0.00349021629288313,-0.020639792298375,0.156164166011592
0.122710138638886,-0.000115030504329594,-0.0212976696946298,0.106113183184296
0.0597718165663684,-0.00687104736595905,-0.0191559118915534,0.0428366419637349
-0.0071752453084723,0.000187754525685153,-0.0144022201167475,-0.017990093605981
-0.0569558747970475,0.0115701198546157,-0.0117539947723058,-0.0811535552276086
-0.0933050221965674,0.0131057647414785,-0.00928538036348683,-0.124651847861023
-0.123179213846141,0.00502672806308792,-0.00656997937733533,-0.123244886020487
-0.134087731832428,-0.00472372728916829,-0.00204125769882832,-0.101157462787394
-0.117735437461353,-0.010187496057714,0.00712526841884692,-0.0954013803804912
-0.0930545432270984,-0.0156136733106914,0.00693548525852792,-0.0920329287822656
-0.0945603498823877,-0.0215905991785516,-0.0106776136555825,-0.0541118489089525
-0.116014514409041,-0.022627444243504,-0.0275811733829736,0.0211296039640448
-0.102572242724642,-0.0168102957384089,-0.0261045350543916,0.109887489999453
-0.0464675537782642,-0.0114598531275915,-0.0097700135206635,0.180301567606477
0.0142253795336538,-0.0173129926541842,0.00349946063518321,0.194373232186241
0.0709033388036933,-0.0143297328711258,0.0132940864844202,0.138697802499774
0.134222870602985,0.0217161983633123,0.0295112979521985,0.0409784551796271
0.187359507048091,0.0654741507195412,0.0395156751801485,-0.0567956953640518
0.197558978003351,0.0780827768881304,0.0324557499804038,-0.12005736970452
0.160004082065001,0.0563659346525723,0.0178302733053587,-0.133351492071916
0.101716593212485,0.0340782847642882,0.00518284152402018,-0.106121927520996
0.0878907328373498,0.0514772226742396,-0.000169151859934838,-0.0614742069090715
0.145998979538068,0.082773720143677,-0.00240159208151727,-0.0210486087213528
0.18348271080162,0.0563664521135497,-0.0132814708942497,0.00660757809191337
0.138596790910463,-0.0126828541140253,-0.0179801119681144,0.0177894618786711
0.0585301368415916,-0.0517831127692652,0.00431158003996733,0.00136201444634757
-0.0276639901842614,-0.0493887999743545,0.0312017722423176,-0.0337631969378928
-0.116525975026032,-0.0400078110510661,0.028569667943644,-0.0526849036755597
-0.18572275807727,-0.0403880580055672,0.00230800791849683,-0.0369340845058973
-0.216906816947745,-0.0354153337095751,-0.019722457198246,0.0110712524511228
-0.185776056519534,-0.0145567556824189,-0.0222529422924974,0.0779391810381821
-0.0898868132299276,0.00763240849095875,-0.0056524859965387,0.122715633603353
0.0245626211793572,0.0135997510885234,0.0121563369556101,0.112908106427023
0.109345544822646,0.00525871355086933,0.0176660741679872,0.0715805278484165
0.135032932489738,-0.00125715583534435,0.016462199700458,0.0339349758758547
0.105885030347656,0.000289382026124295,0.00940559954167921,0.00526029882523106
0.064478540478314,0.010254606770827,0.000582075489794082,-0.0154562194097968
0.0432881085708027,0.033982192047732,0.00167827815943454,-0.0245128505658011
0.0316664557106001,0.0581378340158569,0.00799645912498638,-0.0236852769724031
0.0202597304686429,0.0667416003393383,0.0115670215779903,-0.0210728728636727
0.0117699344630291,0.0590776142689638,0.0120057366087062,-0.0238833839715803
-0.00348645493892664,0.0292648388096482,0.00782333512423659,-0.0280848215340203
-0.017313036756126,-0.00339750161839643,0.00106239716352949,-0.0252549235478688
-0.00840723477011596,-0.00864315025049946,-0.00743771993755551,-0.0149483338313648
0.0144705017038556,0.00700451233856512,-0.0158342273624081,-0.000209827384032208
0.0223369158986298,0.0217654805984312,-0.0156636583230919,0.0126518802575919
-0.00193012600781245,0.0199841928024979,-0.00919125305290517,0.0154827905624662
-0.0540907019181128,0.00121046777256602,-0.00721811212396745,0.0131717488049178
-0.0896206278455863,-0.0219678087676031,-0.0105904581584535,0.0121433925495504
-0.084755636694567,-0.0357440032969137,-0.0113399945399664,0.00716757683108167
-0.0769397092164709,-0.0409779044708876,-0.0135624760080052,0.00685306841662945
-0.063298579174538,-0.0491147451321659,-0.0256909464907662,0.0356977761148817
-0.0115971775802414,-0.0505030143790923,-0.0312813170431399,0.0882334580211179
0.0578646819093462,-0.0354576382687045,-0.0199575667900022,0.115595923337557
0.109654434658052,-0.0206171647262559,-0.00777511440341355,0.0900556653495699
0.123533771840892,-0.022017535674632,-0.00492251563871567,0.0386914716805151
0.0752206848561267,-0.0434295942466631,-0.009227052740135,-0.00688490844212829
-0.0141117850150078,-0.0632647347521613,-0.0118506958847113,-0.0366558420211426
-0.0522722332733682,-0.0374070020421467,0.000301825870396533,-0.0507174811263033
-0.0114066615185608,0.0262232963635626,0.0207182259542981,-0.0557805272703851
0.0265500585057294,0.0634217475836396,0.025133139291326,-0.0568526813036051
0.0142137417869947,0.0530232439239962,0.00946351506340988,-0.0471212601455407
-0.0144245320083854,0.0303728612337715,-0.00715918263847604,-0.0252098302280796
-0.0254850605872051,0.0168419280130757,-0.0150847284397652,-0.009218562916055
-0.0269963807514811,0.00686149552865218,-0.0227264955193689,-0.00770680082674475
-0.0434186698127347,0.00685338466560172,-0.025257438499386,-0.00819780358410412
-0.0648980097108301,0.0278324242813925,-0.00882332315729878,-0.00535971097932905
-0.0620360750197634,0.0539169386232877,0.0145099243999459,-0.0055324899379556
-0.0352566491980398,0.069410438706368,0.0271812608497903,-0.0083476402550362
-0.00302115666890902,0.0693352947783593,0.0277483610590181,-0.0103891677073589
0.0166162262313056,0.0408209045969543,0.0129900849001148,-0.0127916669687643
0.0214717485270078,-0.0213761885805439,-0.0198100678638862,-0.0163644688733752
0.0224178584601327,-0.0919350074734326,-0.0532548630211486,-0.0219888852761771
0.0235185528775584,-0.127176881248228,-0.0616873682704647,-0.0244319696068421
0.0263518076051137,-0.109143300113767,-0.0422070110906912,-0.00986396179685009
0.0268840347879766,-0.0653172901453567,-0.0176807113596828,0.0199359421232708
0.0124049330205447,-0.0337338127704172,-0.00795122604275023,0.0398429271555902
-0.00954463866699522,-0.0165416752778444,-0.0080371673430936,0.0311007083731854
-0.0169880064759722,0.00229335514949097,-0.00448109974792759,-0.00106723476371033
-0.011890991799439,0.0264637123350585,0.00643979209898218,-0.0366657743062244
-0.000436593319577551,0.0513716455656047,0.0239707990189782,-0.0598709704422664
0.016264879782067,0.064983674210051,0.0396307809596781,-0.0693093155345574
0.0225199471425666,0.0549557174361728,0.0357573737381466,-0.0625079772275871
0.0145169486762615,0.02105033098839,0.00698509076386394,-0.0342383799254115
0.0113356893984205,-0.0118767012351705,-0.0220133736291626,0.000991213543101784
0.0136258323908522,-0.0122132992937073,-0.022793325602612,0.01762232368997
0.000478593147136296,0.010971112545499,-0.00319396825622795,0.00807823567419858
-0.0298173513451826,0.0223012874913819,0.0101459297652949,-0.0205804675187812
-0.0423253595408692,0.0160134376696413,0.00977749724554134,-0.0605404575752178
-0.00952213356345799,0.0098482716650426,0.0023278878644759,-0.0914962486637242
0.0334359446089734,0.00423878143240064,-0.00663798231863449,-0.0871320594765868
0.0392402799957314,-0.0155527622234086,-0.0186195372283354,-0.0402983153354342
0.00408488993853931,-0.0437172412379719,-0.0328524153094643,0.0336181156294937
-0.0427665329495969,-0.0507355650008315,-0.0319483523461286,0.0988963705288763
-0.0543539750783594,-0.0331295333314042,-0.0126185042738741,0.114193170902113
-0.0271118753998357,-0.0137833385081608,0.00727210016647709,0.0715796976483676
-0.00549095009063223,-0.00603728189175483,0.0171482074786741,0.00643230441158051
-0.0140735244562069,-0.0130320287203162,0.0128532188959962,-0.0392577185306048
-0.0308184727631781,-0.0171880201129494,0.00294216214034329,-0.0461212451832065
-0.0235451033955605,-0.00512916233506593,0.0021357368142044,-0.0293004541476743
-0.00895772988473867,0.0070385007789816,0.00858648770855266,-0.0220072562223011
-0.018202555652487,0.013388103980254,0.0142680073471041,-0.0299788376590677
-0.0426258212059295,0.0227670665082859,0.0185148765531982,-0.0308531166882598
-0.0533516645615311,0.035049621779219,0.0212405417328049,-0.0111423114235099
-0.0325174250560481,0.0458881417678714,0.0186446968772676,0.0253280667305554
0.00486831642030112,0.0479559080210883,0.00854787204694001,0.0589901176696924
0.0267968142933673,0.0378465557005251,-0.00622110615213646,0.0630870862542778
0.0308970548256079,0.0226894533193862,-0.0180954797633384,0.0346302692733468
0.0467702273848872,0.0165291473444474,-0.0160419663860249,-0.00437550649163633
0.0790286877146897,0.0255214579243973,-0.00410726898868095,-0.0321055193824763
0.0896826716433669,0.0289868095677819,-0.000530512051513365,-0.0317098092079524
0.0585185256451591,0.00509007610530998,-0.00628044917295128,-0.000915228196808105
-0.0106453151961869,-0.0385048432894458,-0.0147618542876877,0.0353729781337034
-0.0951643650482113,-0.0703404034009138,-0.0241489024913749,0.0540107183901933
-0.131114983360368,-0.0698157951012068,-0.0217489445618374,0.0557314147488688
-0.0944681775614278,-0.0482964111006142,-0.004322051998385,0.0453550987582841
-0.0342402586185237,-0.0167521430454846,0.0144819623261983,0.0257404341714284
0.0109272365764287,0.0267372004054221,0.0308046300114427,0.0024886056996186
0.0318272236425769,0.0642176097904738,0.0419278756544843,-0.013427554489864
0.0304080636401671,0.0720150271529094,0.0402740585793735,-0.00840269706227744
0.0142430409099851,0.0545042837764283,0.0259810003855506,0.0113591404634925
-0.013002669801583,0.0349224858073628,0.00830725530103893,0.0185712035458345
-0.0515189535385471,0.027010276655082,-0.00114419889983893,-0.00173731078481962
-0.0775561423130063,0.0241049484068191,-0.00226255631336094,-0.0240379801815729
-0.0639767019978524,0.0212737417627169,-0.000672119056749799,-0.0240377984943302
-0.0397417297375099,0.0176784278486885,0.00194173953224862,-0.0188747535248497
-0.0398926458913278,0.007279848210695,0.00186728652455449,-0.0150377889073488
-0.0617176316828446,-0.0100974481159937,-0.00499560125309425,0.0047924136217481
-0.0793859054038814,-0.0191736162895093,-0.0124045571147694,0.0398946910353187
-0.0506721073329773,-0.00412419072694645,-0.0115466633346674,0.0739403598432924
0.0184526494182194,0.0274657852050403,-0.00355311287898331,0.0924967889477927
0.0693463853077507,0.0492548333231195,0.00467422042858866,0.0837362252621905
0.0911728045713114,0.0407091693613334,0.00187770470603366,0.0427150113126936
0.108038719060857,0.0170921179059225,-0.0079881679724377,-0.0123150671150097
0.0997762890299808,0.0128220429337127,-0.00377853148182958,-0.0484448738374491
0.0389126906695323,0.0179830035418292,0.00689286958049529,-0.0496133239641978
-0.0369155071429809,0.00274095051865984,0.000917705717026103,-0.0289242026235116
-0.0645169766428095,-0.0259456040513074,-0.0105603175913588,-0.0139907960075797
-0.0455049559407494,-0.046897076515035,-0.00593368315755807,-0.0174898782585146
-0.0219096448679246,-0.0468568694094182,0.00643481266531572,-0.0253687342860321
-0.0107117057733508,-0.0292370121602905,0.00900446862657591,-0.0212608500897227
-0.0167917651591014,-0.0200545187951353,0.00202101504370373,-0.0123822375587701
-0.0316373798460059,-0.0271448349538625,-0.00985123875310788,-0.0117767939281241
-0.0292517712708765,-0.0242755501561903,-0.0177341957417606,-0.00893073832910056
-0.00983011501770887,-0.00768348240548914,-0.0133752136436259,0.0125553135570954
0.00473413874112565,0.0102211467387374,-0.00258506421279672,0.0388655223767069
0.00878922201940564,0.0320551081343117,0.00758160036868407,0.0423067327160841
0.0177759303195751,0.0470634715880863,0.0121253355040253,0.0261481844498585
0.0226770721060195,0.040181726532588,0.00655101137571955,0.0160456061843051
-0.00731296285889727,0.0158810236370824,-0.00621082801212347,0.0201111588076839
-0.0421589831620903,-0.00547352958756233,-0.0143941071225294,0.0209829588611932
-0.0324540749674048,-0.009213586538449,-0.0120634026633794,0.00742502285467109
-0.00223702924503285,-0.00744024283065149,-0.00828347903819633,-0.0063728189391865
0.00796779750476236,-0.0152464126637267,-0.00701934590958078,-0.00891192429929666
0.00870571905045014,-0.0255853223735948,-0.00253285308477545,-0.00764532274036085
0.0177604209810649,-0.0301066200859116,0.00205668677193093,-0.010577132753578
0.0260858760354393,-0.0273781484613912,0.000475024100900696,-0.0177101841813593
0.026352091415813,-0.0162445151105041,-0.00417202872695874,-0.032363849241752
0.0248620488223596,-0.00627001081531527,-0.00832919028778909,-0.0551175914999117
0.029243186164761,-0.00014889497058402,-0.0105513629114538,-0.0690440046610895
0.0403829096130149,0.0076323161435383,-0.00964911669007539,-0.0634994339236662
0.0502726217983089,0.0104090202351677,-0.00807098543554497,-0.0406907174103129
0.0540261794310102,0.0125729000462262,-0.00302454779430981,0.00222044910424596
0.0524740553059361,0.0260787058667814,0.00989031396473823,0.0513604333611177
0.0436574588696597,0.0410313768027338,0.0242665729948138,0.0700551828199662
0.0181435128504787,0.0397710691509965,0.0277165120893669,0.0478128626779424
-0.0237135740186295,0.022434024418972,0.0170944374822759,0.0128817109869078
-0.0605091785810278,0.00562563018173614,0.00249586874031674,-0.0140956797837994
-0.0855147117725069,-0.00248083314496946,-0.00922452218509834,-0.0278116192560399
-0.103283844634427,-0.00401250296583755,-0.018671932346861,-0.0288575992964608
-0.106161631205076,0.00690369326684864,-0.0194967113966107,-0.0292204420346971
-0.0847118231907814,0.030198061210592,-0.00749785050660943,-0.0309580414562037
-0.0501912947965129,0.0492594701698843,0.00388494530520304,-0.0201449703924758
-0.0395151063764667,0.0547389793523931,0.0056862399727287,0.00994043312215629
-0.0644953102195733,0.0479724592322686,0.00312317652195018,0.0493693751393178
-0.088492593768006,0.0317162516547338,0.00346793362876703,0.0749479873074809
-0.0678363924521654,0.0213665594565326,0.0119276549286529,0.062159627711382
-0.00334385716718827,0.0304132517119304,0.0248868614776598,0.00986450390628711
0.0472652014207328,0.0465584748813927,0.0311302445554206,-0.0513984110715982
0.0395452355082388,0.041929543307866,0.0218813064385217,-0.0850679327252529
0.00555297177321704,0.0095262183472016,0.0062581676588961,-0.0753571369398455
-0.00837288173730685,-0.0150412961713431,0.00324204014448225,-0.0366127190398763
-0.00535364910283829,-0.0107619497625531,0.0125268648566387,-0.00960363895877431
0.00302187853957496,-0.00562560552175176,0.0163732993197985,-0.0212827664337999
0.0200489491731645,-0.024110664890913,0.00577837800938676,-0.0455651995880919
0.0213301249316437,-0.0619717578161195,-0.0102353112970129,-0.0402125627460217
-0.015277880309085,-0.0859268204297862,-0.0203149177107023,-0.000481708039170366
-0.0562869103896285,-0.066473387991256,-0.0227094830884068,0.0484001624186617
-0.0819038133968044,-0.0166641118516935,-0.0197813092293545,0.077010500583403
-0.106837069378313,0.0336184622871033,-0.0133560578395635,0.0711369518336695
-0.124270166994202,0.0631678914158835,-0.00766698267463206,0.0488844795959933
-0.114717030522104,0.0728459194634453,-0.00338347634376274,0.0342362547361462
-0.0841886847803235,0.0786772975624891,0.00164443262049653,0.0240872923456803
-0.0503828928703449,0.0868127710312695,0.00621017201161644,0.00917931943459265
-0.0142201152517717,0.0777174012689001,0.0101052981799344,-0.005784709184155
0.0112823581144064,0.0300049345562781,0.0114909103768717,-0.0150682960663508
0.0101334730562148,-0.0301531886851524,0.00880927212238136,-0.0195347124313947
-0.00437149604520472,-0.0616824013390874,0.00787551936405016,-0.0209363698442909
-0.0253801136257051,-0.0620559811786512,0.00904923156569362,-0.0176821085994407
-0.0815310375677361,-0.0419757648789792,0.0086287908277901,-0.00829601230437055
-0.185168018768294,-0.00672153038283962,0.0125845959017472,0.00464207314629163
-0.260277473298954,0.0272603194623756,0.0191319070974388,0.0174946454860817
-0.224896786424812,0.0449100426431422,0.0159756515801291,0.0254590721194946
-0.126026473804322,0.045629607778577,0.00379307772207965,0.0227002943648391
-0.0414803898467718,0.0387815701730631,-0.00400709306858566,0.0093686998597937
0.0315483295156812,0.0313355617758591,-0.00412443698282098,-0.00776825770700589
0.0985450885420514,0.0172571594489539,-0.00596692674185556,-0.0195208794441948
0.14523752335244,0.000237756379525403,-0.00925346218161191,-0.0200684518058386
0.171600359684604,-0.0108102113618172,-0.00807436700626963,-0.0135772311763178
0.178937825928281,-0.0221569846828457,-0.00481509400501391,-0.014299822760589
0.185201900337433,-0.0324889340374106,-0.00310739780703362,-0.0376550064465855
0.219191970741039,-0.0432691653805694,-0.00825337512554704,-0.0787415286544608
0.255686595901219,-0.0658480410923757,-0.0210341537732362,-0.101169536034699
0.236887726284832,-0.0918640193179519,-0.0297553896282903,-0.0669783858283894
0.155294774244791,-0.109491929339391,-0.0268778396674312,0.0245431563136997
