-0.0412440753312112,-0.0469225464478994,0.00405584042865558,-0.00408784905575518
-0.0384092518179824,-0.0532726726740146,0.0046321678433699,-0.00296237858400395
-0.0209846589096959,-0.0571990143912945,0.00821161342855341,-0.00100974176815801
0.00437756181208755,-0.0582134569779849,0.0117515558680342,0.00139000375277974
0.0207021586273173,-0.0580966887863059,0.0128502007690703,0.0038471278856669
0.0220413661009413,-0.0548799212445222,0.0118290776883478,0.00574345655167563
0.0132827124132481,-0.0472622739438605,0.00828523956916106,0.00625773824170867
-0.000953245196075524,-0.0352155245648897,0.00345041848779972,0.00500991841477088
-0.0161861697870932,-0.0210787414330838,0.000997722234129778,0.00239613700521154
-0.0271497145407915,-0.0136221646722316,0.00181746261764638,-0.000159101827009786
-0.0292685756354179,-0.0179793877961992,0.00248970233474867,-0.00102374279910191
-0.0217321399949477,-0.0278748119794234,0.000604066138528809,-0.000428881828399532
-0.00907864696684956,-0.034178454663569,-0.00243754786369287,3.53312671251436e-05
-0.00161510138443106,-0.0332487637359004,-0.00382887109653906,-3.3428318236578e-05
-0.00585716964179189,-0.0270278412049343,-0.00412310264549313,0.000250943298182829
-0.0117318972878801,-0.0187917761255081,-0.00514133686467928,0.0014676716752226
-0.0108467978747266,-0.0141350807575404,-0.00635748592421699,0.00323347367577331
-0.00575408828432223,-0.0181127955322674,-0.00833547404303221,0.00435533258341077
0.00493614663774138,-0.0314379865659215,-0.0103448448909503,0.00358029666618151
0.0175508908415808,-0.0515665844411559,-0.0104621575693762,0.00042651500664463
0.0206542944434408,-0.0609864310111731,-0.00737596409046615,-0.00464428282691399
0.014583179939251,-0.0468802590887249,-0.000791657757967589,-0.00930173655155603
0.0101709788017764,-0.0218728872203441,0.00607208840663824,-0.0102895565238855
0.0095805133985536,-0.00164501728080327,0.00888726405587766,-0.0068004668764974
0.0066212395917689,0.00351120579946887,0.00819459493654947,-0.000528657571647606
5.76687825849312e-05,-0.00381530260528081,0.00967379531091835,0.00629596024280829
-0.00759564916074722,-0.0137200136241048,0.0123670830711228,0.0112540622827
-0.0133244672984421,-0.030858307575109,0.0132785104503137,0.0127406858177684
-0.0139674285778793,-0.0556528205395648,0.0139323958198267,0.0110975215538255
-0.0102971277873396,-0.0736014589102375,0.0134470467555463,0.00786872735741674
-0.00220984322319155,-0.0714846729159079,0.0122067665337212,0.00438773257955068
0.012091439662776,-0.0495122004134838,0.0127890795751148,0.00121770340750276
0.0252876960726471,-0.0223453982736641,0.0128040101230947,-0.00110892782385043
0.0275602401355798,-0.00228873024221445,0.0059310982730119,-0.00231328577346907
0.0190717011289057,0.0105292662775811,-0.00363993312298337,-0.00308767820915697
0.00291240718927354,0.0227810407939153,-0.00693584443556365,-0.00374459370444521
-0.0147834149542421,0.0307033649802523,-0.00780214615381378,-0.00373623754620014
-0.0201039908502406,0.0305043431067443,-0.0104193261864584,-0.00306495497438818
-0.00973859625286865,0.0381683096968074,-0.00913764950876699,-0.00211910368654379
0.00293103698150061,0.0581870247314625,-0.0021256930434214,-0.000978867280352702
0.00817036243918476,0.0705025506950178,0.00368327605680002,0.000440481237184759
0.0107568434284517,0.0628442883395595,0.00235300752491704,0.00184482722023295
0.0180081562923047,0.0431527672738563,-0.00377852047922255,0.00255907307934777
0.0260730796667788,0.0266586378495122,-0.00829929053277429,0.00274509807238605
0.0262135860043708,0.016191500131267,-0.00818543396858703,0.00319104966615533
0.0194590313904126,0.00387549699844337,-0.00374531214745537,0.00336771869966808
0.0163474685180084,-0.00794325493616043,0.00203958744712621,0.00157603319129128
0.0174575935803104,-0.00964074375985378,0.00594567410310277,-0.00249513266253017
0.0116186809547712,-0.00389215687955957,0.00724707695649469,-0.00659760305227031
0.00109859458527401,-4.13446282021487e-05,0.00753716667430052,-0.0082364773324087
0.00143563159337428,0.00715307531975107,0.00717020249180834,-0.00716925670720849
0.0153967403605412,0.0267931468820049,0.00541947531073856,-0.00470543682875529
0.0276163535033968,0.0489005303449432,0.00201566801209951,-0.00228109304099124
0.0238581106252687,0.0567368739810147,-0.00341805502520597,-0.000911703916842083
0.00565490867404136,0.0602197030774339,-0.00806283523381589,-0.000965971110476651
-0.0146276422270943,0.0741799430045175,-0.0108656531774202,-0.00187180198089748
-0.0299868595990882,0.0835337232037357,-0.0112558046782061,-0.00232673859017942
-0.0417143611573829,0.0751504511905686,-0.00682533106631019,-0.00163970025306772
-0.0488362343629901,0.0584480692005817,-0.000107627750568749,-3.16957575158417e-05
-0.0464293970742297,0.0466741153632763,0.00531400307513165,0.00197259740767425
-0.033818204136774,0.0397687938543296,0.00692426445050556,0.00374939718019918
-0.0195224461849332,0.0322420749545042,0.00405097434341661,0.00459824713477259
-0.00987560667690364,0.0310154176866848,0.00074359975287929,0.00381061563627986
-0.00691536568527292,0.0374028373669123,0.000549799789510328,0.00197947290329831
-0.0112764578996295,0.0322827027277471,0.00153251975398204,0.000850900258790812
-0.0159775973053297,0.00815661434983315,0.00105627572014889,0.000935568654389817
-0.0153686924859076,-0.00851155092889945,-0.000764133810187774,0.0012900074357237
-0.0107879903803919,0.00687296640633018,-0.00366052412436049,0.00103813806988355
-0.00381995204420975,0.042596654685979,-0.0050256474117734,-0.000155308282512903
0.00501268502889919,0.0687069464498388,-0.0038731444466146,-0.0019024738679887
0.0134053882677753,0.0658460862920616,-0.00594931604855335,-0.00305175836352472
0.0161284947730058,0.0384344977348675,-0.0141296477066839,-0.00292931897201755
0.0104796811602417,0.00732295581719836,-0.0231363117229031,-0.00243526043002895
0.00323140644221421,-0.011317800269074,-0.0277695387206743,-0.00268677730592601
0.00391968514978377,-0.0124825761652706,-0.0270904479771909,-0.0028098146975521
0.0139201113853418,-0.00216153135680748,-0.0231857402436268,-0.00168599672983443
0.0222101497069441,0.0117593182638612,-0.0170605266008917,-0.000333008031304704
0.0148170605330387,0.0272077669668487,-0.00987342054454748,-0.00040311292350458
-0.00708099883497246,0.0371447574253737,-0.0054823067666095,-0.00187035847151339
-0.0285826624759118,0.0332350148415521,-0.00521565323198382,-0.00317866487752059
-0.0388685494577281,0.0217579993970785,-0.00834301288172689,-0.00318949406066876
-0.0424620066006691,0.0204977480886997,-0.0127552340696808,-0.00162877806043035
-0.0445824237528959,0.0290161462523617,-0.0160995998109027,0.00118519762944511
-0.034276729894764,0.0255506736530251,-0.0197894251250464,0.00436969129503196
-0.00382316347991482,0.00525888107957163,-0.0211776477099732,0.00680058185573567
0.0310149580881861,-0.0120375171641605,-0.0158439498806802,0.00733210330061774
0.0481416110092569,-0.011044473246148,-0.0112526217446546,0.00541670984354115
0.0483852952859397,-0.00192525796688365,-0.0144902686068111,0.00154418203342949
0.045889514843348,0.000375741590842069,-0.0187131922837941,-0.0021426419485082
0.0451936695931252,-0.0039923198778894,-0.0164143091711579,-0.0015672474773288
0.0458290621549013,-0.0189617907257739,-0.0130311415166307,0.00455782102272235
0.0434883807188613,-0.0570515758483469,-0.0138986957522486,0.0112513581195648
0.0331750853198984,-0.110036952870222,-0.0142362095308559,0.0137458381764646
0.0182697282345339,-0.134020400220805,-0.0108131756520642,0.0118282947985696
0.00696849516940666,-0.104299344621101,-0.00735310545535607,0.00700010041170757
-0.00196087979907257,-0.0540083176890875,-0.0069087003719159,0.00118197735981513
-0.0159391056485705,-0.0193581175719071,-0.00681757573992414,-0.00457046427258962
-0.0268745435020173,-0.00426851814823748,-0.00691296891271492,-0.0103341987791076
-0.0224666330959634,0.00255630542501783,-0.00844368279487663,-0.015123478932776
-0.0065960075429004,0.008517558546015,-0.00907254547665373,-0.0172419923758392
0.00833253784992634,0.0116152327570269,-0.00973841830592776,-0.0160539106747179
0.01672289164279,0.0114624330123322,-0.0132121902684205,-0.0125076500014987
0.02267037590723,0.0105478545902606,-0.0177999243061434,-0.0084951121895825
0.0275227685707916,0.0086784961128397,-0.0194723534647678,-0.00582461288277881
0.0295539852693196,0.00356051498056757,-0.0157453294821629,-0.00481552106032564
0.0291916989284717,-0.00536556126254724,-0.00788765045376554,-0.0034629686284502
0.0257508022355175,-0.0165903361495239,-0.000341590373483359,0.000536922848324581
0.0215512045112841,-0.032409032204901,0.00237490320897829,0.00758282304635501
0.0203489336344761,-0.0533276840709019,-0.000777228049962123,0.0157041460362179
0.0207571684925103,-0.0757844347498393,-0.00436442594263765,0.0213323579656296
0.018429832530624,-0.0936901649371422,-0.00325970574806169,0.0218377417081366
0.0115790940251114,-0.092820360616277,-2.00747155324381e-05,0.0180113740149539
0.00318931150409314,-0.0676603176318339,0.00228858651153057,0.0127662665774604
-0.00171395938917478,-0.034555108943047,0.0028543024092529,0.00744459385674606
-0.000964834000547909,-0.00862184415996013,0.00206561206928511,0.0015325584266769
0.00177968583872438,0.0107533245217777,0.00339293220030719,-0.0047454490385748
0.00388383655538333,0.0252188302924089,0.00602265892828122,-0.00964038229438939
0.00588952229695345,0.0329479149533963,0.00644102949458212,-0.0121657335129899
0.00564264367089638,0.0352831763978477,0.00407966232899449,-0.0129452901556835
0.00285093940177134,0.0339758194715663,0.00133285279357063,-0.0121969047787562
0.00272250161904215,0.0279969442828461,0.00151255706208615,-0.00945994171655806
0.00548810606262295,0.0164860987638227,0.00450602349479216,-0.00514685548626382
0.00581087486431793,0.00579069868762665,0.0070396363676502,-0.00093956770458536
0.00568680220059216,0.00240708802759208,0.00712806879101973,0.00125025637328671
0.00871944719441139,0.00123351610973591,0.00727947507530541,0.000892485552756768
0.0105003933138941,-0.00297213243544582,0.00914024653335969,-0.000878491915830987
0.0106339238732555,-0.00748218194626894,0.011572714282736,-0.00304581105161748
0.0130230593868373,-0.0112798599834731,0.0121552215441376,-0.00503138828615353
0.0128253676651861,-0.0171527257456762,0.00955536317024703,-0.00513918353746414
0.0101998730175398,-0.0228264377135775,0.00718597841748422,-0.00158443051606153
0.0125753255905522,-0.0203341043839033,0.00818710032387256,0.00428998317108565
0.0169000219650466,-0.00853928682872074,0.0106263567693277,0.0092605334630124
0.020359685854071,0.00161083918772785,0.0112825131301373,0.0124561146336834
0.0231857204091048,0.00389283486650153,0.0097297999973252,0.0145194567368096
0.0200538138194091,0.00500683311270307,0.00802563531487491,0.0148767223114754
0.0116625325299107,0.00964006609239576,0.00766175907848537,0.0123379370905039
0.00232443478477837,0.0165428506517511,0.0082335681902667,0.0063545886986308
-0.0105974584576842,0.0256443789239058,0.00992838376082922,-0.00136235325484991
-0.0248171095058424,0.0367933914159348,0.014002471845821,-0.00710050566530021
-0.0310129186808257,0.0461885935866983,0.0186277679423389,-0.00824400730917763
-0.0317435076370334,0.0510286719428738,0.0188184666063613,-0.00499900976229817
-0.0354599242111299,0.0511928107564909,0.0148546856676276,-1.53792364791087e-05
-0.0409828056659362,0.0435019139366352,0.0115036732075857,0.00375509032621487
-0.0443667740958702,0.0238587212743792,0.01041416288057,0.00461271304803537
-0.0456237838338059,-0.00368335634830176,0.0103629390027147,0.00283807909018778
-0.0457641023846005,-0.0220295537679708,0.00882754273756118,0.000100687286032314
-0.0365278972302635,-0.0163274500485947,0.00602331976971925,-0.00274472159224571
-0.00894461845084867,0.00672718144580572,0.00401624654454867,-0.00532169469335972
0.0227892910460773,0.0327208122787465,0.00231474763596849,-0.00698984229485684
0.0350113995192266,0.0543377514279304,0.00131883738398435,-0.00766123083993867
0.0260999460605069,0.0602776077408446,0.0016486595443368,-0.00757416236223071
0.0122567743322305,0.0466401760994435,0.00137898445692472,-0.00669238707584068
0.00238152333888332,0.0324538069735317,-0.000246729554761328,-0.00493310532049077
-0.00625289741551939,0.0271696357361846,-0.000489094245644581,-0.00259194590025597
-0.0186033356666641,0.0190855518907893,0.00205370458083751,-0.000162554727870429
-0.033246869927085,0.00295901492540919,0.0054338489796435,0.00201748668421995
-0.0390718830328682,-0.019457049888283,0.00745024365973783,0.00372276356587083
-0.0335558172528889,-0.0422643725055996,0.00813066729696659,0.00468464540245776
-0.0293786778638534,-0.0529596379716736,0.00884607457465489,0.00484616614872673
-0.0278638216354823,-0.045791810124995,0.0108468528793327,0.00459364166993363
-0.0196262583145928,-0.0319826681263679,0.0136476906398823,0.00414522910727004
-0.00817793708912996,-0.0286903358316141,0.0147914566923969,0.00336569065122004
-0.00323945838886707,-0.0375859022179473,0.0157053295162202,0.00207862249178075
-0.00677190344755176,-0.0466922265679002,0.0184399470411171,0.000435425647356419
-0.0117704488069265,-0.0482303369786926,0.0218266498916892,-0.000939160423001556
-0.0132078609749776,-0.0486446765040492,0.0233621289273405,-0.00182782800860334
-0.0135648596791364,-0.0515167104082959,0.0217938885149619,-0.00271644492572254
-0.0134083868604344,-0.0532375409351327,0.0189725117834242,-0.00371963486302549
-0.012584799365075,-0.056398880336952,0.0159704861532523,-0.00425153316656138
-0.0147714695784273,-0.0570479862504546,0.0141589947073433,-0.00420791017848772
-0.0208677771936031,-0.0485185109766726,0.0140082048529996,-0.0039525776361575
-0.0248447748720544,-0.0359409809926525,0.0122033332223992,-0.00323527270991809
-0.0219933846727778,-0.0287184643891012,0.00911190221333122,-0.00160812509949115
-0.0152358493929495,-0.0291915150919954,0.00779152104201752,0.000469445810301151
-0.00680671923145569,-0.030013977248617,0.00736578237413364,0.00208387956984291
0.00605413783140695,-0.0145729205255109,0.00784099736497016,0.00278517786085736
0.0216204785292341,0.022113479218894,0.0086464397172614,0.0018028084476896
0.0316317629536781,0.0552966828525222,0.00728176993516246,-0.00131002391118379
0.0298592385882186,0.0627325176977567,0.00404655044865336,-0.00521981577739297
0.0231477217909788,0.0486273567054187,-0.00153775057373903,-0.00787194593744483
0.0276101454623887,0.0190247741871953,-0.0104587996045061,-0.00802239166412315
0.0469118948278835,-0.0163753852424009,-0.0170429340734985,-0.00603777994438515
0.0646997529780097,-0.0273394107067814,-0.0146815474108777,-0.0035437819792117
0.0642876051231709,-0.00176470392191275,-0.00638193261078776,-0.00157157905352057
0.044157533437433,0.0300770646391406,1.75575138997575e-05,0.000237466992307842
0.011789252589726,0.034936456676173,0.00232977597196577,0.00230177054283117
-0.0161187879885431,0.0111783305835689,0.00435245737011733,0.00411657102798159
-0.0242858771340315,-0.0195669833869762,0.00788455819000072,0.00484164200140602
-0.017458424668091,-0.0359604258270881,0.012015190948028,0.00442506484598607
-0.0106579649262926,-0.0329952676942066,0.0163306262804494,0.00364125652056173
-0.0102485169332369,-0.0191052939387775,0.0206034939709223,0.00311059998217931
-0.0118448383793906,-0.0109557420009158,0.0232244137790126,0.00271850819383399
-0.0127492559905605,-0.0286012256968301,0.0199118903619566,0.00196224678060279
-0.0158890082842851,-0.0685976478645206,0.0101517342464179,0.000446695291805981
-0.0253352184407029,-0.08155211112927,0.00239189430857808,-0.00176325705387413
-0.033996393174056,-0.0291537465939448,0.0035531257059778,-0.00355747201906824
-0.0260045067011916,0.0518454683723668,0.00818867101842403,-0.00367589677661124
-0.0047624528775832,0.104561691646249,0.00832056463202874,-0.00248723961403676
0.0106185095077022,0.117688588972026,0.00463307502481383,-0.0011001470946117
0.0157344363183368,0.11176200782993,1.27956832021263e-05,0.000213134516327784
0.0180806015591283,0.100720877224314,-0.00439827456872414,0.00144761236505815
0.0203714173166742,0.0840369219231649,-0.00625881588289784,0.00199935351551258
0.0278492718483245,0.0626827528573072,-0.0045685835756457,0.00116660977479272
0.0375046669181244,0.0409518269948788,-0.000144768145336371,-0.000464790525919884
0.0343901861467659,0.019778688303905,0.00468093134924216,-0.00130740736253216
0.0176773528932583,0.00184189656959575,0.00652650218609009,-0.000734507157754505
-0.00206977861372705,-0.0109593815978878,0.00466513644926462,0.000271230762397235
-0.0176522523660159,-0.023974022668711,0.00120148278397089,0.000187573049007938
-0.0281761931163691,-0.0330365838058579,-0.00329336152848536,-0.00117646581193029
-0.0349103892400914,-0.0285912441354783,-0.00972592954942554,-0.00279330256732728
-0.0340080838305146,-0.01572122643581,-0.0163769808698725,-0.00391124791169603
-0.0250030290124646,-0.00264721171049338,-0.0202102215023963,-0.00419383350468246
-0.0162504201763169,0.0120488269148273,-0.0190667683402918,-0.00326523890057017
-0.00933533014985811,0.0245664737610506,-0.0136592176044595,-0.000272730671744688
-0.00152477475486962,0.0257208436860754,-0.00887265088247396,0.00375911185791782
0.00453667049211373,0.0193519060458144,-0.00752237657881083,0.0054319667625705
0.00522497935887607,0.0108041070768113,-0.00611800693065167,0.00410802583095522
-0.00334797001617329,0.000844418745806971,-0.00169852903469054,0.00240948633761826
-0.0177907084037994,-0.00249340630503575,0.00295847657239922,0.00198755992300359
-0.0280217629489167,0.00381849666311073,0.00440093670043437,0.00277477657053744
-0.0319068180698836,0.0132872438705703,0.00534809701412984,0.00382030711145048
-0.0311026053510599,0.0211843291907483,0.00828614372685514,0.00392296238302436
-0.0243208733806549,0.0238771949766592,0.0113949471258813,0.00248236654801602
-0.0127889883619981,0.0213301527502949,0.0140381662653853,-0.000521030386677049
-0.00019871200930625,0.0173801096754741,0.0144045101713749,-0.00451951078851523
0.00923678457510113,0.0157440208486798,0.0117503365203079,-0.00765522352087781
0.0161950374711713,0.0184790315955607,0.0084727670257018,-0.00734458646009594
0.0234512993408683,0.0237957200156765,0.00693121968440623,-0.00274977835268997
0.0284625046283379,0.0267258768680498,0.00832061419912732,0.0041844929530494
0.0288465083479542,0.00573749092863847,0.00602248547224605,0.0103471148455634
0.0252830975686499,-0.0555067217640872,-0.00347437559270284,0.0127961248633568
0.0191382017357862,-0.117235010213748,-0.0108186634481673,0.0101768836145833
0.0132242780707603,-0.120737846458976,-0.0112047130920759,0.00422398488096581
0.0079311056968159,-0.0721797098121402,-0.0088332497189875,-0.00175219444690469
-0.00689273692418101,-0.0295979803464822,-0.00581851572626338,-0.00574146679000764
-0.0362112760474677,-0.00830244297714876,-0.0017873399973322,-0.00763940066572118
-0.0591316344669311,0.0186607921564112,0.00194060861659528,-0.00733456184914117
-0.0576761132670725,0.047194128211152,0.00406947843345854,-0.00464414751890806
-0.0420555873807312,0.0589410272305433,0.00446437129444878,-0.00147615973563691
-0.0300257938676257,0.0577370821563774,0.00625171565188654,-9.05634487854056e-05
-0.0274597127471801,0.0525932860496274,0.00958582210576066,0.000122075884712694
-0.0250708080251505,0.0447925295863083,0.00904180336457714,0.000450644312391868
-0.0160169409410851,0.0351905646564946,0.0055213030954689,0.000237148385523199
-0.00886604829275715,0.0285408294510929,0.0023709221074014,-0.00127912401181487
-0.0104778551230919,0.0226988898575258,0.00037767715101295,-0.00287544794236126
-0.0149708174846727,0.00566874111701103,0.000887403029042236,-0.00120069209697576
-0.00982346558017594,-0.0206132790023388,0.00100986585417008,0.00490816601343777
0.0128676085987491,-0.0359221907961339,-0.000724860347920472,0.0103678508069533
0.0390714724206863,-0.0328755964638116,-1.91269755460866e-05,0.00992088857035246
0.0491413711036411,-0.0250508031974916,0.00130246477229355,0.0052417231522782
0.0445862114143803,-0.0215166854709032,-0.000295328039077933,0.00135701820813772
0.0329418061422094,-0.0193073137457827,-0.000106345637203804,0.000514406434979588
0.0192509721815402,-0.0183605209665246,0.00286536258045978,0.00214933952423893
0.011534100120621,-0.0193452369954378,0.00346811126309944,0.00373646654088416
0.00925592904131731,-0.0187034831390827,0.00308152798089466,0.00178100348723527
0.00206492553945505,-0.0157163491873354,0.00414047726674516,-0.0037372216276284
-0.0133141224782673,-0.0149984157594151,0.00492311719234947,-0.00915693599812167
-0.0273191080650811,-0.0136163139964536,0.00599451195753727,-0.0122625634354667
-0.0347773404376324,-0.00380016164293554,0.00798739156248768,-0.0130055472154185
-0.0416097813683951,0.00542115996088914,0.00921010017773576,-0.0103183682525617
-0.0454723883883381,0.000119361823359389,0.00831639074723671,-0.0037496284281976
-0.0409185519708141,-0.0129071782524447,0.00490167036807873,0.00305034313011799
-0.0324126460448378,-0.0214040848113358,0.000178890353366224,0.00655470391024744
-0.019302539252552,-0.0280252861588375,-0.00250896246178698,0.00822724268916388
0.00108021461901163,-0.035188552418043,-0.00245559235199232,0.0104613633281638
0.0175361417099776,-0.0393956730671261,-0.00194509939314321,0.0119727959393773
0.0207456243691868,-0.0394661976576907,-0.00195980073985764,0.010271014803029
0.0193270708661061,-0.0384375385651111,-0.00356643231581208,0.00540687710281127
0.0225670586454651,-0.0388191923230526,-0.00519124328632225,-0.0011042774649641
0.0259154711584005,-0.0407173364025223,-0.00589259578781247,-0.00788392383201894
0.0237592996250008,-0.0380845552359754,-0.00867525910200774,-0.0127458782943903
0.017809166928378,-0.0272884025960687,-0.0105780335056562,-0.0133402523342649
0.0121120044274402,-0.0265956427336102,-0.0092259043381185,-0.00954997201886234
0.00927388809358766,-0.0470425669699267,-0.00973257590420878,-0.00408777250955342
0.00781343893411192,-0.0598904280601894,-0.0112676694914092,0.000117272550434849
0.00727618846777179,-0.0347675130595763,-0.0074937287451469,0.00259423845682403
0.0124191882198734,0.00949578094075193,-6.51660586840821e-05,0.00455946252549425
0.0208535696715059,0.0326024089327748,0.0025281582259282,0.00605011964432438
0.023330337717775,0.0277410674216419,-0.00132231589206204,0.00585014478230537
0.0194059784300912,0.017116499999847,-0.00475069537866607,0.00394191619823523
0.0137566061655709,0.0152215557044872,-0.00550517343416366,0.00175877803841491
0.00945647031797163,0.0193728116556159,-0.00705741247216069,0.000241367851202171
0.0072147729073499,0.0244096875358057,-0.0083530417686894,-0.000900568957384083
0.00332550573259093,0.0206944307081863,-0.0044844903846828,-0.00170918755065551
-0.00089742273261553,0.003484570700684,0.00148448482787964,-0.00163207926424216
0.00104045065893005,-0.0138718066053192,0.00237714921916936,-0.000903789070795766
0.00649169144031447,-0.0222433806731647,-0.000237377154127663,-0.000479424849385467
0.0082997094618606,-0.0232036553278866,-0.00104728580375436,-0.000626583772868741
0.00737952799862016,-0.0184468176026628,0.000377730820912198,-0.000945215169155633
0.00723969065766337,-0.01236409439331,0.000836022445999899,-0.00102809897739688
0.00675926200385348,-0.00381876964574982,-0.000675156566568267,-0.000479231681790753
0.00452938584173693,0.0115163112541787,-0.00134910977792487,0.000526523123720046
0.00104748362127406,0.015944345206586,-3.68558224059607e-05,0.000932473732686624
-0.00475807707442889,-0.00658973329781876,-0.0014122006130765,2.81438497075591e-05
-0.0139206497389685,-0.0285895279768287,-0.0086000909146795,-0.00163679569888299
-0.0237919119072522,-0.0119319872386329,-0.0153778944518277,-0.00305972443600598
-0.0273354893999339,0.0384168082540409,-0.0179358390074514,-0.00368609368615776
-0.017273229879461,0.0838773579873084,-0.0185731109595488,-0.00397168604679837
0.00160949104056912,0.0959563809993942,-0.0180913136577799,-0.00449833862405523
0.0145929615321833,0.0739918280455489,-0.016968873411212,-0.00453011552397587
0.0146688588321021,0.035511136606203,-0.0146514964895244,-0.00292743366240378
0.00658066998077288,-0.0109665927505394,-0.0102952161413802,6.77489520501768e-05
-0.00272999455400074,-0.0582700329492321,-0.00498863137927218,0.00343021532633552
-0.00879725546341037,-0.0718397417466076,-0.000917123154946499,0.00725713299352562
-0.012447641095045,-0.0334669341478061,-0.000227755686269591,0.0117847467306503
-0.0128587669080749,0.0255974130652537,-0.00290995595205004,0.0154232558292102
-0.00579572319918803,0.0631605278178061,-0.00642208302662013,0.0156075889368815
0.0022527854668617,0.0636989794580326,-0.0104225218814751,0.0110939799532028
0.00806502269175553,0.0487713046620091,-0.0120312378557574,0.00335954707853355
0.017424455918599,0.0445734519123492,-0.0107619457441383,-0.00423061633925386
0.0280903428811065,0.0473023988380038,-0.0128909206832783,-0.00907960196824769
0.0313652267235876,0.0410525896283014,-0.0170943266878224,-0.0106499023253245
0.0237045526954525,0.0249890522451672,-0.0207927474678841,-0.00930765644682572
0.0115471092580177,0.0102675227843021,-0.0232122626310593,-0.00616516396033385
-0.000705814664677028,0.00337504585724576,-0.0201991336014565,-0.00316603955572172
-0.0161144206027394,-0.000307437617267557,-0.0162570079498817,-0.00154389016821333
-0.0276924593414594,-0.00303792150839356,-0.0174633781851943,-0.00173422324850102
-0.0233565206513268,0.005742658909748,-0.0178341055730291,-0.00399358766359741
-0.00669261854133771,0.0245665078577758,-0.0145099450835876,-0.00666531379166549
0.0125509122071026,0.032474504779322,-0.0116699811726529,-0.00641931075250575
0.0270517497205228,0.0220855544051711,-0.0110316353152512,-0.00252498478475558
0.0313436457750104,0.0052012760754019,-0.0110850894097864,0.00283259359555078
0.0275117847147935,-0.00717549609810163,-0.00774980441448513,0.00786393801937404
0.0191933480337678,-0.013723959817877,-0.00246655666476906,0.0115758491801244
0.00689529240546103,-0.0184147287359469,-0.00183336884411292,0.0129944768066143
-0.0052907954136302,-0.026191331062434,-0.00665847831274536,0.0116540200806051
-0.0127419602386282,-0.0352401744064379,-0.0119291238096176,0.00818990856470231
-0.0210563490174716,-0.0378783636425069,-0.0139512772237421,0.00389731343881558
-0.0367176915203052,-0.0350421618711636,-0.0128549088230287,-0.0001611907134857
-0.0457653728414238,-0.0270188581597944,-0.00794939358290853,-0.00340850535767376
-0.0312883181501841,-0.0105589204138706,-0.000908367386157288,-0.00529575344304372
-0.00401939339550322,0.00937810410430514,0.00452043768598848,-0.0053290847751777
0.0144737579172793,0.0266453892215358,0.00716437916400452,-0.00394134646897734
0.0183242655228805,0.0376812366257665,0.00449396841047779,-0.00249096104755047
0.0170311449847693,0.0414229518036141,-0.000765880445881686,-0.0017211903270869
0.02257563727225,0.0438360984832187,-0.00124778627068832,-0.00125814470195019
0.034651720794708,0.043790539607249,0.00416096003200306,-0.000771338473158342
0.0422552454962938,0.0305742163658095,0.00959000304032423,-0.000399012706045921
0.036704126459539,0.010226335816948,0.0114082244390748,-0.000175795903829399
0.0213310542639622,-0.00837037940459322,0.0133313074951987,2.39874188622076e-05
0.00400757976677723,-0.0252983426607747,0.0173428571288992,-0.000199370605592156
-0.0118564451437218,-0.0299982855389996,0.0204965122623359,-0.00120504322599345
-0.0202521896003837,-0.0230589605004675,0.0202809280698461,-0.00255037329876277
-0.0197950344858284,-0.0308999430715658,0.0162122733985293,-0.00361779721295349
-0.0188678552449182,-0.0642406943763585,0.0090396175172828,-0.00402340839370903
-0.0278910107699545,-0.0829427968270727,0.00204681902124611,-0.00349372283354829
-0.0472948627486219,-0.0539988549303405,0.00151875879488532,-0.00145269151278682
-0.0649864695390928,-0.0133196642056785,0.00499575965584294,0.00217913509245851
-0.0734929790809432,-0.000462191905052721,0.00413942313741879,0.00561051216586296
-0.0724696414424134,-0.00383490378595541,0.00191938869658541,0.00636159691371887
-0.0596695201998519,-0.00382190410350718,0.00271384816237263,0.00417191973648729
-0.0288564374911791,0.00293178755261374,0.0028976692956941,0.000888406338958508
0.0165953365376162,0.017133507100938,0.00453505488625726,-0.0023403508692658
0.05281161189721,0.0339300903847931,0.0110162052649444,-0.00508276458771121
0.0585586549479101,0.039191453833556,0.0176714205606861,-0.00676013340965194
0.0373737144903991,0.0258239554252458,0.0214942933269784,-0.00681221173386629
0.010091667909829,0.00633908907133172,0.01974317103409,-0.005065207550038
-0.00667084113934272,-0.00896570866641804,0.0131287832745706,-0.00262189582502253
-0.0111203901211601,-0.0277343354649851,0.00935626968739957,-0.000841763588507826
-0.00753331115572017,-0.0552278526174109,0.00819458148321211,0.000346322438388401
-0.00263037547964777,-0.0775378609523187,0.00527559800746284,0.00149604015975839
0.000339517406723099,-0.0740694413968937,0.00203277192444385,0.00237848905967588
0.00231674512354125,-0.0470091322810022,-0.000440511560626579,0.00247846753347115
-0.0011576665680317,-0.017620432569897,0.000190763681378358,0.00148985239544182
-0.0116508515464816,0.00195444837109061,0.00679294408459922,-0.000456482365720762
-0.0250842306323455,0.0107783642369889,0.0134841858368148,-0.0025358341075327
-0.0335516491125849,0.0161684965023162,0.0125952063499715,-0.00372180650551579
-0.029724224482354,0.0232389371995553,0.00507705021270442,-0.00394455785717208
-0.0175866509254482,0.0264866418635134,-0.00303238694334554,-0.0038670066891088
-0.00816523395519007,0.0266198456949608,-0.00853893090070506,-0.00350184488468118
-0.00539753298088906,0.0265111353246445,-0.0124083090003298,-0.00216383684557901
-0.00228947133626309,0.023725360202872,-0.0129451329107302,0.0008721966865911
0.00225485610937513,0.0171481704757735,-0.0103493529130662,0.00527530851509322
0.00108318784497888,0.00616841386756332,-0.0100682428855121,0.00894764700209486
-0.00414471280898776,-0.00655827054907297,-0.0121096580873319,0.010067051579934
-0.00623096528555766,-0.0107326873327291,-0.013278790555102,0.00842425988711747
-0.00499836728581873,-0.00485719665446373,-0.0126774156866493,0.00394814657440535
-0.00245603306114269,-0.00618983286691459,-0.00921088882018815,-0.00274477424765265
0.00186535555964337,-0.0202491515787821,-0.00469966181042006,-0.0090392305942363
0.00545684125558127,-0.0314500225069616,-0.00366873369649828,-0.0125647985334953
0.00325164925454633,-0.0284574959358404,-0.00547787663319901,-0.0132078954996792
0.00342885245784356,-0.0118298163955089,-0.00398560536236598,-0.0112574416539339
0.0175992934900373,0.00648193219339325,0.000829717322368443,-0.00689350164475807
0.0335761303337114,0.011011351990586,0.00400708515769352,-0.00192267775438049
0.035733810862178,0.00463294692473861,0.00499635073828732,0.00173858317391663
0.0288660021651326,0.00252051195565714,0.00469569117578074,0.00328648607871539
0.0236901199363074,0.00896589017727757,0.00496655994383327,0.00320643899756151
0.0166685726539641,0.013946862484659,0.00630936018141093,0.00391385497555297
0.00433929793485601,0.0139807805558222,0.00698011001220251,0.00682459875723606
-0.00652821919721183,0.0186755149356543,0.00775140657703409,0.0103219248782241
-0.0153213247357276,0.0247298533523801,0.00889841739781371,0.0122675424052034
-0.020118274976376,0.0270143225923935,0.0100193098931088,0.0117804773329118
-0.0157084197120443,0.0318259322738573,0.0119868794121738,0.00884630057429673
-0.00318297932782964,0.041409506214943,0.0140771860891326,0.00403974572308975
0.00542975971546055,0.0548683313654845,0.0153953316407249,-0.0014698523969761
0.000971930090125007,0.0647151762180454,0.0169190194131327,-0.00575806939439328
-0.00413447387020085,0.0641671038103118,0.0195944772343733,-0.00670460935731262
-0.00162723875003973,0.0593507984426092,0.0231753912927597,-0.00428392728060349
0.0016929626242604,0.0566483672410186,0.0257120256518189,-0.000709982868068368
0.00338234146459321,0.058545507245449,0.0266597478205275,0.00238395164620203
0.00064673762287076,0.064101623851883,0.0255379096386647,0.00443524756117843
-0.00586255212849376,0.0682586908795864,0.0214300536644324,0.0042925024852029
-0.00464832311022676,0.0655966248462641,0.0172562261478523,0.00119511194298318
0.000243390416604783,0.043232948869918,0.0119978206822583,-0.00282938705185509
-0.00472788126424572,-0.00233569832635748,0.00447641793408432,-0.00489939961198118
-0.0113771034237614,-0.0510989081334932,-0.000725132541668828,-0.00463760411521901
-0.00432658277751587,-0.0733136337966735,-0.00311963175630381,-0.0036667811063502
0.0138474267680637,-0.0565642225917015,-0.00344860653325655,-0.00250636264148766
0.0251877596417837,-0.0362469962323107,-0.00390821949135271,0.000137766809081548
0.0186267391264285,-0.0454619439983754,-0.0067960249301344,0.00381402659474686
0.00425241453451208,-0.0561333066680594,-0.00908344822754565,0.00597379804059195
-0.000993968061678629,-0.032626512132523,-0.00881638005846802,0.00558785181685834
0.0036764614903225,0.00884960796429349,-0.00545404693194889,0.00357796840438694
0.00668300759093537,0.0347078377985754,0.000254240457127415,0.00118869133550553
0.00604870347960216,0.0420068542905884,0.00551828462434907,-0.000928964290150534
0.00525633932086539,0.0457560685005756,0.00874613177199934,-0.0026464267172848
-0.00034062983195008,0.0506115893542402,0.01009132836812,-0.00387883764272371
-0.0103440296675238,0.0505765359712628,0.00951628933361203,-0.00514652537942179
-0.0151944712921402,0.0441061494487974,0.00865663039264842,-0.00655678667449425
-0.0178507205570528,0.0364819686029965,0.0095062351415557,-0.00613406571352861
-0.0286299531806352,0.0297240988496837,0.0106755855846552,-0.00179759055154147
-0.0357624851300265,0.0202792169193343,0.00960447285269757,0.00586742042374292
-0.023850152447815,0.00892719157231103,0.0056824710855413,0.0131940157880065
-0.00316465156609825,-0.000690420989030306,-0.000199961394625206,0.0156588429256371
0.0138256722951502,-0.0113958624329052,-0.00698791588649374,0.0116200159882432
0.0227923396272491,-0.0230840931114258,-0.011840791932379,0.00268484178937453
0.0219356070642524,-0.0358747737363525,-0.0141041515875549,-0.00828576925751126
0.0156633473825353,-0.0518361528631374,-0.0167902784310289,-0.0167332673756498
0.0082786388859016,-0.0587153543727812,-0.019925180264036,-0.0183345067891713
0.00563970632947342,-0.046770193678323,-0.0214626041480646,-0.0134215776905959
0.011363513951107,-0.0282076341330348,-0.021944533968662,-0.00509228493152221
0.025030482787384,-0.0184740020682724,-0.0214574117486547,0.00359517297771036
0.0379054258504409,-0.0204583461213707,-0.018881148950705,0.00846154665559119
0.035369811754658,-0.031526933352763,-0.0154027385701132,0.00687000788057996
0.020727641628634,-0.0428177470126498,-0.0136957852752311,0.00143626505174366
0.0080940111319879,-0.0435550659056822,-0.013493079178814,-0.0029232909781121
0.00311348565943416,-0.0349430096454189,-0.0132970472880595,-0.00433512102159023
0.00316318867909653,-0.0196502034033529,-0.0131088182095641,-0.0043453943900275
0.00361457029286623,-0.000677729452198475,-0.0113496240493523,-0.00444919579804317
0.0033086807335463,0.0113654275193271,-0.0087068730854512,-0.00397347775150603
0.00192542253731033,0.0111185443158851,-0.00709382892054247,-0.00142218249416639
-0.00455867621214239,0.00156132343252361,-0.00579399126689378,0.00281226354404897
-0.0138877798851384,-0.0105359983284163,-0.00397747072500583,0.0066084321871338
-0.0159354693121935,-0.0178462259021677,-0.00126536936207962,0.0084083671255938
-0.0112845547313935,-0.0168170952905919,0.00106295361880453,0.00805507893807581
-0.00989557272763027,-0.0151287439755165,0.000604361230015961,0.00645873537847707
-0.0146788084115997,-0.0262191951339584,-0.00174420067111408,0.00435091368464044
-0.0170010261023125,-0.0397134703644652,-0.00189000627884663,0.00109450170921518
-0.0105842985026109,-0.0353508015383031,0.00160097328311335,-0.00392764178478989
-0.00249947808556198,-0.0190649693829415,0.00696692070438703,-0.00881593377429273
0.00349904840897427,-0.0105977830290441,0.0111939132357856,-0.0105956319016356
0.0106915355728561,-0.0136162063408124,0.0132701373889808,-0.00869568092762532
0.0168179145574996,-0.0149076100429549,0.0155002282165108,-0.00436905522734885
0.0187744994722382,-0.00398478229734504,0.018248312484942,0.00100783854422881
0.0192188112676162,0.0198677463803706,0.0190715958000459,0.00610129222699733
0.0226611348774988,0.0437502043670545,0.0185827332012488,0.0101201847520255
0.0257572547475678,0.0534978250147787,0.0162906053401059,0.0124587650405695
0.0222291925103227,0.0526377635637039,0.00985098955855963,0.0117577077095238
0.0125863173363358,0.0463090123490636,0.0046827989362397,0.00803688067521388
0.00203672335388041,0.0360118049562755,0.00594453107220057,0.00458043516552719
-0.00632681740557939,0.0267703733635371,0.0100893055556074,0.00417024227075085
-0.014471641904522,0.00564936087174964,0.0102618792303809,0.00552060318196023
-0.0207517595962733,-0.0391156303300443,0.00520456438563934,0.00524639215847669
-0.0205140123443759,-0.0767160802443216,3.04406175833574e-05,0.00179471152337481
-0.0157235995443258,-0.0772650422249318,-0.00340930540996057,-0.00344027022857821
-0.0124569105850103,-0.0650395623693826,-0.00628492060841544,-0.00878486527324916
-0.0169949678319943,-0.0649015900669981,-0.00679778392912803,-0.0137316527160786
-0.0266777461829485,-0.0568814634611139,-0.00266529297288273,-0.0164912669589787
-0.0252281209954553,-0.0247550649890938,0.00294716086673471,-0.0145383051649632
-0.0118385880663126,0.012559316258212,0.00416133419879886,-0.00913107560153916
-0.00441002010448879,0.0306689003221696,0.000492636195642944,-0.00387575235248356
-0.00656486498215992,0.032393929234131,-0.00370330988388527,0.000286534998519911
-0.0082662317886203,0.0326840129370391,-0.00480180599862403,0.00434489465255407
-0.00773561527419117,0.0343021241612196,-0.00403644846662305,0.00830367969599966
-0.0100706260763703,0.0367041628762605,-0.00448037571437159,0.0109852187690657
-0.0131440453670411,0.0410561421011378,-0.00459487515747561,0.0110794492734762
-0.0103642624620855,0.0434419705233065,-0.0037154016428548,0.00845351923269367
-0.00282424291551336,0.0409244813372097,-0.00509239304160521,0.00445791881346422
0.00356005142481555,0.0352832418844051,-0.00820071558752636,0.000546908549884042
0.00885627980687767,0.0279612467348182,-0.00964163570443979,-0.00232630932404962
0.0155641335556198,0.0201705886609173,-0.00975255385882347,-0.00384712009267096
0.0215756970639895,0.0119265689346923,-0.00964697452877952,-0.00446103315367395
0.0211314249244469,0.00403035325168897,-0.00748988107670493,-0.00471491105428917
0.0139387817926213,-0.000993791114377359,-0.00471472191573157,-0.00478737935988477
0.00634945368466829,-0.00334616799148395,-0.00502990197806311,-0.00472041828602801
0.00024728962573382,-0.00600764909311264,-0.00674425214126772,-0.00460005193033148
-0.00388076853446732,-0.0101135601049108,-0.00694185748889138,-0.00443684526567138
-0.00409821128745975,-0.0124622512644645,-0.00663479011067737,-0.00423267995447669
-0.00413170141020978,-0.0102277289686571,-0.00701156122288574,-0.00375509773562977
-0.00590295679905215,-0.00637529986578838,-0.007493437430265,-0.00273035943401334
-0.00519718027863538,-0.00407047183887339,-0.00697128988485376,-0.00154424562966282
-0.00207870076569362,-0.00110314470955844,-0.0046343700597444,-0.000776814219074708
0.000749232081579184,0.00293885960032173,-0.00139869723910998,-0.000393933066084153
0.00262654869492209,0.00544487738004519,0.000919008041493856,-0.000484041220809517
0.00419798096102532,0.00695445176395054,0.000991145575551373,-0.00137218581124212
0.00671591888397959,0.0113064106449174,-0.000555542420636122,-0.00248982598154526
0.00946721595894013,0.0188699325774551,-0.00176442883235974,-0.00274817534781447
0.0123149211594625,0.0240564500633361,-0.00262938183195289,-0.00179711978608514
0.0160299600386458,0.0247610192953944,-0.00259245125448667,-2.72273238550327e-05
0.0203690253457767,0.0247711108327914,-0.00142204355354663,0.00183961193409247
0.0252379071083358,0.0264107993846964,-0.000350091615795505,0.0030762662844588
0.0286784482262101,0.0288673323909931,0.000277361174544074,0.00372413852396157
0.0280744209700899,0.0284912201526057,-8.65626463150172e-05,0.00417305974752034
0.0249444729284559,0.0242682897088075,0.000434657385931776,0.00455911767123861
0.0212240227508264,0.0203670633046946,0.00229342217580536,0.0050190630847938
0.0195278429375064,0.0159665204604846,0.00242573440472044,0.00545453999252933
0.01912310387814,0.00736634079419329,0.00354591344717545,0.00561601982006236
0.0109342772597423,-0.00666287968166026,0.0075242141720536,0.00524986796372562
-0.00326656709418621,-0.0216654109920883,0.0100173529310079,0.00376248479584814
-0.0140111505829003,-0.0289654067601613,0.0110855456157776,0.000827731653910549
-0.0210286563242239,-0.0297853155411302,0.0113132868908345,-0.00270120109006195
-0.0231330396319288,-0.034569443706667,0.00819038035674935,-0.00533239110116984
-0.0164222971988382,-0.0465851509043329,0.00503221978991939,-0.00668435443484943
-0.00552847643786125,-0.0497362351558596,0.00643301646929164,-0.0072425559922121
0.00216366570499679,-0.0293307505967686,0.0111144932476515,-0.00604438885136293
0.00541144896507447,0.000701897603747226,0.0147504429642461,-0.00174403990375896
0.00407682058746846,0.0192307930314416,0.0138886255714278,0.00433487133273178
-0.0042338826671054,0.0243804983341631,0.00869108053315095,0.00912111857698977
-0.0185317355980816,0.0247838952405304,0.00338155021745909,0.0108213397337364
-0.024236181159817,0.0228992911515402,0.00432525188556243,0.0096122732192261
-0.00873221625503474,0.0189183913511709,0.00841848896736784,0.00708458554818519
0.0165345284234036,0.0189268629547659,0.00848577489079659,0.00469498097427074
0.0345883414022157,0.0223486295173421,0.00835970218382578,0.00234275501169632
0.0373296984810228,0.0206442822977556,0.0113834013119339,-0.000167814116277123
0.0221544784773997,0.0122622950750372,0.0143267455014091,-0.00229146242698752
-0.000402280476275191,0.00311518971266185,0.0141546777989589,-0.00364591783552816
-0.0136604424969796,-0.00390495337751336,0.0106940795943683,-0.00412515876422375
-0.0118450504639226,-0.00970888912163235,0.005916761520151,-0.00412738717644824
-0.00156250926651414,-0.0134387597146432,0.000977526563119795,-0.00444419652886862
0.00590167129726274,-0.0146720910726019,-0.00247207500207811,-0.00491572146301034
0.00514193333382013,-0.0172264350040303,-0.00381040783005355,-0.00459168778871504
-0.000786683047229574,-0.0261545471038919,-0.00454301408803287,-0.00298345846796426
-0.00788901047697787,-0.0417903651143985,-0.00491009371568375,-0.000477184335651266
-0.0137402665275867,-0.0574125945221912,-0.00469346649429128,0.00192525997150103
-0.0146346077215528,-0.062977757677797,-0.00495874173445481,0.00378012916824439
-0.012611561355825,-0.0485107232504938,-0.00454045569134544,0.00550160287454476
-0.0139557446373957,-0.0150287746853576,-0.00102665848047025,0.00721526701298749
-0.0155876702497595,0.0150347621538688,0.00387885012036941,0.00791728727706128
-0.011460658828553,0.0243151221268936,0.00629847602147047,0.00640618040899195
-0.00305520936182048,0.0205878336926491,0.00504014026441767,0.00302234204329245
0.00525194281601123,0.0124093094364057,0.0029029301952806,-0.000659980038557927
0.00995926092744762,-0.00121265997983864,0.000234222777315538,-0.00340397688900355
0.0124804182932303,-0.017370123278604,-0.00554685697153687,-0.00515263153651676
0.0157141071742006,-0.0217862342893789,-0.0118372090251231,-0.00659939547007034
0.0141367805984994,-0.00316332870853216,-0.011810244387922,-0.00775948317322502
0.00925089649378293,0.0215045464725654,-0.00536453684267117,-0.00762769157781966
0.010233397823071,0.0304561283010239,-0.00208080875403926,-0.00571654729580256
0.0145827683447374,0.0255490808175505,-0.00603353445431063,-0.00302824665175306
0.015730487329849,0.0160918613737623,-0.0116515666138591,-0.000746945401854289
0.0144535190750694,0.00791295696166474,-0.0146268737893397,0.000388344919662751
0.0126685200289615,0.0024766649538048,-0.0141426506191961,-0.000333789336369196
0.0100828271305709,-0.00345294552583504,-0.0116820103692048,-0.00231216511324377
0.00975592115228176,-0.0142417307913629,-0.0098917492195967,-0.00363243175840119
0.0107047317766458,-0.0276366098781737,-0.00838483736517583,-0.00306894983670314
0.00702839713106796,-0.0357745383340376,-0.00412128354031596,-0.000665511503797604
-0.00116274589556219,-0.0333212979177161,0.00107223060796962,0.00253892126895547
-0.00733514532705708,-0.0181269068143114,0.00391573367624915,0.00521073695389437
-0.00577117217941153,-0.0014827017126001,0.00654713902970508,0.00707660698080342
0.000205131613145209,0.000318600261045195,0.00886281461229607,0.00857543503753423
0.00317801899566515,-0.00958356639717137,0.00873043238751124,0.00928471441167755
-0.000488094930175926,-0.0139824119370519,0.00700613303605455,0.00809001620522839
-0.00874535287115716,-0.00458208693415861,0.00459931569283783,0.00469345229100856
-0.0166239366931315,0.00720825977385382,0.00189706539741997,-4.04944382307749e-05
-0.0216769615342949,0.00841839495982968,-0.00139404886353577,-0.00501693568505381
-0.0211281595312385,0.00272732725702175,-0.00432183040752404,-0.00920288068631306
-0.0166462015489561,-0.00862811714380086,-0.00420110778930298,-0.0115763316334583
-0.0155684487684495,-0.0375892358376859,-0.00205044379822114,-0.0118183923276959
-0.0188866653098363,-0.0679207680724757,-0.00201101556174208,-0.0104447553667665
-0.0187604084327493,-0.0612103298614438,-0.00501969944315374,-0.00747445918894618
-0.0108247262178055,-0.0268088088844889,-0.0102357659094141,-0.00287074326873379
0.000695228731813644,-0.00559837094211606,-0.01617556390256,0.0016137416129993
0.00923509779701676,-0.00501115142307922,-0.0181330500564749,0.00419621076334454
0.00924026022585609,-0.0102224686402365,-0.0143953437766328,0.00568313915455008
0.00484551989119277,-0.0142755967835647,-0.00866104941866857,0.00780440421833795
0.00585672815931348,-0.0149510693859252,-0.00487239401533411,0.00990174454439426
0.00895462009950148,-0.0103700854691296,-0.00280577577452297,0.00969835724805807
0.00904816950891474,-0.000237427781342139,0.000674505038889289,0.00648514339730122
0.00943939273188754,0.012255193487188,0.00513565664952932,0.00177517287703992
0.0035235404744472,0.0248539306369435,0.0075927432607228,-0.00223097201516314
-0.00994053698358708,0.0377013603897123,0.00888258045324613,-0.00440095657241371
-0.0231122617434885,0.0478559641813805,0.00902147294063609,-0.00503502758905698
-0.0357275915341713,0.0529663397794408,0.00623369406014899,-0.00526226980992933
-0.0393206876971656,0.0480998823981123,0.0046533965376816,-0.00606694209300375
-0.0269704929716729,0.0284755608923827,0.00614957777274456,-0.00714118998799641
-0.00896306027434659,0.00378496317048019,0.00803388200650887,-0.00748721945498469
0.00441391108521376,-0.0128498654408758,0.00776089674174315,-0.00671641020832769
0.0103989458124376,-0.0310657928917706,0.0045968139954689,-0.00520824642757579
0.00792760520329147,-0.0626810365434867,0.00265742962854704,-0.00336625023757644
0.00162080295061962,-0.0889793550256027,0.0043962501381417,-0.000745537272170799
0.000208307965770354,-0.0940827502630718,0.00620499062541287,0.00313012345555158
0.00615603884199452,-0.0848709650055047,0.00450234891404399,0.00673164823673856
0.0136133825476665,-0.0687760865689533,0.00129174124252369,0.00705866861573561
0.0146686541845117,-0.054301876606452,-0.000673561114709832,0.00392213788544246
0.00933638540435652,-0.0482932844809805,-0.0015994840648673,0.00107725305990017
0.00110827540590283,-0.0422202143678107,-0.00119648638955676,0.00125829130432384
-0.00964088834946167,-0.0201623852521673,0.00111824916961529,0.00303317020868414
-0.0192053825098598,0.0135450177756554,0.00353697412700154,0.00354783348681841
-0.0197515299455065,0.0331388318564966,0.0017107511304162,0.00155011306918009
-0.00856234495020791,0.0323482294015613,-0.00422519854621888,-0.00289906095856391
0.00456517310013264,0.0302229164811158,-0.00710961240196965,-0.00814343836304163
0.00704873736464285,0.0372763291888533,-0.0051483646111679,-0.0101348297966936
0.00206707968670507,0.0448918694368652,-0.00249313562584703,-0.0054627754661703
0.00299010747862271,0.0403792036045159,-0.000334583182714175,0.00373614879671869
0.0128241373636845,0.0300405448613122,0.00270493283976044,0.0109200445214657
0.0224149828254797,0.0296964735992957,0.00838065761622171,0.012818442763205
0.0249818583387996,0.0334909437857256,0.0147318281553155,0.0117286647847983
0.0273257486545048,0.0270866230996357,0.0152841884935569,0.00896543471028593
0.0360778482492063,0.0123574981880133,0.00910113965610656,0.00271862575653936
0.0439211906221226,-0.00106088541950562,0.00477206936193144,-0.00596674947837215
0.0447817093396661,-0.0115801079991382,0.00475617133463324,-0.0116408896624704
0.0414858557841293,-0.0274570922532127,0.00570905780690712,-0.0108819680158945
0.0318134072655377,-0.0528389431712928,0.00817662711860986,-0.00583184208089687
0.0128800556767985,-0.0821778191988442,0.00738622488263007,-0.000476920820836836
-0.00893368151683645,-0.104958963766273,-0.000806807503942741,0.00321084937636658
-0.0277017196649753,-0.106634910277272,-0.00970331507959751,0.0055383264565616
-0.0378658782034918,-0.0748982267283823,-0.012969006885199,0.00728623628146224
-0.0395792101717844,-0.0172707008401522,-0.0127524355645123,0.00845896203466715
-0.042087475634177,0.0326748752723378,-0.0107570148328593,0.00832628746319554
-0.0484741647746748,0.044471974438046,-0.00574936611944996,0.00574279261212286
-0.0495228264628366,0.0220135682274881,0.000823792259341451,0.000948614243041246
-0.0410614215983452,-0.00449393723627645,0.00608215862792641,-0.00363572386876816
-0.0355739854454075,-0.00870742102701742,0.00749590235930528,-0.00579800928377315
-0.0339966579620626,0.0160106343368612,0.00703736922438972,-0.00507364791356644
-0.0212971716721997,0.0527361704722639,0.00721166962215063,-0.00317053165433651
0.00397080353037516,0.0771365885092161,0.0063836113342988,-0.00275619175671727
0.0303586454943057,0.0821280841254973,0.00402914310785145,-0.00372485879020656
0.0475287512452465,0.0737483490079853,0.000597040350250946,-0.00355556527937126
0.0521013829391919,0.0574557501275271,-0.0029485685368724,-0.00136150988303557
0.0463408943312535,0.0369029046742286,-0.00383264679807616,0.00170737329424076
0.0293419280436984,0.0170608275364891,-0.00157395447814855,0.00425233826739401
0.0028597986290315,0.000256025127615328,0.000358568971576244,0.00536133326881125
-0.0191419377121392,-0.0143835442360185,0.000125461915125481,0.00518258176973317
-0.0265893831015267,-0.023851803188721,-0.00174223758376914,0.00429878771268621
-0.0258634774612885,-0.0240218364616699,-0.00407473769140283,0.00279965851885139
-0.0232414029478827,-0.0138868716358693,-0.00461063202786649,0.000763605831888837
-0.0185943711316898,0.00215532526968189,-0.00355930918448198,-0.001351842979456
-0.0134705737670137,0.013067186582497,-0.00426994674077596,-0.00276293154040106
-0.0113956276317062,0.0147589484089286,-0.00802741394822856,-0.00346617912671193
-0.0127264649211674,0.0160379132236387,-0.0106841659358422,-0.00435647153013177
-0.0147524734241897,0.0226743947044693,-0.00961700786307576,-0.00542016888236583
-0.0164834497039397,0.0297882744379693,-0.00649128376436842,-0.00576015876363535
-0.0154117385866794,0.0323807268184918,-0.00312706743279857,-0.00492836489092214
-0.0112121447359465,0.0330672760709037,-0.00266791513512975,-0.00328136406329829
-0.00793092780526713,0.033160219602706,-0.00395911057698924,-0.00180408043144975
-0.00544485120900017,0.0309785117579797,-0.00312363758265915,-0.00135418473854457
-0.00306927374736126,0.0279133248001767,-0.00166955278287268,-0.00162293961827238
-0.00386095455307564,0.0241393549328449,-0.00159775337539072,-0.00193333932085919
-0.00579215088127465,0.019329124779791,-0.00277500933492274,-0.00205952621645164
-0.00392534120567259,0.0145270203190383,-0.00446746718966976,-0.00188595288913635
6.70938939730911e-05,0.0101892233969692,-0.00481563090383371,-0.00158710208185892
0.00218222056949669,0.00679026307292965,-0.00393764094486103,-0.00146038665379525
0.00237740212621793,0.0065100973983255,-0.00297107781507677,-0.00137905959933574
0.00255057793743879,0.0090128850113738,-0.00151507463629212,-0.000964667861527524
0.00356253333309266,0.00985887580119037,-0.000450620233078086,-4.71009204326043e-05
0.0044921859007817,0.00908346163529518,-8.73974387916266e-05,0.00155201393699527
0.00371589342321572,0.0110479559136316,0.00141117266212913,0.00384525798356495
0.00229712246969169,0.0165430519669013,0.0033718743735077,0.00610397983559853
0.00225658721361455,0.021230296676065,0.0046266983089244,0.0070951330806206
0.00322544534774414,0.0225678706809356,0.00662955067775025,0.00608906413061055
0.00388213325096517,0.0220980199775158,0.00840207036020444,0.00390175504657081
0.00389018389101068,0.0192938713540353,0.00920314021797432,0.00165434635116654
0.00331204521085559,0.0147268854522457,0.00952801640236477,-0.0011985495661571
0.00354832213078175,0.00991126886295277,0.00829871304152392,-0.00495206278431222
0.00456336387257702,0.00411103596005005,0.00687840710926962,-0.00756187723431782
0.00339303201158985,3.01378922969615e-05,0.00722414193821846,-0.00728330473067587
0.00162769096555641,7.02940705305868e-05,0.0081080316592503,-0.00429778867048035
0.00208264849623134,0.00153484998084429,0.00851784478343917,0.000573675854181196
0.00329161319842926,0.000322949639903434,0.00907619282451046,0.00570099306490239
0.00328282056741516,-0.00332332053398346,0.00890091106049727,0.00895100649003911
0.000658230082550704,-0.0066819670294132,0.00872076771921112,0.00938141726801685
-0.00373298934287944,-0.00837245029345153,0.00839533388899179,0.00766829477778585
-0.00635989875842732,-0.0044962037110851,0.00689487881399918,0.00530786534074621
-0.00643787080543252,0.000878887020466667,0.00717275368766303,0.00329807876226056
-0.0044653944457174,-0.00357127206982999,0.00913853429581285,0.00148544802614671
-0.00180599663614917,-0.0095461821640057,0.0108298964573706,-0.000224082736818112
-0.000627439139914765,-0.0017856316139699,0.0129368978829133,-0.00142098246405358
0.000711372548672817,0.0107001804632887,0.0149731655439543,-0.00194188251737941
7.58250879113959e-05,0.0134024980266384,0.0155702373833326,-0.00198715651889436
-0.00449015267563184,0.00815275641126404,0.0151743103489125,-0.00186185523700558
-0.00458725065889805,0.00189741882555556,0.0147429444201,-0.00168259483420499
0.000667036382933551,-0.0014525950383244,0.0146453937445978,-0.00135887068108281
0.00241199087919488,-0.000304921790318219,0.0150940226416686,-0.000755362297876969
0.00119941008128878,0.00223205656042059,0.0147047747962475,0.00012917723701206
0.000786655104145199,0.00352805058583262,0.0131648128227981,0.00112534692573058
0.000571753995644075,0.00544372042775588,0.0138471965347951,0.0019521343254148
0.000142056865130548,0.00611206867479034,0.0156529576511147,0.00232845334253038
-4.32548184116791e-05,0.00362459774305735,0.0136023014880067,0.0022138960782256
5.32811868577258e-05,0.00149840671738929,0.00938397208794374,0.00191577716429884
-0.000415022471127709,0.0003557283414126,0.0076481126904737,0.00157848126037883
-0.000785431303934705,-0.000736351292829921,0.00782252519859145,0.00118358972241007
-0.000766699600909601,-0.00134257551943573,0.00714483293406788,0.000735510095105335
-0.00141954861748837,-0.00249366629600396,0.00612109431024687,0.000179598099774207
-0.00153725273163366,-0.00378586985880769,0.00548309885867385,-0.000287975525585805
-0.000958205556705126,-0.00407438494445008,0.00527607149557341,-0.000576910088896708
-0.00179494610924054,-0.00410368150150903,0.00564752867156497,-0.000819034000919525
-0.00197722179600798,-0.00242712940622614,0.00550571716995416,-0.00103136868726283
-0.000460014502291399,0.00310370713111384,0.00580777806271927,-0.00119399834069193
-0.000556511218734866,0.00843138874400238,0.00666055005295347,-0.00147158240426205
-0.00196167142498142,0.0100971735667478,0.00578493417595582,-0.00184473074241137
-0.00239016724040048,0.00959139314900046,0.00377820281503248,-0.00193979359141804
-0.00275963498826236,0.00801156565272764,0.00195520812192224,-0.00180172664939119
-0.00435094353192866,0.00641953024292715,0.000160142286970255,-0.00161296529740955
-0.00447105129728777,0.00415551111486026,-0.00065414457800994,-0.00146535326316979
-0.00300128512666183,-2.972890890807e-05,-0.00186236465197427,-0.00165683006426374
-0.00221131769307182,-0.00381890127992144,-0.00431113805958432,-0.00203650431705773
-0.00108515717032472,-0.0042002850650239,-0.00506010332395467,-0.00203122136476651
0.000734990380472908,-0.00287148363930938,-0.00392728253517966,-0.00156059211849691
0.00215312190059183,-0.0050610330553211,-0.00229290475871494,-0.00112718787596255
0.00259311327235478,-0.008353226928973,-0.00206526320646477,-0.000999788043301186
0.00272386740385034,-0.00803932144503071,-0.00374782851244572,-0.00105779258459841
0.00313377311834294,-0.00817114268333275,-0.00508353600363751,-0.00130741794973727
0.00379246515626544,-0.00907400615778076,-0.00576812162197429,-0.0017307530849087
0.00459023633280356,-0.00907758526241792,-0.00666400877184464,-0.00204905276798005
0.00495385960345826,-0.0098527518633788,-0.00838427044790211,-0.00195288691344895
0.00458619444118713,-0.00869515938862448,-0.0104289903911562,-0.00164048627557252
0.00496309290643332,-0.00601246542701316,-0.0116624882334136,-0.00161870650371986
0.00703800356929681,-0.00406528269194679,-0.0119689055720526,-0.00198543796348446
0.00835795401330933,0.000902010035257094,-0.0111303281198707,-0.00259892437121897
0.00741719094574225,0.008933364393624,-0.00972232276244184,-0.00298674031760853
0.00622392858947769,0.0150292722812571,-0.00881390461070934,-0.00287601989924144
0.00562012576802237,0.0182946476366742,-0.00833782295289895,-0.00267478776725401
0.00516673047848081,0.0186434856866783,-0.00763486827494816,-0.00221072667863919
0.00602535497469199,0.0147389668952588,-0.00680248198570201,-0.000573935021970047
0.0073032574185672,0.00832567722583969,-0.00732897846991519,0.00258124457568395
0.00667609404544444,0.00296677303517233,-0.00951774747077972,0.00635122881480002
0.00604622889617945,-0.00427727512529268,-0.0116546388444648,0.00875117349452707
0.00734921213332374,-0.0178794758652707,-0.0139475818715616,0.00817891059980479
0.00710728961846057,-0.0268932557422099,-0.0165033300466233,0.00540629982565962
0.00227302920136766,-0.0219619775412017,-0.0163503616000037,0.00295770410859296
-0.00276015417444217,-0.01341650240294,-0.0130793560311569,0.00199780696961464
-0.00251100119252055,-0.0116510749318217,-0.0115515840756112,0.00062312631483198
0.00154778353475423,-0.0157359824031349,-0.0137422643099177,-0.00317748182293118
0.00581528518709939,-0.0177714332174095,-0.0146618102075485,-0.00822136868534995
0.00832860099127058,-0.0145353649110179,-0.0119806631649735,-0.0114960467538292
0.00828125885194914,-0.00997999899793301,-0.00998140246133161,-0.0112444281331235
0.00926420520353431,-0.00338127048317666,-0.0106101988452493,-0.00825220473594353
0.0128297533839069,0.00447392967719024,-0.0108112401761776,-0.0044482302643356
0.0156967953109219,0.00889745544109094,-0.00970741509287021,-0.00105262045453074
0.0171099340455661,0.00984915351886742,-0.00860244713007788,0.0017209514823219
0.0143703633227107,0.00932024197390212,-0.00772520888771508,0.00388907642445515
0.00801396397067825,0.00782502185359037,-0.00724603351221844,0.00526123163451605
0.0032719223667218,0.0057706115779147,-0.00696332769598289,0.00590470584439749
0.00114955133697952,0.0036004719307427,-0.00605850848652205,0.00616750387489118
0.00156566475282882,-0.000459863815168281,-0.00776377817096863,0.00581681796902914
0.00190120069323662,-0.00637135799213449,-0.0139890404780638,0.00420302450221356
-0.00143262089089825,-0.0083480495704709,-0.0172199469746722,0.00251504793553543
-0.00582604230904,-0.00562527415501556,-0.0144559213065091,0.00362397501017573
-0.00558428456473897,-0.0060392814081031,-0.011744988331519,0.00790145537913112
-0.00159884660961643,-0.010443740571939,-0.0112025465983239,0.0122185108689967
0.00027108386690323,-0.0128589611596417,-0.010581821328946,0.0130076472317958
-3.21898470464696e-05,-0.0142049918947722,-0.00891683402435506,0.0088790229496671
0.000712462091484685,-0.0158399395547762,-0.00821799993331097,0.00146804395817492
0.00314437337439116,-0.0162547778929562,-0.0099197990732396,-0.00641869553271805
0.00667084382346402,-0.0158177619011752,-0.0101400113437004,-0.0127784048207944
0.00796303589557993,-0.0117656959277369,-0.00707399396014924,-0.0164660788990048
0.00502561904741567,-0.00527918418978791,-0.00533369537415661,-0.0167469254745796
0.00152928402150292,-0.00187004490740964,-0.00605413980381933,-0.0131886305210173
0.00130551310039239,-0.000836506401968154,-0.0070725324273072,-0.00638843196996082
0.00367633535441595,0.000362973602755542,-0.00802706943877793,0.00155094400967275
0.0055600374653342,0.000587834605037304,-0.00840933787406884,0.0080759112675829
0.00464085969054288,-0.000607799181027605,-0.00803897460475225,0.011690361255628
0.000651937398982989,-0.000559140450440015,-0.00696396171772767,0.0125463277640193
-0.00273931668303546,0.00026008562897906,-0.00567124309211206,0.0115087758394799
-0.00326190942193008,-0.00135021377779394,-0.00518316092331182,0.00915758421019773
-0.00298463261932613,-0.0044696595882751,-0.00659661112334013,0.00601971773460519
-0.00277396398534408,-0.00611949541862505,-0.00891142835424963,0.0029662651146176
-0.00325474834664609,-0.00656109985376874,-0.0105942724018735,0.000789614137908793
-0.00378948504062501,-0.00827907359406182,-0.0121742907583871,-0.000590973690185473
-0.00272063034774981,-0.0100063881192504,-0.0127434638758355,-0.00192158962674787
-0.00206680665858166,-0.0091513849323139,-0.0118138754221004,-0.00378884584959054
-0.00305232459996223,-0.00921193431026264,-0.0106077823937005,-0.00616368648301223
-0.00578783628199659,-0.0104205880383325,-0.00919681772066191,-0.0083803133541175
-0.00839805866969077,-0.00896846596729083,-0.00555427037254885,-0.00891580693779402
-0.0083345056428195,-0.00640607877997622,0.000213822445385656,-0.00637309307220792
-0.00758919841180752,-0.00365118346179046,0.00455560078666532,-0.0017255786926544
-0.00570252944131838,-0.000575152931537749,0.00532410624102969,0.0023927410448726
-0.00141892445468008,0.0017200617750407,0.00388052880939198,0.00416457038543981
0.00242753431637498,0.00437850574652097,0.00245860166304275,0.00355170876485883
0.00309196314586989,0.00544861368988639,0.00213244351961355,0.00219291149221664
0.00282249026664844,-0.00041358819495798,0.00286236268978046,0.00153611560507417
0.0041486477490053,-0.00922163297955109,0.00351018880762102,0.0009447529238006
0.00381997097237904,-0.0117046739127025,0.00385185062545311,-0.000620630483415842
-0.000980226731351115,-0.0108782050045135,0.00314454320458823,-0.00281194998465464
-0.0111035077147152,-0.00924750276898991,0.00112761203424949,-0.00501039399054074
-0.0226577861010325,0.000380417647484792,0.000701244584328381,-0.00642374169316588
-0.0256260526180516,0.0103049125271531,0.00281505337247237,-0.00588234928226441
-0.0150172268313445,0.00776335971438388,0.00476091161704527,-0.00369500154305733
0.000834354540898093,-0.00100739452045138,0.00575345391823364,-0.00160293024339427
0.00818741373297447,-0.00601972493905581,0.00745661635198962,-0.000506627646491266
0.00522867135129594,-0.00702181309739162,0.00969181633334066,6.59632182140176e-06
0.000429810023528292,-0.00653707433918157,0.0105173855291264,0.000357397805737745
-0.00110311287155885,-0.00399100248804397,0.00997692249748437,0.000537887699905055
0.00120762270256862,-0.00122901772726743,0.00898864388632554,0.000613256753881712
0.00514012880354647,-0.00204944916145876,0.00663668320056542,0.00102892855247724
0.00586509828614428,-0.00330813747708469,0.00413142807861476,0.00214484884142094
0.00187447015205725,-0.00124685914357547,0.00440237707327481,0.00321119135728862
-0.00265540121256506,0.00160206646517253,0.00618401194945585,0.00311446079270992
-0.00672991184461399,0.00466375031200637,0.00743090396325792,0.0018462136538361
-0.0118642154672715,0.00787527039611646,0.00929018249503242,-2.46463157618773e-05
-0.0153934318980671,0.00889296927711186,0.0119951951221972,-0.00218526679458029
-0.0158654887584381,0.00891117007666906,0.0135407274673991,-0.00415322914328755
-0.0144888561377442,0.00958597305007096,0.0141141737379288,-0.00485256572990994
-0.0114176554248687,0.010871886757494,0.0150839458617074,-0.00384399578749289
-0.00505974158991276,0.0117285028071501,0.0163830826988939,-0.00186811498991357
0.00281872763836749,0.0108889683105411,0.0169391134553091,0.000205698905845879
0.00415105243448876,0.00805273463632094,0.0158299287030579,0.00192741542372231
-0.00363172598624553,0.00460037639380074,0.0147657421832015,0.00346324748028454
-0.0125084054463997,0.00351854135296666,0.0132978929212412,0.00491204854397911
-0.0142140387529844,0.00356643279516512,0.00956236997720354,0.00569645756623366
-0.00944423873012323,0.00149891389368934,0.00576754023829,0.005347838454716
-0.00562831596621643,-0.00057665111674075,0.0027748077148556,0.00433068696651158
-0.00520305621129841,-0.000859288404339386,0.000563650794497013,0.00319530704853722
-0.00376723204519983,-0.00171737068697608,1.13787278093573e-05,0.00175963306490976
-0.000906213383097218,-0.00293112137101549,-0.000246196654679438,8.49714874805703e-05
0.000336082660152932,-0.00259681138094589,-0.000358029068945745,-0.00109989921653272
0.00143388348702046,0.00040488196591474,0.000320124830222885,-0.00131272070522756
0.00289834832291385,0.00580310394215984,0.00191116351854998,-0.00068388699389802
0.00341074563254856,0.0098445640695478,0.00496313153084772,0.000121666623041129
0.00306851735908649,0.0110882106569186,0.00730592516942108,0.000312417414486221
-3.65367647698404e-05,0.0122269067859093,0.0071454756910211,-0.000182367266401255
-0.00646980399339115,0.0150587902939079,0.00656300094615991,-0.000640702553809804
-0.0111201464391149,0.0169731054798348,0.00721713564264977,-0.00031436389660053
-0.0102433854759672,0.0144757287909916,0.00774810656034204,0.00112319692442721
-0.00849719740385387,0.00945574384228113,0.00662579115228944,0.00334717037723446
-0.00878586933545086,0.00608354574001092,0.00452073145959837,0.00515886766542635
-0.00842514985154987,0.00502659752491652,0.0014837559194455,0.00558721847569797
-0.00657080411296242,0.00358611524151724,-0.00155475916829075,0.00456460743998425
-0.00232610030945196,0.000302507470585044,-0.00218586449175405,0.00228229293005052
0.00235164155211572,-0.00246428545113083,-0.00282939282430215,-0.000652286115991726
0.00326771576691608,-0.00486328244243611,-0.00718910885892552,-0.00312333788294447
0.00240457813654049,-0.00879467232995864,-0.0107165869933907,-0.00444951108721369
0.00252393854124124,-0.0107374288273902,-0.00884804771351711,-0.00483264531336393
0.00286122996924387,-0.00975557493098022,-0.00647889001507811,-0.00456999914204328
0.00381760755000884,-0.00988586419438417,-0.00553461448462056,-0.00369931316526217
0.00485934827630511,-0.00931235435678271,-0.00300782691381064,-0.00280398245954685
0.00462421281822826,-0.00453546030809113,-0.00011286504187028,-0.00256780077326668
0.00548525291200909,0.00132528659807203,0.0016023513165976,-0.00272404232783758
0.00719938442413876,0.00486033724768102,0.00199110960845246,-0.00211035695601405
0.00576074769508504,0.00593624434553246,0.00160978589987378,-6.16931476916938e-05
0.00181323684087767,0.00559975138481117,0.00106360238126011,0.00193349927068371
-0.0007552560674822,0.00641975066991344,0.000582476200925879,0.00162654463145326
-0.000794536731586654,0.00683728091474102,0.00148434729904454,-0.00118794386823483
0.000995612634486368,0.00265545490083142,0.00221225698269759,-0.00470043263315107
0.00454078008639059,-0.00323810388275236,0.000293436549916594,-0.00728154563719064
0.0081724375796735,-0.00465312028156703,-0.00112045880689017,-0.00874173637106286
0.00967581543753105,-0.00326636322215286,0.000883077592842604,-0.00887300043909392
0.007977957686234,-0.00572235760528293,0.00217912917442473,-0.00599830458071308
0.00339585449894326,-0.0101592154981783,-0.000393579685415417,0.000367365785541999
-0.00025291986332094,-0.010927404459081,-0.00219586312454475,0.00701452062511183
-4.51445434583673e-06,-0.00951222888293282,-0.000801537267303506,0.0100453627952235
0.0019703389033986,-0.00942245086718005,-0.000114903443651031,0.00865533131060437
0.00274116939410511,-0.0092459972203948,-0.00060746809124463,0.00477909370186166
0.00287369714411125,-0.00905695665394478,-0.00108190292674273,0.000763995202821603
0.0046763137041657,-0.011796635108989,-0.00233094811912423,-0.00229736208116072
0.00833386598295614,-0.0142987655868715,-0.00414508895530471,-0.00470194667531764
0.0109884260544901,-0.0113895407944284,-0.00580227308086918,-0.00623958336875102
0.0105685260862325,-0.0047330739530144,-0.00767785057343503,-0.0057244554718632
0.00833843866041104,-0.000258862170085688,-0.0111720405761819,-0.0038986379923875
0.00719571346535356,0.0011512933120576,-0.0142619115575867,-0.0029555269698949
0.00740793312013181,0.00192825953985808,-0.0135277357697877,-0.0027891667256609
0.00839072736585032,0.00143889683776857,-0.0115132182429866,-0.00172769217544164
0.00994627608574171,-0.000653928516948215,-0.0103148366152823,-0.000183129624955976
0.010332845380377,-0.00311862452231962,-0.00853794203984109,-0.000326837509753508
0.00928612118287826,-0.00530409568623972,-0.00714643370629942,-0.00193521866190523
0.00710984468268875,-0.00686445503729376,-0.00599772643947642,-0.0019647047074931
0.00672581124145928,-0.00763093463311024,-0.00385845862150164,0.00087114719204195
0.0108076987278627,-0.0101526647025054,-0.00263803964845473,0.0045307045885814
0.0148141458167289,-0.0165509404273451,-0.00312440390231616,0.0066291672556733
0.0154143525578646,-0.0238043919299067,-0.00414699369119797,0.00670690978875889
0.0157590524072375,-0.028513309227176,-0.00617120363900523,0.00598510394719832
0.0161934951915996,-0.0279526311999682,-0.00768228879360826,0.00563696716589936
0.0139411516909954,-0.020185942747699,-0.00618615191521412,0.0053838188314322
0.0111747205175374,-0.0105526552569136,-0.00443967067819375,0.00480182328041444
0.00760116212603194,-0.00638117921445173,-0.00585356161582355,0.00416156862645213
0.000715309237466339,-0.00623987647001287,-0.00801013874945635,0.00322753266514393
-0.00532878418331487,-0.00553122944045718,-0.00968318210037496,0.00226688414062256
-0.00793458307910599,-0.00324219155314055,-0.0144456649317356,0.00124972721422706
-0.00874346303721097,0.0010753727996974,-0.0186735489633469,-0.00116291671063826
-0.0122792837787504,0.00986094993900897,-0.0138127360365882,-0.00277098879236897
-0.0174152572450473,0.0194267020729811,-0.00330285479112982,0.000610421841694921
-0.0176003956133187,0.0229380305864873,0.00182320123615534,0.00697759437177119
-0.0158492119549542,0.0237551056518755,-0.000883486677252021,0.0101591533536189
-0.0105642085361734,0.0242152007597354,-0.00531759042084853,0.00719404932295957
0.0033436875306805,0.0189947583872766,-0.00811072594720568,-0.000156561243846781
0.0132858604169747,0.0106251020532597,-0.00974620194112105,-0.00817260960634175
0.00619190306906773,0.00458632339881869,-0.00706796935335727,-0.0130164921398897
-0.00827682748095904,-0.00405620842518618,-0.00156450749558305,-0.0112438263596661
-0.0152852200928033,-0.0148714818985301,-0.000585361202289338,-0.00365667194631182
-0.0223978088984276,-0.0209951898781805,-0.000776209642069947,0.00427145602954797
-0.0369504413805242,-0.024584280649917,0.00138777427826089,0.00870168598270521
-0.0372350852953148,-0.0270465959511407,0.00205443882291051,0.00933442218782747
-0.0150779449247423,-0.0257012694505815,0.00231122232227578,0.00713481197309237
0.00925615398545949,-0.0208666451729422,0.00472109373700868,0.00365679304252316
0.0277444196137826,-0.0125010004038041,0.00854892491730366,0.000483998646156905
0.0391700820912204,-0.00398252882104472,0.0119122430435292,-0.00152509212917157
0.0426484446589647,0.00208148382254421,0.0146388460222175,-0.00245207287283416
0.0424816585159633,0.00773691444255829,0.0163985053932089,-0.00295136809523634
0.0402315900048135,0.0123879065039272,0.0164341655487377,-0.00327468908303893
0.0393012849961383,0.0228729515873766,0.0181641207418977,-0.00328899997754186
0.0393444870373051,0.042447194498028,0.0232070783378044,-0.00260751400618782
0.0315761571180686,0.0548106461222087,0.0264753758948904,-0.000802608486607572
0.0150079768166386,0.0522486621994366,0.0249212646826112,0.00120740117614249
-0.00190116072037763,0.0436105875648213,0.0205529351413674,0.00182368912508799
-0.014896724269542,0.0334854395582357,0.0177031834920176,0.000840225180726301
-0.024822940457732,0.0218288873111865,0.0176293980281416,-0.000782720575628535
-0.0324910032428563,0.0151861420765889,0.0154908170871883,-0.00210906250872801
-0.0364327416127716,0.0188040186221202,0.0132093433737057,-0.00263814336256269
-0.0371139767723632,0.0219398128229987,0.0150224478339214,-0.00230925916365558
-0.0408350601693738,0.0119479850540996,0.0168687216441025,-0.00135645811202312
-0.0507903514993788,-0.00881194354033947,0.0153919410884677,-0.000489758432739302
-0.0607009361188018,-0.0270306095277915,0.0126205053169779,-0.000579917439930492
-0.0612818424066674,-0.0321616297134384,0.0120431856331402,-0.00160729735152746
-0.0538899817605622,-0.0325138984871245,0.0118017702100994,-0.00268741989485998
-0.0389624083984372,-0.040060908350306,0.00946063560102762,-0.00329487193436224
-0.00559508383274573,-0.0440065061942336,0.0083162849762205,-0.00363665630004131
0.0384592742542755,-0.0348162150508414,0.00955126970525026,-0.00377143472980388
0.0664856550606005,-0.0213005609299388,0.0107824228838187,-0.00339470091368512
0.0654204578178939,-0.00824419795895336,0.0122688826694738,-0.00251977723240263
0.0463010685456263,0.00724081211014971,0.014411979271256,-0.00138243294406276
0.0296509150120364,0.0249154778221727,0.0139020788029744,-0.000213356999108372
0.0213887348368567,0.0371867161173381,0.0113301946556703,0.000591514173632927
0.0125119978893101,0.036887369133773,0.011359685887062,0.000876500404778158
-0.000226554364599733,0.0276028656878321,0.0115805431268639,0.000879071642173758
-0.0125876344278451,0.0160573784156467,0.00944295857182458,0.000688466395442324
-0.0202510839873849,0.00533946639592986,0.00801390438108132,0.000153572083724778
-0.0224130856294123,-0.002543061073715,0.00725000167497958,-0.000668960554806122
-0.0227654496557438,-0.00706598018793666,0.0047557199940934,-0.00161245452229553
-0.0231214902180907,-0.0108377823768273,0.00037948024374388,-0.00240785654849011
-0.0232828093692899,-0.0152046259846444,-0.002892076453466,-0.00260877665239853
-0.0229067799817749,-0.0201305910554913,-0.003871709657781,-0.00236055109361137
-0.0220967755464251,-0.0259949195128665,-0.00547116408287363,-0.00231670888599181
-0.0222115190402326,-0.0298948466483525,-0.00735888682133099,-0.00260620637953474
-0.0226073463221194,-0.0303521206010213,-0.00883756253101397,-0.00275306806367178
-0.0234422065358432,-0.0298311385767141,-0.0106231117373736,-0.00243157248263125
-0.0244278558723393,-0.0291834434411678,-0.0109305930693773,-0.00179802719246822
-0.0225949251793464,-0.0245659622852881,-0.0110871999467934,-0.000969610571463896
-0.0185847930114506,-0.015614023540479,-0.0121217512956622,0.000113743377868564
-0.0148020946940742,-0.00772638926892988,-0.0124448585104478,0.00142150284005946
-0.0113225151215283,-0.00228581031090967,-0.0129614816271299,0.00274177699336152
-0.00755282977451568,0.000877620750428272,-0.0132935998329201,0.00367112210690719
-0.00569683222453356,0.00056362824573436,-0.0119278160263458,0.00399256234578703
-0.00671102045675088,-0.00100859000936812,-0.0103417766221301,0.00381459864872536
-0.00797065992058547,-0.00176481189686318,-0.00940162353788798,0.00320976025998584
-0.00923949877157512,-0.00374195841804879,-0.00845685539952611,0.00218877706377622
-0.0100919504463473,-0.00632161343304747,-0.00645272502163502,0.00084302572966348
-0.00894152519129499,-0.00541367288869367,-0.00348219071060947,-0.000665697293827525
-0.00688573326347941,-0.00212750474234194,-0.00200425818285931,-0.00197750876613264
-0.0052150885215223,-0.00154618471476292,-0.00225965095908177,-0.0028150040462594
-0.00286316344707389,-0.00370062126044435,-0.00288967030417768,-0.00291164533967451
0.000395185796057372,-0.0059423446496599,-0.00413906098338732,-0.00221213115067607
0.00291545439055902,-0.00835300310095447,-0.00476442130683741,-0.00133667786762724
0.00476503025611105,-0.0106540703547846,-0.0029274168442994,-0.000529362472868806
0.00559073538531293,-0.0116601012972673,-0.00104137022726543,0.000449736312265283
0.00519056230915507,-0.00987911793881461,0.000459534936924561,0.00134652851104271
0.00642534849186267,-0.00390735859547079,0.00434921902710688,0.00195827472674195
0.00929174802010507,0.00160699779051161,0.00791728081898506,0.00285340115912161
0.0100724446691641,0.00335319913707798,0.00705774456809401,0.00434415160370515
0.006245594067192,0.00755003333161155,0.00601895398555364,0.00566650311910565
-0.000455057121625963,0.0145626473181075,0.00800686126636229,0.00621589515839956
-0.00483767879436562,0.0185113134298099,0.00937305466203424,0.00607923653074702
-0.00489032411725633,0.0190432395831087,0.00983363528173329,0.00516354004110946
-0.00181539532834713,0.0180259991385648,0.0102360128904023,0.00353705114331184
0.00179847038336439,0.0165076040982284,0.00982828881013152,0.00177506019235683
0.00256143721067863,0.0147599878758108,0.00836830069557918,8.14096110434721e-05
0.0014482142567161,0.0124483429017705,0.0072933932295604,-0.00155198667052867
0.00268487370734987,0.00882437806231487,0.0069914621426199,-0.00251849380012616
0.00660210612154855,0.00491488507958184,0.00544719580967964,-0.00212501768584651
0.00952812326503117,0.00189453378975878,0.00406318875908665,-0.000560117078597796
0.00919945380531879,-0.00029087632844609,0.00407670397422193,0.00124733638853804
0.00646328360703118,-0.00142763877392059,0.00475487146868138,0.0024933758945777
0.00451582710504692,-0.00207496867375388,0.00489807607481431,0.00297441743202332
0.00554871091998812,-0.00111495678441888,0.00339994870049021,0.0029428992856465
0.00759270241189587,0.000208205171237914,0.0017371673442931,0.0026169583637095
0.00703206664264167,8.83747461467126e-05,0.00206329370005645,0.00202750994013145
0.00486430672593633,0.000915907240753655,0.00338608546145266,0.00111848281631962
0.00414616388984849,0.00514234392379362,0.00357539896663751,-0.00013109387439053
0.00452123327888305,0.0112726437449388,0.00511232665559535,-0.00131628016919335
0.00497748624088049,0.0142140719681196,0.00825133106423277,-0.0019425449102246
0.00533152032794815,0.0113207444998497,0.00896163540966149,-0.00208309138250085
0.00678371128542846,0.00753117510023551,0.00625827573659164,-0.00215628127260286
0.0087492496962417,0.0108673676386321,0.000718574009394301,-0.00242850355910665
0.0110051655982349,0.0179266808041019,-0.00536457637777141,-0.00248625807550696
0.0141378102311193,0.018059780300336,-0.00884849066849397,-0.00150594524090559
0.0142565314471315,0.0110056978057262,-0.0115345257230267,0.000436049023887549
0.0107823818408152,0.0048568524713081,-0.013919369361356,0.00204975993942196
0.00833681363973576,0.00339173135886161,-0.013370787477307,0.00215083999142954
0.00842991216681543,0.00347067443662693,-0.0116403558238108,0.000707318519279155
0.00840458700277222,0.000746476552597601,-0.0119389606728889,-0.00138215600476521
0.00791719331882661,-0.00226025543247522,-0.0153564741185543,-0.00320446755838617
0.00743347484442773,-0.00283483473083373,-0.0192133210000445,-0.00424382951913731
0.00710137104555309,-0.00494509695532681,-0.0208065048403643,-0.00410516814776498
0.0078155044811256,-0.00808002691614206,-0.0217798313637062,-0.00291469397349444
0.00757492978626487,-0.00820807407687476,-0.0222762876911598,-0.0015942941932279
0.00687361140569095,-0.00721750906504706,-0.0210076128564652,-0.0010795568476302
0.00643148248693417,-0.00582587818141208,-0.0199752428416663,-0.0015152531238575
0.00557484926166734,-0.00191762604843574,-0.0195247999357715,-0.00217056605688762
0.00606421632106253,0.00253428378473193,-0.0198161907427674,-0.00205246878249992
0.00614149772872404,0.00552463433463128,-0.02308612407981,-0.00138212933744217
0.00451436516117967,0.00580721410076367,-0.027117569637995,-0.00164107832717163
0.00442962171112774,0.00145165194757266,-0.0296192308847566,-0.00347537649129126
0.00462898025072639,-0.00182290003095728,-0.0306182175530068,-0.0059724838519375
0.00258062507812125,0.00419901560766161,-0.0281727589009328,-0.00724708177756867
0.000705670922424968,0.0124126070177144,-0.0227129273091737,-0.00532761849050896
0.00242319302827276,0.0112353945877312,-0.0187842372703798,-0.000163128055168844
0.00799957938012678,0.00154863168679855,-0.0192392558760876,0.00526931367243935
0.0116799063703125,-0.00737727208490201,-0.0199020556517633,0.00745909274320871
0.0105132310132737,-0.00790119905864914,-0.0149001405813964,0.00614525949399398
0.00775309848426221,-0.00112030224209775,-0.00726263861823788,0.00384260372551149
0.00498497792705525,0.00418051742700071,-0.00393766996410197,0.00244147415345711
0.00263024564019726,0.00269804978658752,-0.00582082345580777,0.00230702271310143
0.00155358070287553,-0.00108313905874742,-0.00739537067290505,0.00262347876561518
0.000653704895811376,-0.00195946241019452,-0.00432803715230086,0.00241977920401013
-0.00239540777103576,-0.000406722749299827,6.15766930527756e-06,0.00172989244320549
-0.00775122554707559,-0.00118552044557956,0.00118777228240767,0.000628495591949449
-0.0120323518822025,-0.00392625848420906,0.000496001243155908,-0.00097172822694673
-0.0103602383841125,-0.00192653840114687,0.000660144301458887,-0.00242022019810461
-0.00338146366522961,0.00390526816869151,0.000631369531928279,-0.00299266786536078
0.00169591150795331,0.00645447041690313,-0.00158868532814432,-0.00287315438059501
0.00214271121282872,0.00639122105059546,-0.00211582789162292,-0.00241676308761082
0.00127756664027265,0.00815235239606289,0.00139391890348199,-0.00129569890491079
-0.000971799534367435,0.0109378582432261,0.00352613947711366,0.000716070350106305
-0.00324016655466197,0.0112742661705579,0.00154282028666677,0.00304731369204814
-0.00152288892049341,0.00653689465529748,-0.0014038121588173,0.00474445044290752
0.000141432431412946,0.00123756782784836,-0.00193742337308251,0.00539775171353371
-0.001860240304663,0.00161366145582731,-0.000898775477619672,0.00582270896606153
-0.00369437968451082,0.00636099192298063,0.000537909565764957,0.00696886002072719
-0.0049876368091722,0.00927233170415172,0.0028314839274913,0.00853326780420801
-0.00865575196361212,0.00709991997660288,0.00529666478699421,0.00940241313196779
-0.0105026065363888,0.00440932925183351,0.00867747891057442,0.00810358105830299
-0.00656388896970368,0.0031175396421675,0.0116568569645221,0.00339696987972392
-0.0022196635697939,0.000860686714466535,0.0121056910999927,-0.00410124662978546
-6.73323609014283e-05,-0.00205007227932915,0.0114676959146239,-0.0114264322033576
0.0035746225143987,-0.00591182171164351,0.00966424540052182,-0.0146071118959293
0.00679360390314681,-0.00907520238694145,0.00912164140592087,-0.0118437677892898
0.006265382533292,-0.0073693170716111,0.0130757532998662,-0.00552007576346893
0.0043463839932518,-0.00346330003108403,0.0165111639739915,0.00123825060812877
0.00256491719219797,0.0029787592834611,0.0182505726721599,0.00732566307924626
-0.000247789766358237,0.0160215754761304,0.0219393420740006,0.0116321375678257
-0.00311774023257157,0.026111743332859,0.0222565681858202,0.0123479703597936
-0.00564835498918505,0.026078910374103,0.0150582291438741,0.00892336835480764
-0.00958292999994111,0.021405218560055,0.00727500383359115,0.00328010774904217
-0.0119782696446275,0.0147656644831856,0.00389927574725379,-0.00191337625192664
-0.0103709540582388,0.00529268835029993,0.00319819005477539,-0.00575460280752572
-0.00823329461539905,-0.000119782128216093,0.00417369002609891,-0.00859522862822784
-0.00699653989707443,0.00454711667690414,0.00683407531838962,-0.00953731455094371
-0.00436456780979924,0.00995409862027329,0.0104551267322402,-0.00700209265096033
-0.000554924296200734,0.00793583135001103,0.0120015716836448,-0.00209953113195158
0.00201977807321766,0.00219383308755406,0.00957136524642967,0.00180778432362975
0.0016427985642277,-0.00263594085754248,0.00708773952111698,0.00234309154808141
0.00113038753146423,-0.00548286937670627,0.00746953169940471,-0.000402719939780748
0.00303460001055789,-0.00623036119142678,0.0080169453577497,-0.00428557319914073
0.00310187981568852,-0.00546830693836059,0.00653045602303268,-0.00705364965844173
0.0039017988889532,-0.00586519729565922,0.00450991623588913,-0.00784910660378455
0.0100720655276925,-0.0076521863779176,0.00302529633504071,-0.00694981560683014
0.0120587646851353,-0.0067208084500535,0.00427010888073931,-0.00507649868868275
0.00631398829436185,0.00254567430905355,0.0112397716412776,-0.0025794679598379
0.0017045282739807,0.0164644961015638,0.0191518795255912,0.000419469334708975
0.000685144592726475,0.0220888724716337,0.0220187951477141,0.00288271430351377
0.00129258516602685,0.0192658454444912,0.0216859264429111,0.00343500273417729
0.00198753101608482,0.0170492682804807,0.0213599137923244,0.00241265144229919
0.0020873991147628,0.0148559326117104,0.0209848549688601,0.00158442428084605
0.00100588871424457,0.00929739425976626,0.0197280737357147,0.00127034407816666
-0.00209457194090229,0.00810244296985978,0.0184173848979094,3.24570342280332e-06
-0.0052066247214055,0.0148267232390828,0.0180277379925891,-0.00259085823685266
-0.006603163707431,0.0174006401008098,0.0187674412475354,-0.00505659823400458
-0.00835166953245714,0.0127187512235147,0.0195993778815189,-0.00608918091668795
-0.0117030772485088,0.00765469130003422,0.0186857496288333,-0.00532479923586498
-0.0134167694292153,0.00312653824452517,0.0169888814710664,-0.00330474713292484
-0.0116980862350041,0.00136557265440106,0.0154700458440639,-0.0015078660544666
-0.00784018359390791,0.00298234428580575,0.0134264555932532,-0.00151265523118647
-0.00350068762974759,0.00280260393624343,0.0127748167225533,-0.00297897264222627
0.000102074907395399,0.00212579748391786,0.0140504526055862,-0.00293755074116416
0.00346531974203412,0.00309140345523658,0.0142307691857635,0.000721011100692116
0.00708003232732606,0.003815628627708,0.01425644407743,0.00601516335594905
0.0100517729863108,0.00607593975269295,0.0166601703321315,0.00890169920177298
0.0113135663294137,0.0103552158097158,0.0184588192186553,0.00805779664007219
0.0107085729590258,0.0138742655245884,0.0161380305813099,0.00575594212612654
0.0106322466277172,0.0153299725863277,0.0120827101360471,0.00420177525199187
0.0113216718664556,0.0160129827220316,0.00978036973706745,0.00342243528555031
0.0096707575553034,0.0161960415626765,0.00844342775599908,0.00264153685625074
0.00707648219069059,0.0167043736012673,0.00699528759831518,0.00217061837550439
0.00518147521221862,0.0174813073858605,0.0064887502790271,0.00272807020786944
0.00121445788858111,0.0115077826139424,0.00517666712698613,0.00252986135269753
-0.00420274851586387,-0.00192832365318785,0.00127720079209723,-0.00122385871632887
-0.00764923140549084,-0.011401478042988,-0.00115214397128196,-0.00710192033566415
-0.00860550690144945,-0.0141036383697339,-0.000385837626596653,-0.0106616068512561
-0.0101963161411983,-0.0162604398464655,-0.000275551934089215,-0.00992641166918457
-0.0148941969390197,-0.0153714431195035,-0.00250958388726452,-0.00660990746011396
-0.0168711400328159,-0.0129677578804992,-0.00544305107539693,-0.00332775834464495
-0.0114697326838449,-0.0175435076009592,-0.0100864963462181,-0.000777504932342877
-0.00469870317483977,-0.0201383941295295,-0.0150971430708482,0.00207001144280964
-0.00120529178743033,-0.00932589364026495,-0.0162424103446996,0.00632662969253072
0.00135923167691551,0.00339539531268331,-0.0143895463332264,0.0118405839675329
0.00475003580040704,0.00368004857680204,-0.0143233797770361,0.0167399174345168
0.00971067970684916,-0.00580092783258113,-0.0198478774900649,0.0186878390825428
0.0160141938570145,-0.0141020975210988,-0.0265447512052218,0.016468032499622
0.0214861578881135,-0.0163278277033497,-0.0292865665386273,0.0112650424462492
0.0239113381449642,-0.0150779136480195,-0.0271612763990651,0.00558384706159226
0.0210721778841689,-0.0138654220782641,-0.021635013211227,0.000386966900327442
0.0163722292077236,-0.0129262484946173,-0.0176981936118869,-0.00536248100738206
0.0164078958769696,-0.00804778207114785,-0.0163306318395084,-0.0121978565818897
0.0189668978579635,-3.09960549202755e-05,-0.0155527898085388,-0.0180623837842004
0.0184337578470067,0.0034746712233052,-0.0130979554869311,-0.0200148114946476
0.0158717147157549,0.00151527331566323,-0.00861340106151185,-0.0172063264130718
0.0142048994055913,-0.00205264604623404,-0.00698726508186475,-0.0110428647316193
0.0161877340880661,-0.00511155836609359,-0.00858234012258032,-0.00389902306139782
0.0201479103768885,-0.0060567771888068,-0.00993802336607733,0.00213108869494806
0.0169216379544042,-0.00674812927552287,-0.0102042419724938,0.0065181952196663
0.00741334937183758,-0.00717685124587781,-0.00924924681375727,0.0095271324859221
-0.000150528601992987,-0.00475886321385623,-0.00802272399383328,0.0107060290952195
-0.00671544636951785,-0.0037732210339146,-0.00747773598668929,0.0100705892777008
-0.0181620872111721,-0.00890064028914639,-0.00741999797294735,0.0088295531122268
-0.0355538409672589,-0.0197553064187567,-0.00718089828079904,0.00743818683453235
-0.0440279615500398,-0.0314187990478144,-0.00761697676975788,0.00525080882718779
-0.0306694865041264,-0.0353976717817468,-0.00823407392384215,0.00206486596796906
-0.00819043054340522,-0.0309352463363656,-0.00691860627563701,-0.00130137146728387
0.00559226200743358,-0.0228621041354446,-0.00450942327897556,-0.00357982376769585
0.00843585168004858,-0.0135546106454412,-0.00291368335460072,-0.00438949083213779
0.00823195902409347,-0.0035442279575571,-0.00213606392284924,-0.0045117413489075
0.00945975098345316,0.00476070478506544,-0.000830561201908617,-0.00449348045461729
0.00806960050961994,0.00743070037178132,0.00193077142198167,-0.00444536244712128
0.00533289627071939,0.00567474100635398,0.00529354840570638,-0.00472788306984466
0.00637029101698738,0.00464206723590182,0.00620234076917615,-0.0054579995539147
0.0079450976365931,0.00468472660565931,0.0044430163272035,-0.00619799905883941
0.00675484737798365,-0.00148671730377463,0.00319530097181183,-0.00637148046128845
0.0017581881513487,-0.0136098112898831,0.00339896750887994,-0.00600255914879182
-0.00714422076278215,-0.0183600670917913,0.00402872075156302,-0.00539531255814425
-0.0159870523742731,-0.00671254846154716,0.00419481706437286,-0.00324039192593939
-0.0212030955626911,0.0112658626605731,0.00617460505452329,0.00226254386051436
-0.022425554253796,0.0155835193126445,0.00942123144991226,0.00940410311206911
-0.0216330902642479,0.00288076370241044,0.00895440596912142,0.0137843862668116
-0.0209464246160948,-0.0107230662895812,0.0067118321801967,0.0132107803632816
-0.0194522977722555,-0.0147211984965698,0.00591984282465973,0.00876580023440454
-0.0158153912604428,-0.0135499260133318,0.00593588229904755,0.00275000530575244
-0.0111814853507486,-0.0119980670466059,0.00628051818120956,-0.00252051967522681
-0.00716984693342414,-0.00959898742115585,0.0056573016762378,-0.00553560667817116
-0.00743545331787273,-0.00602686094395372,0.00519728254297635,-0.00594638580759196
-0.0132607060960028,-0.00292120662591691,0.00559650244865634,-0.00414696415679939
-0.0191675025917751,-0.00023976162700587,0.00419399741780703,-0.0014688068567007
-0.0210657525152836,0.00164891469923866,0.00218088979265899,0.000355474105280676
-0.020790468265371,0.00113360258645606,0.00250575774904272,0.000959858330932268
-0.0225178952368137,0.000792581836317831,0.00310933764175014,0.00130099978280274
-0.0258947813211599,0.0011904912648846,0.000956655205064641,0.00207921726173907
-0.0261673523196038,6.41416590966767e-05,-0.00242556195379866,0.00292743674628197
-0.0229936402819745,-0.00249371617273872,-0.00463595322111692,0.00282090178469827
-0.0201434583135493,-0.00398449115976886,-0.00625975670308324,0.00148049295243634
-0.0194026394681181,-0.00342113768533131,-0.0073318420150904,-5.45719925157421e-05
-0.0185253416474719,-0.00484278046105062,-0.00752708865951441,-0.000690619304464859
-0.0121756441129426,-0.00915146286499978,-0.00903566319561159,-0.000476388197787061
-0.000389928151159936,-0.0142309198244759,-0.0127658208962149,-0.000643721675889104
0.00671346538399197,-0.0153980391599953,-0.0144670993106503,-0.00197548719742108
0.00321680451744808,-0.00835997781536741,-0.0118266026010595,-0.00344570442370196
-0.0012634755203219,-0.00111942943017838,-0.00976818031271006,-0.00366907950240162
0.00300585813510634,-0.00172580901270522,-0.00964745386923135,-0.0028477637960436
0.0115569566322175,-0.00758910535512763,-0.0101018836736554,-0.00222731447161436
0.0148742583352375,-0.01219813452569,-0.0121839779341421,-0.00236651749540712
0.00973403706825144,-0.00934098019665106,-0.0140834804288268,-0.00264133946271693
0.000355523576450051,-0.00073782539337201,-0.0143278668928471,-0.00187251112757282
-0.00514703820235176,0.00565300360008466,-0.0116641813113343,0.000247304042077922
-0.00425304254559463,0.00628908903382477,-0.00824106695205332,0.00288166084735934
-0.00134058352225028,0.0034704940665587,-0.00937613049768954,0.00496463438840816
0.000479401244534142,0.00140085937612686,-0.0121430783119999,0.00531357554364511
-0.000531066957569357,0.000814183229497775,-0.0118501938228354,0.00399987628176256
-0.00575385564761235,-0.000194479695789887,-0.0104399397604536,0.00269814523121462
-0.0120688057780343,-0.000437321741071174,-0.00852760925285381,0.00237869572773456
-0.0132127485116964,0.0024987251609629,-0.00529097578539533,0.00291449264467297
-0.00865370889593105,0.00581291406325896,-0.00422692029336317,0.00394104903741961
-0.00179135549353946,0.00480591346059387,-0.00724220065288445,0.00383755907772344
0.0041961530417487,0.00205609537719911,-0.0103650871207801,0.000804321979153652
0.00569522451710519,0.00168719283007017,-0.00963756646766346,-0.00373037943162037
0.00575966320980849,0.000203025399217397,-0.00788599539317698,-0.00694894942102323
0.0108118203106321,-0.00327868008045758,-0.00750310753761019,-0.00849508248102956
0.0197707275273913,-0.00248985690601413,-0.00607224773841102,-0.00935198723321578
0.026004340989044,0.00202730473234561,-0.00484895195092722,-0.00943761888045322
0.0258516984056878,0.00516639983517677,-0.00473413266829771,-0.00789862562472737
0.0235857211420211,0.00915098432715106,-0.00370222673058244,-0.00475556679848027
0.0232061627301311,0.0154101527692937,-0.00254762911553691,-0.00122380197091834
0.0223685602066707,0.0179632126726834,-0.00249197645601574,0.00140757434564597
0.0179730915777186,0.0132960862601869,-0.00461997151834084,0.0026105332813878
0.0086481397486052,0.0060235591104737,-0.00810321135521722,0.00282606235200022
-0.00206038755149133,0.00144877393841249,-0.00896789263838353,0.00291328435348635
-0.00659564041567668,-0.00159518482864408,-0.00748886809158715,0.0032806261221889
-0.00253221949642096,-0.00617300862948802,-0.00652049157246138,0.00369657842826938
0.00313171136860565,-0.00907996306380076,-0.00586574211174319,0.0038598617845763
0.0023428081498535,-0.00911952947764279,-0.00384474997806514,0.00370191881743087
-0.000879797271520539,-0.00991758896809019,-0.00130129184293665,0.00310393714715949
0.000647411654763936,-0.00934612083134576,-0.000343713323473748,0.00185375941061733
0.00435067928252852,-0.00656980301938442,-0.00135565681584518,2.91554946157393e-05
0.00677005252876456,-0.00432272985298683,-0.00301737298519271,-0.0016341311945945
0.00797431573065405,-0.0036549612742893,-0.00413570951559952,-0.0023270895832949
0.00670228143744499,-0.005007603037649,-0.00695222037706314,-0.00223589304413418
0.00566968692983207,-0.00853907495783656,-0.0119650829040219,-0.00212994284899869
0.00868667526283522,-0.0112512070138038,-0.0181411915637865,-0.00250724241557116
0.0109923280846373,-0.00723257771087981,-0.0274095171743195,-0.00310599001011362
0.00958762167928348,-0.000201172437493027,-0.0385325613188895,-0.00283255381247523
0.00646048870912293,0.00117207317245451,-0.0465008185129878,-0.00138495409794404
0.00384699907685906,-0.00161524072871028,-0.0484763007915536,0.000107925168119557
0.00529973262171295,-0.00329175700922701,-0.0443600021526635,0.000729507820141758
0.0104807355640165,-0.0029863054134731,-0.0370470613197468,0.000366897972037641
0.0146380438156729,-0.00253339336511864,-0.0292049899464595,-0.00050013933830428
0.0138940120382437,-0.00276096726313833,-0.0218556677942322,-0.000925617500093212
0.00842097084460624,-0.00382081084084707,-0.0163323480111625,-0.000301734438891134
0.000323681021269331,-0.00864892881600462,-0.0125881320176152,0.000963661037948163
-0.00751349711075639,-0.0167418530301699,-0.00963045933635519,0.00166029247405461
-0.0141104154982682,-0.0185877476281502,-0.00654027164515074,0.00151269739963514
-0.0203501917240906,-0.0119330345228983,-0.00398947368070965,0.0016740295348655
-0.0243787399280352,-0.00761488747577333,0.000346008456633674,0.0027366872023815
-0.0256966817509697,-0.00934376656443945,0.00916985371182135,0.00397513147969352
-0.0217292085741563,-0.0112904837064188,0.0177906168354987,0.00435811640473357
-0.0122068250677708,-0.00957822932166399,0.0221919082387251,0.00348429679819029
-0.00489040095511786,-0.00586598727187173,0.0223762781936996,0.00183235666250726
-0.00172174257232182,-0.00243536766597635,0.0204309658889845,4.97917444942453e-05
-0.00176376738782102,0.00260488800014364,0.0194874864017499,-0.00130391327834072
-0.00284817994910897,0.00451644518373217,0.0160410801030451,-0.00164814781649773
0.00100682117786086,-0.00203608382086371,0.0087818313249298,-0.00108329691686193
0.00464595211588129,-0.00295862274125937,0.00500096758086964,-0.000455719826069868
0.000524862631646899,0.0113475334443852,0.00569208559272887,-0.000126983813480445
-0.00539897265763012,0.0243688155691548,0.00665891825957099,0.000552572304468502
-0.00669228137880027,0.0232739461396663,0.0066147350958345,0.00173924601274833
-0.00649512478437258,0.0151941269630259,0.0059593817938018,0.00266437878315725
-0.00703391146373757,0.00919629900319018,0.00681776461045661,0.00300217560503508
-0.00740058843986019,0.0059810183369764,0.0100125847330026,0.00296687675387375
-0.00838469357021938,0.00513924638676577,0.0141641497743474,0.00268586165320098
-0.00743476918043416,0.00795174294307888,0.0178469794094485,0.00218311722834062
-0.00437585512922139,0.0102084468692681,0.0206189330902814,0.00165106592745247
-0.00396192897027394,0.00932303821519154,0.0228857546522073,0.00126284764460072
-0.0047405989616398,0.00812581239151382,0.0236216308533193,0.000721295539408655
-0.00277424945322651,0.00617834297322159,0.0228997971167459,2.01252212416578e-05
0.000434106951865109,0.00215756900210687,0.0225705688282034,-0.000608345199948133
0.000289381085800353,0.000831147479447531,0.0248357734652637,-0.00150610161603033
-0.00367931620219986,0.00787827406188897,0.0305706795743828,-0.0023459115031348
-0.00703242044633697,0.0169326939154758,0.0373703477059292,-0.00186374894288325
-0.00837900956000885,0.018218631719644,0.0424355859191867,0.000149575360279379
-0.00798238698125211,0.0146965342558457,0.0451555717696825,0.00222322062786314
-0.00674952655123691,0.0150409370537923,0.0460197899761813,0.00352629642924787
-0.00733628855191369,0.0198415832767107,0.0439512527295736,0.00464021842310077
-0.00856729267962937,0.0247685670207993,0.0409470518966675,0.00500679381851078
-0.007501473661731,0.0271297283011808,0.0389533072598949,0.00329276858626368
-0.00473266529169274,0.0243119939858166,0.0354254175685319,0.00029074022838313
-0.00166901892451872,0.0171272450379526,0.0309129600686665,-0.00187868204120419
0.000632563657934145,0.00945381927664767,0.0266840296583362,-0.00276417977354186
0.00235912449947078,0.00606935332916468,0.0224439123299931,-0.00315063302679402
0.00357669785279211,0.00958606747019441,0.0187963888903055,-0.00322768103410644
0.00400445176124842,0.01445772628109,0.015906672712022,-0.00295795514137405
0.00736839203324283,0.0133574075296749,0.0127039187311008,-0.00255531444387236
0.0128260668602809,0.00677391163055974,0.00860231209479769,-0.00206713682842988
0.0153179619974452,0.00158672284112284,0.00586471691811577,-0.00116103130446858
0.0135331893248932,0.00117909650691058,0.00567050727628024,0.0003386838951924
0.00804477128834681,0.0028320933097673,0.00549799080161897,0.00186296452129573
0.00367393415648229,0.00255011087193837,0.00304087297896475,0.00263234950063426
0.00324630488477316,-0.000565890238794607,-0.00154148996590262,0.00220804065748596
0.00327527504145526,-0.00376425558758081,-0.00627585010855805,0.000445639367099405
0.00342349770396382,-0.00664237845939981,-0.00930598426103554,-0.00215398764230979
0.00539140425737802,-0.0104562113627558,-0.0105593569453751,-0.00488634929293223
0.00564633871600758,-0.0125787466520885,-0.0111720150207288,-0.00719625131684559
0.00131349346930998,-0.00842813470115825,-0.0112734396566762,-0.00794239306989697
-0.00472713715444479,-0.000400372214570389,-0.0091316914597529,-0.00609543210184631
-0.0083713924429663,0.00442105600193081,-0.00598573524439194,-0.00214926946748378
-0.00916819659143677,0.00522395510687528,-0.00580581936307307,0.00158641130410579
-0.00942895416773218,0.00344863936090763,-0.00832186583635198,0.00268893496593671
-0.00689378112912912,-0.00131059629508304,-0.0102600118979296,0.00103469592856613
-0.000120815420975277,-0.00697716576047527,-0.010575042820265,-0.00190790981041625
0.0056421142899392,-0.00681055300263857,-0.00999474243200135,-0.00466364897930193
0.00389899789860532,-0.000141650894102299,-0.00802714630744288,-0.00570390801723229
-0.00488267393812175,0.00278429620354868,-0.00563327857988394,-0.00413430298959324
-0.0125582624538339,-0.00188379234235146,-0.00618285237770963,-0.0010711588716765
-0.0133528032838272,-0.00845562857653918,-0.00954552531686967,0.000979289495116511
-0.00453893281132697,-0.0139058909735293,-0.0124694719001699,0.000908324866053436
0.00910725034859745,-0.0167755943246958,-0.0120202997542279,3.75658827063995e-05
0.0146288563292043,-0.0150934520142767,-0.008764593000809,0.000781554726645376
0.00984446678712087,-0.0121418356180888,-0.00691304496225826,0.0042773222984461
0.00394018535615795,-0.00981727279747936,-0.00593716189574759,0.00911707813710813
0.00122605466294621,-0.00770738199519523,-0.00335721202326612,0.0132173204414658
0.00208735009613707,-0.00683378672436864,-0.00148355624073991,0.0145190656834012
0.00601228712023119,-0.00403473366432383,-0.00152286341011517,0.0109827429498459
0.0109854812900285,0.001688512348585,-0.00167515928999173,0.0028549792543841
0.0141601143892417,0.00574140298436716,-0.00121572686807996,-0.00665887429989392
0.014346395758142,0.00795757883403827,-0.00166138646671255,-0.0140142427472831
0.0137130612499345,0.0113711208995367,-0.00275109078804826,-0.0176262263876553
0.0109167504505498,0.0142202943561941,-0.00267455549210129,-0.0170986191917216
0.00502505375386431,0.0136129761488006,-0.00264560078863493,-0.012140375857193
-0.000935632936542037,0.00781327317193962,-0.00583754799907434,-0.00449392769066155
-0.00466322279842245,-0.00174580050408972,-0.0110700460666538,0.00177682460967423
-0.00557865836675478,-0.00874042440390551,-0.0133039736826403,0.00438253594533332
-0.00491280391444268,-0.0105399094587719,-0.0126935058235411,0.00426741817883075
-0.00454999098209384,-0.0090512980627738,-0.0108937596763935,0.00311961737916911
-0.00471464067541511,-0.00714828921457886,-0.0080478301019071,0.0032648664607236
-0.00250196012261781,-0.00586958285006057,-0.00638354149615592,0.00682242273589513
0.00280095356569147,-0.00355801110477839,-0.00640074284204669,0.0120460450058775
0.0074895423098438,-0.00200457231325716,-0.00568021776257968,0.0150814716715017
0.0120584729149594,-0.00386244800472459,-0.00447445650317656,0.0144822070762697
0.0172677711134432,-0.00833049930396825,-0.00502826630895447,0.0116021733290062
0.0205348286408203,-0.0128169769145653,-0.00701083175628536,0.00809554414864395
0.0234399048381542,-0.0140452396434093,-0.00823182398237422,0.00375175223387491
0.0258251837764566,-0.010281736974736,-0.00674759199349761,-0.00146115184418609
0.0217708976147973,-0.00224961302365377,-0.00372387073825768,-0.00534728472055559
0.0101298198721106,0.00863815667036486,-0.00170619065052039,-0.00628521649171408
0.00085630774298574,0.0177411972764842,-0.00126380924866714,-0.0052924771292454
-0.000141547645810985,0.0198841724072708,-0.000458799710326448,-0.00450799070343615
-0.000499412652213293,0.0181004462105238,-0.000229008095102544,-0.00498714261835528
-0.00365791778995391,0.0151645228312294,-0.00332472965691586,-0.00574989229496323
-0.00386387773291738,0.00868580630947897,-0.00668328961868865,-0.00528423229504872
-0.000678785331901591,0.000546456365740397,-0.00799367632947379,-0.00379704460583985
0.00158518595103495,-0.00518481244594545,-0.0099510929357547,-0.00264529533259089
0.00197333188430394,-0.00836169068614082,-0.0127278313804599,-0.00204884458613587
-0.000641242282792175,-0.00925156731961303,-0.0145411735365797,-0.000915421944747898
-0.00395043446797583,-0.008703498461244,-0.0168994736927749,0.0008606744190373
-0.00203137692009303,-0.0114835016661295,-0.0188660556244351,0.00200838748246948
0.00294145011162211,-0.0163942318105446,-0.0182586927546433,0.00218835763487941
0.00576873487485759,-0.0157719742106606,-0.0165163404429935,0.0018515355999035
0.00654898222204011,-0.0114265490013147,-0.0157432459317444,0.00142090802255539
0.00727822539708326,-0.0108600357119245,-0.0168080860222222,0.00178282566142833
0.0101887394916334,-0.0125254496588888,-0.0168350923461984,0.00260467122634952
0.0178922692049434,-0.011553632010445,-0.0130848494989236,0.00204365730252032
0.0256795889632499,-0.00792092464032677,-0.00880743018178788,0.000634726993583433
0.0247606830417633,-0.00516372120210204,-0.0108627241230848,0.0004054344387977
0.0174549601288176,-0.00494738620688787,-0.01892558263435,-0.00050800185851833
0.0120361008318338,-0.00417450821708465,-0.0242168217466858,-0.00508290459877531
0.00898152744951222,-0.00177123790815933,-0.0238205615797244,-0.0111807041004081
0.00298284662439872,0.00224477450850556,-0.0200591738614641,-0.0134237631398854
-0.00439695301571129,0.0073214376084572,-0.0138730109402062,-0.00854813565359959
-0.00549683670656897,0.00892041685684516,-0.0094006051023031,0.00184760988160404
-0.00163127502395269,0.00715098580455356,-0.00761807589153798,0.0115587146272457
-0.00141158800602473,0.00611074094190528,-0.00611253295669452,0.0149447491234221
-0.00333436523060662,0.00569608577249737,-0.00581429392153767,0.0130079648438326
-0.00125563076122721,0.0026811550490332,-0.00672491288104172,0.00980616879791651
0.00221936177895514,-0.00378741583186197,-0.00857556407340559,0.00480150601108092
0.00431820090075278,-0.00863936528501184,-0.0117621992951776,-0.00350787078818607
0.00536860471731142,-0.0110899045724746,-0.0153513805315353,-0.0117043279234385
0.00444059157481217,-0.014202454668242,-0.0174819983642269,-0.0158845791150728
0.000391589723502325,-0.0144675460743525,-0.0183883578995338,-0.0157612016396985
-0.00277028011244149,-0.0123527134106865,-0.0190381993152121,-0.0128625404084894
0.00442097370015593,-0.012743768953752,-0.0204338300081055,-0.00936320944715492
0.0196573377818936,-0.0152036894894068,-0.0244340843615601,-0.00767578810197313
0.0258732886770873,-0.0181908026643409,-0.0301871169203993,-0.00776310192967344
0.0213615480200822,-0.017924466547186,-0.0346070320459991,-0.00677432563442595
0.0175033770329444,-0.00999159480352862,-0.0339126221445102,-0.00341204486414224
0.0128890510386118,0.00253888190971537,-0.0292310103652586,0.00112699021011147
0.00914278574320699,0.0135371467142205,-0.0247532443580037,0.00538755365040991
0.0135784760315154,0.0185844777313368,-0.0206120494829474,0.00807465538470056
0.0179508336990653,0.0157912912460105,-0.0192956591833542,0.00837276824909204
0.0113269887476029,0.00988207317342425,-0.022372885610657,0.00645494257887728
0.00124270398305165,0.0054752766367924,-0.0255660634650978,0.00374390905910314
-0.00155020819792741,0.00319010187056494,-0.0256372172927221,0.00202048285498807
-0.00219316121668306,0.00216694696889897,-0.022817069124229,0.00197211601614373
-0.00404137642682064,-0.00196585250040956,-0.0204419096297227,0.00299742275583433
0.000551225303503347,-0.0128070676447344,-0.0217704873901904,0.00349721676317595
0.0116513875442923,-0.0266096410616639,-0.0254468376947683,0.00151810997005304
0.0173668339897888,-0.034147362909271,-0.0253342908351674,-0.00364387396540901
0.0119223320019357,-0.0332793576416838,-0.0209509329065616,-0.010344113719236
0.00364953207636416,-0.0301996161764386,-0.017920978126019,-0.0153357493743278
-0.000956715379388448,-0.0265205913631475,-0.0173457838733501,-0.0160717935396267
-0.00415950602937591,-0.0221330764173759,-0.018277314950533,-0.0132339665655016
-0.00762539987394355,-0.0183571927357436,-0.0187282180912297,-0.00918271566837059
-0.00955806890763351,-0.0116788676309488,-0.0165387659429412,-0.00425935602502295
-0.00965796731122214,-0.00298943392274859,-0.0132289683295619,0.00238900765867364
-0.00905070572176456,0.00392138400220931,-0.0099874480078518,0.0100648601721421
-0.00666851950866988,0.00946783664584584,-0.0076391244545276,0.0163758873275022
-0.000971181030762809,0.00981636536715148,-0.0076151716049807,0.0188594673148644
0.00431923453602987,0.00317058376029383,-0.0100660908598576,0.0162099637438649
0.00444779256961974,-0.00310116078686145,-0.013104908290079,0.00874840313935533
0.000593649260691002,-0.00406490475163209,-0.013297107351468,-0.000843599062728032
-0.0059605286427106,-0.00172103682848955,-0.0110909862944394,-0.00821294337678157
-0.00904301262011031,-0.00286096705559227,-0.0103105390631061,-0.0105050880566444
-0.0038975561745861,-0.0117662116675156,-0.0124384825445048,-0.008854887793183
0.000666954435111498,-0.0230906838466947,-0.015830991790831,-0.00648056842211537
-0.00205603386031191,-0.0286080726144158,-0.0171261110430511,-0.00465494876593976
-0.00922589800418004,-0.0207221664502098,-0.0148511265335082,-0.00208187860861188
-0.0129226217663572,-0.00254404539900152,-0.00977556521570894,0.00265731497875289
-0.0084914427322512,0.00770909519922599,-0.0053536678429722,0.00879298578368667
-0.000970928597213804,0.000758972719508855,-0.00551344734881387,0.0137544223214948
0.00125908621367307,-0.0120981682882559,-0.00803807091163524,0.015425270454648
-0.00290151452590277,-0.0194959490621401,-0.00908996926069754,0.013540703470592
-0.00601478946922743,-0.0210727031806168,-0.00756258033239358,0.00985749400807177
-0.00419849574148997,-0.0176442633785735,-0.00525835530044845,0.00698007469335707
-0.00336439998278037,-0.00893559548360131,-0.00340515768182529,0.005995529590276
-0.00985591868461887,0.000129821974300803,-0.000833090021052062,0.00596275003951168
-0.0189539848874552,0.00454744301771307,0.00150942022673341,0.00594432344313114
-0.022968208818888,0.00522407458519321,0.00172738270047871,0.00530515274057975
-0.021573368556205,0.00218115840622108,0.000385089735477778,0.00296412848501214
-0.0180375434658493,-0.00314077774306004,-0.000947539716303531,-0.00143582197172234
-0.0157740781894314,-0.00565884804416104,-0.0014905917811824,-0.00662977509806856
-0.0166902590231008,-0.00468417076229798,-0.000537264785092337,-0.010357697357336
-0.02175606775564,-0.00132101965369954,0.00119855023651176,-0.0103643739874153
-0.0283277796231656,0.00368925917335355,0.00327828847199892,-0.00564725370018435
-0.0311949140644735,0.00894318217533583,0.00548461825769983,0.00259271322129096
-0.0286651450045695,0.0113568202617201,0.00663501556868682,0.0107272285211817
-0.0217371665814948,0.00874750237369191,0.0063836524922599,0.0145482732288568
-0.0142257071531951,0.00438458932463213,0.00363842615472557,0.0126711516924162
-0.00977645005527441,-5.88627079227393e-05,0.000660653709719308,0.00876450613021852
-0.0082589665182242,-0.00317345444058032,0.00127388739486488,0.00758765611587644
-0.00944886695009915,-0.00280144425536721,0.00270320369269255,0.00719955412674016
-0.0125290260232282,-0.00150586540137717,0.00278649721166754,0.00232319951473508
-0.01608550254629,0.000122097696215928,0.00115256523828855,-0.00559636345313621
-0.0203556194724831,0.00390014773108643,-0.00138743130012424,-0.0100631758246987
-0.0236185927200284,0.00854973859420606,-0.000964256476391454,-0.00938745170484122
-0.0234678953335775,0.0132830474214144,0.00143170911872412,-0.00833541646118543
-0.0186459984358109,0.0136042079098502,0.000894613441835689,-0.010745237959273
-0.0114722689308259,0.00459652373442825,-0.003403306927897,-0.0151522229377946
-0.00956555565084914,-0.0045361513206572,-0.00628883781542616,-0.0166702989679877
-0.0147503324241569,-0.000258015159314243,-0.00368785273927543,-0.0101456783880743
-0.0204270366748803,0.0122438707048053,0.00210686930604312,0.0050543011263811
-0.0202332551082725,0.0163269361035148,0.00553193022916288,0.0205960524370402
-0.0137182101493058,0.0101499679983638,0.00563888286408284,0.0255251165679627
-0.00976945656371677,0.00400144514502536,0.00629519383114049,0.0164622506528369
-0.0169367290918304,0.00408414757927454,0.00903742453089412,-0.00163119412168925
-0.0272321073345399,0.0082096025729439,0.0133691561977545,-0.0194540986408651
-0.0287281801638667,0.00905415592300339,0.0181893471441692,-0.0290673435919812
-0.0253357522307705,0.00620599648834175,0.0201092347293264,-0.0284072991604972
-0.0245319262504553,0.00486545614527493,0.0164346865043073,-0.0205153812067458
-0.0264190864100967,0.00470451589229231,0.0102711069500067,-0.0105368661333405
-0.0272500653169516,0.00523014188957923,0.0082811154503333,-0.00218749784968412
-0.0242217565104897,0.00633383888948875,0.0109047906438589,0.00395881621296395
-0.0200066167866241,0.0073020356746028,0.0141018774157403,0.00818069486248365
-0.0177631696462618,0.00838559907038421,0.0170112148526747,0.0100642395517898
-0.0170444519679069,0.0111265566304096,0.0194261529570748,0.00965105120601922
-0.0164873508877924,0.0164976083875209,0.0217324599160622,0.00734766758267862
-0.0169509069737859,0.0204881348036615,0.024742947653458,0.00351293860809642
-0.0180043671689657,0.0213662045506496,0.027076220060368,-0.00104994691095869
-0.0170568770779833,0.0176160674428436,0.0276633201003583,-0.0047056358173843
-0.0135357694534028,0.0107250206546112,0.0281000983100507,-0.0064433503117013
-0.00586583681670905,0.0075017550982183,0.0296202883336347,-0.00650958187080569
0.00410968193268548,0.00738256112826182,0.0314277443923924,-0.00408387335514005
0.00714817279211806,0.00792285040218159,0.0322962938890011,0.00152990934361676
0.000461364683246865,0.00862041055685273,0.0333160664882214,0.00835681171510244
-0.00733498864600277,0.0089677041153206,0.0358984876116091,0.013362574493497
-0.00956787767146931,0.00941331528713861,0.0382301147945253,0.014882073685813
-0.00855145835861846,0.00779636273956005,0.0390370239412351,0.0133400973588047
-0.00795108373341742,0.00592824006568049,0.0391622291854859,0.0101003780292313
-0.00636632517238998,0.00820655683900418,0.0420522247163407,0.00434796305893584
-0.00315349126968006,0.0119333047782406,0.0472984420428843,-0.00461908905539376
0.000148792973555534,0.0116572043484724,0.0481024430655036,-0.0119095005389272
0.00284394212532817,0.00606501077049662,0.043049509193924,-0.0128978812925123
0.00332077596466407,0.00167075803696209,0.036987792536005,-0.0114221851308533
0.000632530315166874,0.00687881656314963,0.0355139619760181,-0.0129310955686065
-0.00558750849461377,0.0197667977318722,0.0419106361349037,-0.0122115942808442
-0.0143300688028029,0.033315944829008,0.0523179309245698,-0.000429981845090605
-0.0182090144169545,0.0443120934588615,0.059163319619354,0.0202454264591561
-0.0119783768787652,0.0482774849517718,0.059825398549791,0.0407906217065594
-0.00126905959143708,0.0419061140487664,0.0555156093305811,0.0513615632841953
0.00560050854324173,0.0320576488001307,0.0494955972727704,0.0423613627419937
0.00809958738126003,0.0240666422115982,0.044883942795105,0.0146108276299755
0.0110241702348706,0.00956807270518503,0.0394518033153496,-0.0192291667705845
0.0119657220724406,-0.00952641196916986,0.0323975173906777,-0.0437722581407032
0.00491159607867166,-0.00987453786390426,0.0286139137456226,-0.0414595357174806
-0.00478763958619392,0.00985290501335146,0.0315682095152887,-0.0062061004867525
-0.00773259721553513,0.0221578542371728,0.0371149085610361,0.0384925913471719
-0.00863065445280288,0.0203515388482564,0.0409999173737088,0.0584064856983703
-0.0135956046144068,0.0189774874072281,0.0459836637295765,0.0427212498994335
-0.0151798647305181,0.0155220611130114,0.0487942893436166,0.00800371941698433
-0.0094324962233463,0.00165364596081441,0.0448297486430398,-0.024688445792153
-0.00349960704888346,-0.00198897060880597,0.0412361073946024,-0.0412627460650981
-0.00581543253996408,0.0192442521305155,0.0421784520369963,-0.0333722805947032
-0.0117651967776096,0.0390378956372025,0.0432649444783128,-0.00675855082228596
-0.01140348940837,0.0382775723561023,0.0425397767696214,0.0189265851196014
-0.00712219327608384,0.0281820784213375,0.0397326061769673,0.0289405016883822
-0.00023923879461895,0.0197896434647021,0.0344166971345106,0.0219862290072561
0.00647124534237791,0.0170633991457083,0.0296127772746813,0.00374253466547281
0.00937872393706546,0.0206094890577423,0.0272136805267591,-0.0181620733371779
0.0154516532750615,0.0235210899441168,0.025420618281285,-0.0392935325274566
0.0216620966061774,0.0222870136382412,0.0247170828743478,-0.0538951443426991
0.0172401050430623,0.0209019038347397,0.025097585241838,-0.0486356186873176
0.00720726215239809,0.0198450250239814,0.0249045251706185,-0.021258707162263
0.00111120924853724,0.0158553399045967,0.0237298917094937,0.00912473260486556
-0.00116170430696518,0.00906366063541101,0.01791371829148,0.0260996386113461
-0.00254048089920797,0.00576132657926933,0.00940061888079002,0.0330453862791021
-0.00631990039054185,0.0110901113249528,0.00758729924533609,0.0405932925061029
-0.0127307134189797,0.0203846564015951,0.0132864461474024,0.0481988468430063
-0.0170014714743609,0.0279638754037514,0.0204980480342674,0.0450983162544862
-0.0149533653143439,0.0321203091212275,0.0250180250149324,0.0277321798684594
-0.00602754532987314,0.0295532065164292,0.0259833921596353,0.00441548898683525
0.00552290114079905,0.0219333293275995,0.0243656926810693,-0.0176561154883789
0.0164985996161591,0.0142653755272096,0.0200466007598974,-0.0372868727766133
0.0257260721794925,0.00552782439064344,0.0128872571251425,-0.0506760058354691
0.0259739951628877,0.00127640631442391,0.00685759688584691,-0.0489303821260905
