-0.0207790741686976,0.00848022589850249,0.0625388808201306,0.00223511494333955
-0.042175298788495,0.00533163421820433,0.0604112815199908,0.00421919673928947
-0.0456549460858015,-0.0103590938027032,0.0533447978739826,0.00425424850155065
-0.0321349935921334,-0.0176721055642377,0.0485174925563505,0.00059584752345989
-0.0213308548338704,-0.000902768893865348,0.0462503249296111,-0.00538125340317821
-0.0163456453632764,0.0292681602137868,0.0387010408289034,-0.0107653179692557
-0.00311298814203444,0.0436027551155015,0.0206653991862929,-0.0137875203944612
0.00891628241011833,0.0315580498328418,-0.00224793237752213,-0.0141109585916538
0.00306012014497076,0.0251483871083473,-0.0159044762382354,-0.0117644440410903
-0.012800147019557,0.035066423409246,-0.0138355550952589,-0.00805715230510074
-0.0240089963611822,0.0308633774735646,-0.0027590345893001,-0.00689201606078796
-0.023918193880979,0.0167208178680568,0.00940141983958696,-0.0113734267677583
-0.0168654916166023,0.0169272960342042,0.016737919874595,-0.0203180114244927
-0.0144868623055256,0.0195325274477483,0.0136238457995539,-0.029240886409603
-0.0207885881316456,0.0114068227845225,0.00448604606231075,-0.0329356020032302
-0.0400365637634026,0.00648473796188217,0.00154268641397368,-0.0286712874362824
-0.0761347178959143,0.0163635960885204,0.00827860354723903,-0.0193616259059371
-0.111256473963892,0.0324261587906271,0.0195195828952971,-0.012407118011118
-0.126238558911139,0.0384892774139194,0.0312447140197896,-0.0128206709453129
-0.119835696293245,0.0441580474256487,0.0450852886529554,-0.0161107092811778
-0.0986551084495278,0.0642805233296453,0.05867048961922,-0.0118219920750557
-0.0829246170517106,0.0634528428992996,0.0586071917301694,0.00294013223119526
-0.0875857891899169,0.0192858828212779,0.0397863914697958,0.0194476572554742
-0.105361071025249,-0.0349914639351679,0.0112007973007024,0.0283380806587651
-0.108398045222303,-0.0718280501137277,-0.0196996118382297,0.0259793810149598
-0.0738801041370492,-0.0802016211380316,-0.0467347051775531,0.0133511539242713
-0.0132142395137831,-0.0637907511452513,-0.0610619979321159,-0.00230203936220664
0.0456480012257529,-0.037841374881067,-0.0617122690579249,-0.0114743601226893
0.0740002705292464,-0.0202700124529613,-0.057194346304947,-0.0107618511025723
0.0810782916249723,-0.03699913957352,-0.0522274976288559,-0.0013452736333991
0.102047192601593,-0.0774562472728618,-0.0415186739299006,0.0148031164209317
0.1231346595193,-0.0988673352153197,-0.0241467304673705,0.0318006060003143
0.114614798396068,-0.0884392528712611,-0.0103903266908788,0.0396854076266412
0.0909561552158191,-0.0450163305934184,-0.00602754809909095,0.0289463581765848
0.064729199760623,0.0227595463471929,-0.00874878912968045,-0.00130833837168487
0.024666412697811,0.0673702154518109,-0.0174686954211142,-0.0372909275001351
-0.0249434022756732,0.0630985274845624,-0.0302765516682494,-0.0639587013932018
-0.0700400308640643,0.0333602752798392,-0.0412706240387994,-0.0776234276546452
-0.101348140893059,0.0115894196376777,-0.046235930148178,-0.0775125223373469
-0.118460371938013,0.0137224904478804,-0.0441722769462701,-0.0611516548191577
-0.129234756510977,0.0188870084372789,-0.0396639533710786,-0.0289913892110353
-0.134332986171697,0.0121748671197648,-0.0364595922618636,0.0143735313927501
-0.124845375495236,-0.000533685122195166,-0.0345536289275327,0.0585951930480895
-0.0918180483803058,-0.0224826315349527,-0.0367459626460169,0.0884710227449984
-0.0415638237006992,-0.0298068108377575,-0.039768471505553,0.0967331486590613
0.0109441730451836,-0.00225664907893831,-0.0377239903265834,0.0928905689587795
0.0531964326148717,0.0161954244188371,-0.0344659013245754,0.0899679852723093
0.0752477627800795,-0.00176671431459057,-0.0344273281744546,0.0880103660303631
0.0828860964191498,-0.0210664944595872,-0.0334981580988564,0.0772526012457447
0.0940769077446135,-0.0203766462232188,-0.0291145243426263,0.0540968453854341
0.11340318871926,-0.0104326974761572,-0.023518718107477,0.0262831991400664
0.128430268757936,0.00151919497635224,-0.0154823237400113,0.00178328850576062
0.130502807393258,0.00594479220722685,-0.00543323996429682,-0.0186504789539346
0.120036347944801,-0.0114644941351122,0.00247921873349394,-0.0374887356656074
0.0940248581373542,-0.0354829679613135,0.00736586375300352,-0.0550873679946821
0.0536531308289949,-0.0388314851043606,0.0118698769860814,-0.0682921094628928
0.0197680483317204,-0.025957493353279,0.0172850369843137,-0.0707647858506072
0.00563797360264384,-0.0145334580964252,0.0192882726066429,-0.0580523430764897
-0.00246239829873175,-0.0143983036293161,0.0158349738507053,-0.0358058217720284
-0.012121944891182,-0.0234674100604926,0.0104958188769093,-0.0144005372931275
-0.0142691945270552,-0.0291784447786485,0.00572455846832856,0.00459831557029559
-0.0064853561889169,-0.0222434777498984,0.00411278506542959,0.0277659735500808
0.00105856457911141,-0.00456719655779187,0.00583178725136421,0.0574374627076117
0.00411903804089287,0.0182203297427334,0.0068870526071709,0.0830201496209975
0.00921985114011479,0.0428925209616081,0.00722270547278611,0.0876672947327681
0.0155262145238683,0.0541025617997494,0.00921452585919721,0.0681393125549977
0.0163793606568511,0.0352194336689806,0.0109140075439233,0.0388563745872262
0.0074158287096554,0.00340692534005178,0.00994817864172819,0.012541588095258
-0.0121515674674099,-0.013879408919609,0.00820794888704503,-0.00819651037116646
-0.033835415076849,-0.0164979808544185,0.0082153771765685,-0.0224677576301244
-0.0425491734957519,-0.0182186467191502,0.00771464559513164,-0.0281756336501523
-0.0324921229239319,-0.0216653942179004,0.00547670366509236,-0.0261395633571674
-0.0125300889749906,-0.0193622896666099,0.00573105043490834,-0.0216752930320514
0.00800872183291015,-0.0121711477396578,0.00803886277752072,-0.0205210226370107
0.0243431938638971,-0.0116429405819495,0.00555927342823724,-0.0244550689270961
0.0289056416464453,-0.0242877204719562,-0.00369200622903865,-0.0321901135166116
0.0162868222331497,-0.0421813647207864,-0.0107438407061741,-0.042434332021916
-0.00593846922670803,-0.0565545005874556,-0.0075295340582768,-0.0525538569630856
-0.0256799506505412,-0.0672616874873304,0.0028095002339062,-0.0571387638660463
-0.040448927218852,-0.0696856051909321,0.0138685770851194,-0.0514830823607465
-0.054463811913162,-0.0564097043433031,0.0206393805418224,-0.0354289323699515
-0.0660629596207452,-0.0419568896071529,0.020138271637101,-0.0144411906967901
-0.0690596535002552,-0.0427179056017021,0.0143798362426525,0.00360214449003063
-0.070125867014053,-0.0375219149371823,0.00971019361573713,0.0130915134246731
-0.0813293233172153,-0.00677787387306256,0.0123821850017001,0.0131257665600486
-0.0930856849202266,0.0155703811033692,0.0189392586806731,0.0076195138045913
-0.0922770852171988,-0.00584988670320223,0.0182221679841706,0.00234821164795
-0.0853710810037359,-0.050752666663567,0.00767413849691888,0.000682562785350362
-0.0738089964024773,-0.085574010759985,-0.00709337860282253,0.00138618607741798
-0.0506961151855712,-0.0912776527484343,-0.0201137920424213,-0.000191052906464463
-0.0211523353538167,-0.0627617985816021,-0.0245022448106014,-0.00790037078140811
0.00974035319302638,-0.0280966811635898,-0.0188881215235112,-0.0209046072936677
0.050136688698167,-0.019330182210873,-0.0102832835953362,-0.0341134665569844
0.0839949504485141,-0.0289492179646308,-0.000927122613445845,-0.0423877306984193
0.0683253987203966,-0.0348598511029945,0.0111882759301304,-0.0437344718152648
0.00304063410693697,-0.030472085268256,0.0177224510173859,-0.0390003522227252
-0.0706763344893425,-0.0202354479293871,0.00912386667179662,-0.0306700531095743
-0.135581881140926,-0.00846578045936179,-0.00885700604132288,-0.0219578277867394
-0.189490085367065,0.00729677193082143,-0.0210620928357187,-0.0152315381242582
-0.206157143823336,0.0184114671666807,-0.0221643096928615,-0.0109374377585766
-0.173286416638621,0.0174018564314322,-0.0184925985342274,-0.0084121446025263
-0.114108541894993,0.0144045746916566,-0.00927398050290014,-0.00693603263022253
-0.0527816079336568,0.00226369359413089,0.00453127315164827,-0.0109115482387005
-0.00538770067026223,-0.0302095480075092,0.00831020675604105,-0.0328889272369359
0.026679950802961,-0.072519897000729,-0.00383242908955674,-0.0737185511666037
0.0517087798840174,-0.117185402637815,-0.0198237731598787,-0.108372347650529
0.0626063966974815,-0.144160670514819,-0.0295341715719318,-0.110598562910355
0.056484099686214,-0.123420069852447,-0.0341127690242532,-0.0782080925231017
0.0467019779903681,-0.0694179832327843,-0.039413588127418,-0.0282348618876019
0.0371018590921135,-0.0246568622358598,-0.0484611513594672,0.0217400836878741
0.0375788550839759,0.00458989831082114,-0.0541890203376861,0.0643820250578821
0.0542250909967714,0.0428448218020875,-0.0499756940820968,0.0986305908449689
0.0651031157269552,0.0820489433026204,-0.0399906494133677,0.122808915171243
0.0571043026204636,0.0829235511696289,-0.0297938710419261,0.136151941729635
0.0457334728645368,0.06687202832217,-0.0205980534547596,0.143137576017592
0.0439001514046482,0.0925304533543325,-0.0132441802857824,0.151169799489389
0.0357111687317832,0.133877351841886,-0.00953060840295503,0.155582720702537
0.00914417113609825,0.135514985752567,-0.00830227196376489,0.129639333553915
-0.0129752555246608,0.118364178796991,-0.00630748451320798,0.0522876779861733
-0.0161146763718282,0.117518882791022,-0.00576089730291967,-0.0552254308825061
-0.0167106011709625,0.105288862100256,-0.00961236371049618,-0.144258512357503
-0.0192740556893195,0.0594953022422011,-0.012489142249314,-0.18376734601347
-0.0166571916024884,0.00599167002937603,-0.0117630754137807,-0.175010684466123
-0.00942628436909557,-0.0396412002418124,-0.011672452573364,-0.135789570256081
0.0122807098132401,-0.0708663535735976,-0.0113401429615514,-0.0831814128471473
0.0578344039821078,-0.0790020287687528,-0.0110666068711736,-0.0281285745909642
0.102116778605535,-0.0785445835798111,-0.0141625111123127,0.021595551802365
0.105594843099213,-0.08007306397151,-0.0166659068560339,0.0604774593589178
0.0742466417332811,-0.0536636699647066,-0.0150130447668015,0.0868868325648257
0.0513842593372408,0.0152059188000749,-0.0100357388069814,0.102403283504277
0.0508150455331024,0.072301134630731,-0.00438195067885199,0.109756751740037
0.0533351791773572,0.0780461237711024,-0.00339366521535317,0.110874209808629
0.0440258388481225,0.0661546216318469,-0.00775803387375659,0.106000380287665
0.0344146123586973,0.0515062130940856,-0.0152305316482076,0.0951412356236605
0.0489417250948903,0.0265376783883655,-0.0199445732081831,0.0781593803872645
0.0748644151176422,0.0308429099342946,-0.0108146133230297,0.055874907755862
0.0855991469683951,0.0628258057381862,0.00772131901800168,0.0333881370539427
0.0860525212512823,0.0638563859122158,0.0230891848929932,0.0167770664618202
0.0820750961231155,0.0367974727915968,0.036019480596274,0.00756439138844052
0.0691128680088516,0.0341295585506138,0.0513870267932977,0.00441111061476206
0.047831603318347,0.0611744446597411,0.0712897025181204,0.00559672221191538
0.021608025613682,0.0751669743556588,0.0897354320698243,0.00837195634206654
-0.000770035036529268,0.0560241451180464,0.0956343557021046,0.00880721061217269
-0.0170623488852845,0.0134518118918279,0.0915228770683403,0.00384595256136078
-0.0328446293481694,-0.0225216770683498,0.0874723348706214,-0.00566757559714576
-0.0370709277013248,-0.0188442460425566,0.089928452985627,-0.0166202422772647
-0.0211316991511302,0.0139804222306971,0.0983542129677774,-0.0277636770066451
0.00260843084206033,0.0381159192480282,0.0995631789672535,-0.0385096592861285
0.0200142400470707,0.030528311317157,0.0897745951437342,-0.0461299571649139
0.0263204920281204,-0.00260292131671586,0.0818480563266576,-0.046671686710321
0.0280456034625919,-0.0323100255461173,0.0782541123527332,-0.0379880739716044
0.0278468964640426,-0.0339314157701355,0.0693864289927521,-0.0228443316459061
0.0169146541109308,-0.0137226794163971,0.0512093095140613,-0.00741992155683015
-0.00431063557257175,0.00349899878105279,0.0309853288971893,0.00372882488858176
-0.0204642366300296,-0.00411332092565232,0.0145870467208316,0.00910545198865922
-0.0206033953086061,-0.0351569534154369,-0.000573705329516824,0.00809632013026765
-0.0131504857852706,-0.0641597382787277,-0.0171161298649411,0.000924951980839164
-0.0160705075502895,-0.0833085337710504,-0.0420724728292445,-0.00835613454368701
-0.0277219946883367,-0.0911862358045218,-0.0671826957280801,-0.0145125786438136
-0.0285302550663793,-0.0807182443036381,-0.0623952223522319,-0.0168828705806867
-0.0182210872583638,-0.0602728099475183,-0.0286341925628348,-0.0179530533318968
-0.0138727675910698,-0.0371022827352108,0.00371783535157194,-0.0201540154566419
-0.0179324166224282,-0.0035116900422436,0.0208724955669181,-0.024995288365421
-0.0198408964178859,0.0386290855307465,0.0275928750115225,-0.0313827853618701
-0.0205766152199572,0.053656199887233,0.0286122573226562,-0.0354701791213799
-0.027858317457746,0.0242340436561369,0.0249293337264233,-0.0342261344943379
-0.0373344087227917,-0.0139224513941115,0.0171343250500738,-0.0287612884206957
-0.0427132685974733,-0.032960332952094,0.0066566870718399,-0.0230978710328134
-0.0392160728995655,-0.0383321183547289,-0.00519296456017199,-0.0206188708550685
-0.0207004302785529,-0.0427886058154911,-0.0187405815062388,-0.0222094628156829
0.00657113091706529,-0.055462089657386,-0.0315396869552734,-0.0258076168334202
0.0227077202721228,-0.0683279899661542,-0.0397322685127041,-0.0286359961285508
0.0127480011420855,-0.0608784659803033,-0.0432684215804543,-0.0291211166088532
-0.0140864995032702,-0.0357747042043553,-0.0470907495081839,-0.0254985791934862
-0.0332244721327616,-0.012037518893101,-0.0538731563954297,-0.0186478692586536
-0.0384371477266028,0.00832544160559361,-0.0587587676275955,-0.0129964345462515
-0.0481695572847073,0.022679740522724,-0.0647590082314889,-0.0101092861548667
-0.0731372005691091,0.0167063094453538,-0.0797237464722846,-0.0076981397605652
-0.0951658876538525,-0.0056444323061714,-0.0983674500280996,-0.00265690746980132
-0.0938296161649854,-0.0245487850311221,-0.111326370462701,0.00797247661025743
-0.0703616861684114,-0.0293606959136867,-0.112743178659282,0.0210438946392553
-0.0397823861092566,-0.0277284020524089,-0.10720014983507,0.0234725361941756
-0.0189231191659129,-0.0280461475577812,-0.10186348585177,0.00713405480407443
-0.0104850727319746,-0.0217370513781567,-0.0927669363963514,-0.0182700443615617
-0.00735878151211679,-0.0173155573144656,-0.0841674180748982,-0.0381124355045547
-0.00712666073526778,-0.0343304664151905,-0.0865816202200744,-0.0474491087454315
-0.0137671903526957,-0.0365715382777964,-0.092982329843778,-0.0473943791474756
-0.0423629297290057,0.00867284321979166,-0.0892858609803228,-0.0372189138544703
-0.10612364974016,0.042332407443084,-0.081664782569498,-0.0159453159290079
-0.186826408347868,0.0132658812376771,-0.0807345903544635,0.0127028586207597
-0.246543445198458,-0.0459433932474366,-0.0804900061190466,0.0408587106295813
-0.255386260445507,-0.0958272737759352,-0.0786056748156349,0.0601320560955841
-0.205856648379451,-0.129141512271705,-0.0780881166803437,0.0665906814563971
-0.149652000608873,-0.128550103399544,-0.0701796928826656,0.0628677534941434
-0.146759792072866,-0.086268173355416,-0.0497697676470389,0.0542281289996655
-0.163778973520956,-0.062257139648525,-0.0341963765174675,0.0428418823838022
-0.140822075903201,-0.0921382401552612,-0.0380798850742789,0.0252217517495434
-0.0900967124906325,-0.0987644851402776,-0.0436206581304309,0.000764168498491744
-0.0474900739416296,-0.0140475857118803,-0.0306668833524069,-0.0198633755787875
-0.0049298015658554,0.099098886122173,-0.00599843312584006,-0.0265273422658511
0.0558691112352188,0.132157564066104,0.0155587601384966,-0.0224616209375957
0.106433020734276,0.0867465320701841,0.0222223203404455,-0.0165479074850245
0.115640462777917,0.0456338844619412,0.0100816205712031,-0.0137235178944862
0.0938121434667432,0.0315684202706549,-0.0057231687081091,-0.0142516674619701
0.0574437088569864,0.0157887489049285,-0.00529587965885804,-0.0126914305885052
0.0105390131699259,0.0031325702509867,0.00877461351620221,-0.00129600016224485
-0.0409528339737321,0.0169736699051607,0.0217312696725668,0.0188868056182588
-0.0722627911878365,0.0551509027895081,0.0304594620497125,0.0340120765871314
-0.0531340010700532,0.086287600516669,0.0396316611447946,0.0327421754538673
0.00258445868300705,0.0686286292463192,0.0461836227731094,0.0206313975781816
0.0472535978290409,0.0196267906799593,0.0464942479348825,0.0102786597024357
0.0580544187410175,0.00380672030869422,0.0489927303316007,0.00822849366270452
0.0362730016023809,0.0103879626645045,0.0513742694966754,0.0156829683364557
-0.00797411148298149,-0.0134501739078472,0.0420233961633544,0.0288175471943553
-0.0381412928753552,-0.0333324263473286,0.0297115877545403,0.0388704958457781
-0.00569068700456518,0.00650080146205329,0.0283706480965875,0.0395614109353502
0.0710121194693084,0.0641392167144885,0.0301517189499203,0.0318964916725444
0.117339055108236,0.0760113929159206,0.0254219659278403,0.020496361382484
0.115770556102424,0.0444376303236808,0.025426990841332,0.00993663094969999
0.108457303058131,0.0100337327213107,0.0358559423105285,0.00400160645509846
0.1157037915759,0.00206493553440655,0.045897948219275,0.00206422075465975
0.124084481095861,0.0139194752288818,0.049701637297923,-0.00234529226323943
0.128174341455677,0.0241232844522204,0.0502334703797751,-0.0123732917112721
0.131906437777349,0.0320982509321154,0.0523900087124383,-0.0219518526556706
0.132882167167552,0.04650889851141,0.0567021937425558,-0.0246435692130562
0.13461102801231,0.0595934372616534,0.05918531326562,-0.0220274461314688
0.146079635742921,0.0659027014057969,0.057136536864754,-0.0192166909461321
0.159096599124062,0.0668095014976292,0.0533389825483206,-0.0171654816007911
0.158206605711727,0.0636731406868113,0.0506737329432105,-0.0135547600061089
0.148443844765157,0.0599382925540262,0.0478957737129124,-0.00757950379899932
0.143750373428773,0.0564240118552702,0.0448568888984503,-0.000312906609172218
0.143377733809831,0.0606534259808522,0.0441965494598489,0.00699873348443904
0.136788210467226,0.084359982162346,0.046169249780934,0.0129154938460384
0.124006750690032,0.11422720573122,0.0455282418366335,0.0159298681068061
0.114515532998821,0.113616942135499,0.0414532427515002,0.015715285247615
0.114673952707902,0.0811338252057453,0.0397992640290383,0.0137265571749836
0.123123638683899,0.0519671584280741,0.0428131833252957,0.0112866650826514
0.130452539130045,0.0370918217587951,0.0485632889921698,0.00831262689894882
0.127339215848967,0.0269689522172977,0.0523143725319052,0.00480185175037686
0.113600732604033,0.0231124579260185,0.0513849631018475,0.00111773982400143
0.0946722098018172,0.0267430864189211,0.0482164919422087,-0.00245443011482704
0.0785075890399435,0.0282093243403172,0.0441684074226092,-0.00566723911327294
0.0703863242224657,0.0203680989148621,0.0392612043553035,-0.0080771552704352
0.0591188603484266,0.00746344157142948,0.0330594553333627,-0.00891840325114451
0.035601704603363,-0.00384482161030664,0.0252227770898312,-0.00776813543908532
0.0182772928669812,-0.00682680204100648,0.0173354331105232,-0.00533297330763538
0.0251692086064175,0.00847987000230837,0.0115950879161809,-0.00372484258852298
0.0418854964925273,0.0334414621029581,0.00874871115065421,-0.0043562844434117
0.0459638853345753,0.0434106293386446,0.00538845529831616,-0.0065822086932907
0.0395816881170389,0.0353149557601551,0.000721275542172819,-0.00992449967730707
0.0304946516608016,0.024903399803139,-0.00171605679315095,-0.0137306676059338
0.0124140002883837,0.0181568067385415,-0.0017216368867261,-0.0157381385805443
-0.00906255894598999,0.0138726449141505,-0.0017504475925324,-0.0148579808083383
-0.0196739751940274,0.0129020446426692,-0.00224191187862526,-0.0127873587644164
-0.0282424870705036,0.0107603902797172,-0.00279015431127928,-0.0113045872062637
-0.0473820431887877,0.00574738663803234,-0.00391051634858063,-0.0102980418904294
-0.0681448166101504,0.0013387881732034,-0.00444771265059984,-0.00887063975273979
-0.0743733775767144,-0.00362375811949349,-0.00444321486261088,-0.00687132258813019
-0.0610200204643046,-0.00736205361595498,-0.00404298122849856,-0.00488103466970707
-0.0432211497125484,-0.00575244204110828,-0.00016384358752502,-0.00335745210661215
-0.0357738440283736,-0.00142118435042862,0.00708277950109427,-0.00279937631545658
-0.034054140353246,0.000273594705800305,0.012555828775439,-0.00337446945262378
-0.0323902594485558,-0.000484467363833002,0.0144983956177096,-0.00413211394206536
-0.0327821280194201,-0.00175907696399154,0.0140585398668952,-0.00399308500933996
-0.0363678670112806,-0.00346562346015552,0.0128443252760374,-0.00322976769554255
-0.0368605805446901,-0.00452671119090878,0.0136425970940949,-0.00326782906901258
-0.0325416846107237,-0.00247022158245234,0.0175192486449019,-0.00427548931539941
-0.0315718500031243,0.000740665087378342,0.0198683418848915,-0.00487581624327622
-0.0359528391953783,0.000499949798602201,0.0164945204839363,-0.00434361168921956
-0.0410937998966937,-0.00100126533845624,0.0118147748425522,-0.00282949463918695
-0.0451238348196311,0.000226737792038656,0.00956934025484825,-0.00079777289113424
-0.0477170903252691,0.00476296185161116,0.0101909266631285,0.001331963916389
-0.0444118434726638,0.0106789717489751,0.0131099427960402,0.00319093628466325
-0.0376638361192128,0.0115263220550196,0.0169878509264259,0.0042377700692265
-0.0403071598174021,0.0053144380287593,0.0225035741558431,0.00542410215510288
-0.0522848323692877,-0.00114480525435369,0.0266045579545434,0.00816226679297766
-0.0607739717358919,0.00257719753403983,0.0279210592607562,0.0110973207500481
-0.057258079424102,0.00748019422688729,0.0302041366418485,0.0130792941585331
-0.0417619282370786,-0.0126352509506246,0.0345815700569201,0.014737479643197
-0.0250810046056049,-0.0440385812252791,0.0433681556357506,0.0140638335206392
-0.0154532231597557,-0.0512755982062366,0.0563007359432223,0.00829251605793379
-0.00767549829658066,-0.0362872466730806,0.0688387874027906,-0.00174894274861648
0.0019444590720702,-0.0220121929841177,0.0805494320271554,-0.0126606571485999
0.00650460094996595,-0.0189019937376887,0.0909453824598051,-0.0193927127041185
0.000307166038710623,-0.021563328720948,0.098912776432838,-0.0193906890332182
-0.0159848783580036,-0.0239934474374385,0.106029054977011,-0.0169289513690509
-0.0388969649568278,-0.0262900535904118,0.112188918189525,-0.0173605416858221
-0.0640632477288607,-0.0211614062825882,0.114337091114583,-0.0197923276166036
-0.0854932124201785,0.00204514195683297,0.11090052427631,-0.0188240860399646
-0.0987301902679959,0.0423627720904908,0.105236683866469,-0.0111136883459679
-0.103782758475911,0.067767620728131,0.0922325044765264,0.000171692330839794
-0.0893570488904904,0.0427766134417598,0.0576614289441895,0.00540120792297268
-0.0507870681284803,0.0109762212676645,0.0103568724056054,-0.00321312910847347
-0.00538953865225075,0.039518689445351,-0.0270468682125071,-0.0216625531309645
0.0325466607793359,0.0822750512661215,-0.057278225699472,-0.036630532403367
0.0278327339107071,0.05143419137895,-0.0921503505674302,-0.0371152609757438
-0.0469569454322021,-0.0221834267557937,-0.122073164921143,-0.021593916297446
-0.135384765828706,-0.0544930851635613,-0.136977345693835,0.00276150581473483
-0.169009737111235,-0.0409324668901501,-0.146830368640872,0.0245116033402242
-0.157403393278698,-0.0185007695379614,-0.156832917241108,0.0354803905020581
-0.141384773076254,-3.09769588442473e-05,-0.152100412152622,0.0375902761091138
-0.120366980623771,0.00658927898855872,-0.123816155931925,0.0399991657102886
-0.0808093970205141,-0.0137659399442682,-0.0904429795521474,0.0488114671339227
-0.0429944090700541,-0.0529360694815882,-0.0699364949877864,0.0597288623447073
-0.0255058930921099,-0.081362882847557,-0.0539791986499881,0.0611667470547498
-0.0222436829318353,-0.0834671353594353,-0.0295129990108853,0.0443537081747863
-0.0170023918926729,-0.0730667974751845,-0.00258445962623272,0.00998422146507288
0.00252718493698044,-0.0688871882506154,0.0145715717262083,-0.0291907034941674
0.0364307178002317,-0.081367139388639,0.0196645915622536,-0.0547676095005104
0.0766379740276571,-0.1190857904766,0.0110986886604482,-0.0577519326104041
0.111488097500595,-0.14612537488606,-0.00913379542278736,-0.0428772725210422
0.120671871164687,-0.102241458748521,-0.0282573152989848,-0.019338453832085
0.0877441890360249,-0.0017434927621289,-0.0406687877396233,0.0043970498239336
0.0296479233521112,0.0827495227384878,-0.0554354634123863,0.0196617089673343
-0.0245477701243741,0.0953983647091118,-0.0799648761630968,0.0211542330193926
-0.0595024132247766,0.0337103953191229,-0.112664133778009,0.0104528351332884
-0.0629652411241566,-0.0397556735522858,-0.144972378970051,-0.00584561910703971
-0.0432939928995842,-0.0813245971830475,-0.166495108370515,-0.0194219403725535
-0.0305105957691574,-0.096547022566506,-0.174101866601314,-0.0235458622710306
-0.0265609929218115,-0.0842675577806799,-0.173398710946473,-0.0161693408252385
-0.00939697287727667,-0.057419905658235,-0.168771045885147,-0.000577941028529816
0.0167645840295062,-0.0537925727288537,-0.158579009905354,0.0175855091414469
0.0334192359143904,-0.0768881161152748,-0.141602762553946,0.0339506000165472
0.0361543419059495,-0.0850968990183245,-0.121822618361508,0.0466819613957798
0.0251926570019942,-0.0686109545400201,-0.105200676049054,0.0552667720712784
0.0154642854192098,-0.0520988059729847,-0.0916923591442908,0.0589703878195722
0.0315799388239079,-0.0367049239437905,-0.0754073033301098,0.0574027521123016
0.0660656512275395,-0.0048449888781795,-0.055582878197322,0.0515685128483494
0.0854154388783272,0.0402664864570196,-0.036856089501417,0.0431917088805557
0.0680962169753302,0.0585671810777168,-0.0217194588205245,0.033725642878186
0.0241812856386188,0.0258693361542243,-0.0135432071484075,0.0238793978300051
-0.0138495786497676,-0.0257829734225694,-0.0117510772901661,0.0140400935650424
-0.0263391520100537,-0.060485078790864,-0.0104717333344344,0.00481621114172672
-0.0168889847120603,-0.0736718240900365,-0.00589401396121943,-0.0035469439952196
0.00530839314673036,-0.0717045877345807,0.00454132657861938,-0.0111922079294058
0.0352803640609242,-0.0630224141053871,0.0189586066055526,-0.0177524949482043
0.0706830184776493,-0.0557503738729104,0.0310663694441269,-0.0223349008440239
0.0985081585669743,-0.0557874861665651,0.0346093796837032,-0.0247288934516924
0.104092352702729,-0.0460200832032165,0.0330874635917807,-0.0265313430265061
0.0936021676206423,0.000104538145739871,0.0374084475505889,-0.0292498103169221
0.0756829869019356,0.0535614756302961,0.0471531392094993,-0.0312258973105379
0.0483943937855784,0.0660460985000702,0.0538086542437148,-0.0297399349174611
0.0158401282580018,0.0463530252018124,0.052590344578928,-0.0249086806685424
-0.0109567293923757,0.0304100693833061,0.045205236811909,-0.0186045986722468
-0.0250032926773185,0.0313308848263267,0.0386048694180413,-0.0121989658255588
-0.0295570758970068,0.0458351661369948,0.0403177206246109,-0.00468696419947272
-0.0302122689178237,0.0660895541885861,0.0497649919284371,0.007490839551083
-0.0291126216912181,0.0745655752926507,0.0600227298652066,0.023874457415723
-0.0281182459198253,0.0654376352264303,0.0661119813949058,0.03679180797364
-0.0227130125633398,0.0551334900221875,0.0650326809763247,0.0373928362321929
-0.00310150707055198,0.0520111159146694,0.0614064915640496,0.0204397805479
0.0159170428604082,0.0463392097616887,0.0614619331776098,-0.0121518400926772
0.00692801687230483,0.0304072694809622,0.0611492620102366,-0.0483444269728285
-0.0165363840420099,0.00875025365517458,0.0583271998963993,-0.0731876829012396
-0.0294184405706568,-0.00371740598778984,0.0596043185597653,-0.0805517958660816
-0.0272622478402201,0.00335120035569966,0.0641322993049438,-0.0745666491797529
-0.0141852753378742,0.0178633388650328,0.0654181123440466,-0.0620927237384946
-0.00936512592323789,0.0232915159675557,0.0632425019241899,-0.0450709682952424
-0.0168819696101618,0.0225761528912297,0.0581745329872156,-0.0219617243449307
-0.0241504405283707,0.0218852044900085,0.0508563019589793,0.00293466222413368
-0.0363453209769226,0.0217453515091842,0.0438051104694539,0.0213980932186477
-0.0509828299026063,0.0297080018832884,0.0385667142262064,0.0326350909701691
-0.0562347024390159,0.0511849221137544,0.0337548958192805,0.0412211752083316
-0.0515953497593202,0.0769006224962655,0.0275312193648182,0.0453325143769671
-0.0373196261539414,0.0825514075491028,0.0206707487168568,0.0365279056174998
-0.0213946378493343,0.0551762520916211,0.0134920965472093,0.011456415522018
-0.0148730296697183,0.0169724780998908,0.00796076352327095,-0.0201197278725642
-0.0138885616976663,-0.0057058349201726,0.00729616231989425,-0.0418372059035543
-0.00615619304850991,-0.0104034315802192,0.0116512616942141,-0.0462656694935749
0.00969606977763693,-0.00472623773528146,0.0182471922855902,-0.0400662017747122
0.0169538964444001,-0.00338269002137316,0.0221768624425979,-0.0330727742915752
0.00920824041378181,-0.0152092909478966,0.0209393240344718,-0.0280500121723244
-0.00374560432288051,-0.0204090000673573,0.019075189349043,-0.0230583491210806
-0.0171662211548202,-0.0026705183356925,0.0207824019303278,-0.0172499154320013
-0.0221131637521376,0.00904596946571292,0.018690908314087,-0.0111343017838591
-0.00952995140551123,-0.0234795906389944,0.00463712071120091,-0.00589784533104875
0.0157625760077567,-0.0670912232029109,-0.00958028818206704,-0.00247170507770936
0.0303694200058762,-0.0618376863338467,-0.0105774230936833,0.000646030823833594
0.00949240200868653,-0.0282554102827947,-0.00392750667773307,0.00504236695994859
-0.0337530946956318,-0.0149177712619714,0.00338812157129842,0.0096164575798609
-0.0635825241984843,-0.01348300693048,0.00820104327798204,0.0132473518415922
-0.0689056703309548,-0.0153793493221549,0.00479280980200707,0.0162582346992246
-0.0683811494205664,-0.038599449113537,-0.00799430727423585,0.0184849888402241
-0.0720505264132996,-0.0692304749792683,-0.0198259935113217,0.0192690191196104
-0.0683508621359,-0.0790881501787129,-0.0249122221212475,0.0191387682742633
-0.052505494636863,-0.0673261288497552,-0.0284952836501531,0.0198697961246164
-0.0245700086922502,-0.0425380610178041,-0.0311977850349015,0.0228514492154399
0.0124683695539893,-0.01127678005246,-0.0307491663466454,0.0261543913557553
0.020782826206981,0.0180729207852866,-0.0270442264606469,0.0237711535997825
-0.0273206254400174,0.0435378550447207,-0.0208738857078035,0.012218771577625
-0.085632768967042,0.0644461078391976,-0.0162605448253699,-0.0045827451253025
-0.105370743648818,0.0735292766370436,-0.0156437806783649,-0.0201212823226814
-0.0971230619887724,0.0687713959816805,-0.0171751806508893,-0.0287892833567748
-0.0715914315932472,0.0496347682126928,-0.0230605024868637,-0.0269333296333116
-0.0217911050757341,0.0302407219040364,-0.0351493247052675,-0.0155173059461173
0.0305470554469778,0.0331116186575947,-0.0467346277409948,0.00161819481114114
0.0577602539907456,0.035510250226063,-0.0523409108847681,0.0196050272159123
0.0644211263958771,0.0169627438296473,-0.0515742499912401,0.032830316299469
0.0668181894482919,0.0105840761713793,-0.043558879354594,0.0399248763615245
0.0615161233481338,0.0279513546199325,-0.0363851330789999,0.0448408893960172
0.0430451455943282,0.0137056237154047,-0.039276558968289,0.051263355069733
0.0321982620052969,-0.0506265453160374,-0.0444675372312329,0.0592961421867119
0.0259460723309064,-0.0968985282809329,-0.0421055084955352,0.0623442110820344
-0.00844182167737811,-0.104997474607357,-0.0335286934969421,0.0477300694423344
-0.0599696016952996,-0.109435033177118,-0.024381495672118,0.00971886993632995
-0.0899356265930168,-0.105639979014548,-0.0153499571319174,-0.038804550404823
-0.0936002058461429,-0.0784502004997824,-0.00514328799709498,-0.0729520482241827
-0.0851003584425551,-0.0250520778270695,0.00279867981512069,-0.0744326796690727
-0.0699470978180918,0.0330560107163741,0.00662728969931956,-0.0454309732820407
-0.0494727501314854,0.0770933743013212,0.00494504809244515,-0.00523776110685205
-0.0259715381614024,0.130732593588887,3.10157328630989e-05,0.0259279922571382
-0.0100109258463351,0.189529833917597,0.00310146966946678,0.0388116681681457
-0.00137903500297605,0.209015843912015,0.0157679033872965,0.0349803593681295
0.0132051725446584,0.154778653891988,0.0286582651109606,0.0214260174194811
0.0383222754541486,0.0343826103579301,0.041928926964416,0.00628594555231533
0.0686324321583321,-0.0732279319637373,0.0580650824859059,-0.00414503004913072
0.0869440716868986,-0.0834533648227183,0.0703420888662064,-0.00677343856536351
0.076665208351534,-0.00663028494251763,0.0780271981867782,-0.00168242874769449
0.0417391071005708,0.0543831879231595,0.0845895537934163,0.00853598664278113
0.0103124756367528,0.0251385982638141,0.0835738717439327,0.0193132131018523
0.00235644992033954,-0.0458532283353581,0.0738100628748662,0.0263203247686916
0.00524964803559537,-0.0737668588974019,0.0694265994809279,0.0287024770723691
0.00366831060667752,-0.0617006518259934,0.0763481880061649,0.0289149366547418
-0.0022088348600816,-0.0596061690336839,0.0853008828556803,0.0293034270669272
-0.00852784315522372,-0.075478073840225,0.0921312059106423,0.0287575226545704
-0.00256092770819032,-0.0831817587627087,0.0989872677402305,0.0239306425642008
0.0328196708434058,-0.0622688482902494,0.0980132373196524,0.0134599677582287
0.0868626985284888,-0.0154912091947484,0.0782337032908053,-0.00133846124416861
0.125734750549864,0.0285054647363635,0.0463819324940142,-0.0168561843437762
0.133154752844733,0.0533932751637704,0.0191726694903681,-0.028096145481748
0.116566911628157,0.0737247315433476,0.00319460905394171,-0.0318755696662592
0.08493297884004,0.0759373104984194,-0.00661979341338641,-0.0275784617374891
0.0520608266892535,0.0366490037654973,-0.013097597796439,-0.0169364947684047
0.0303157837231657,-0.00906710786789784,-0.0134894057643195,-0.00350973502469309
0.0128927275725101,-0.0197487499795799,-0.00757294895843321,0.00981511382136871
-0.000100456942067978,-0.00644899184914429,-0.00135771210525623,0.0202221906306236
-0.0012464536924181,-0.00026702236975668,-0.00224044592104296,0.0244239142543582
0.00438507686136803,-0.00820140591598149,-0.012875746678752,0.0228373111746928
0.0144373038919045,-0.0181527269980339,-0.0299884384781419,0.0178150916717816
0.0218764402226138,-0.0245241951734909,-0.0417939470717095,0.00562980353516182
0.0107536177229888,-0.0234732013264267,-0.0387843772065242,-0.0198017505432889
-0.0171807071151288,-0.0169766421329239,-0.0239617993600061,-0.0533472040914997
-0.0427765487182281,-0.0178945405996266,-0.00641550635752214,-0.0787269550545324
-0.0614097696229449,-0.0191987405527578,0.00655705456311753,-0.0830713699758179
-0.0711339030807644,0.00237318582732496,0.0156535936673349,-0.066255818079681
-0.0619945760704981,0.0360245965932649,0.022639353781382,-0.0391818425001061
-0.045419008847848,0.0475603842366996,0.0225618204140745,-0.0150896727044466
-0.0299883539968787,0.039932242765111,0.0153116531567198,-1.66769955692314e-05
-0.00982015914883295,0.0330140442318723,0.00469925379409051,0.00871475847713309
0.00328492626577356,0.0269148095698453,-0.00960348387053033,0.0158663183299565
-0.00272119769103817,0.0240234201106748,-0.0265587693467804,0.0231039082226881
0.00132680032080841,0.0122972649774176,-0.0460317315708808,0.0276740733749799
0.0446453321123869,-0.028106489581294,-0.0680230195426998,0.0229690776820214
0.0905156827232091,-0.0638549724510713,-0.0844529847380668,0.00454921100241158
0.0984199689638298,-0.0559074109453301,-0.0893193088052142,-0.0234944367010569
0.0894972937923271,-0.0229504922826743,-0.0873067048998061,-0.0499405987092302
0.09494602641297,-0.000694079800815928,-0.0870412500772092,-0.0643136710566155
0.115600135420598,0.0115474871839587,-0.0923173995987124,-0.0640817448467228
0.132305440405938,0.0421593060524808,-0.0967745066918492,-0.0535693477152215
0.11876536393321,0.0764059185218789,-0.093703950285225,-0.038076910046533
0.0671382308701446,0.076679058005296,-0.0859366618384563,-0.0204323493871172
0.00368793133161271,0.0585047288590489,-0.0786764139039529,-0.00102919800237783
-0.0385627262502599,0.0443573377248557,-0.0725631927534108,0.0191789023121683
-0.0518934019938042,0.0260985097151327,-0.0667688036820134,0.0364236739355436
-0.0528681085913499,0.00486740090377871,-0.060440555196913,0.0464313842640763
-0.0572746126982248,-0.0102959096893155,-0.0538593863526104,0.0465423865834855
-0.0632326124270763,-0.0182735976093167,-0.0475504498817772,0.0352691759507285
-0.0576880501385703,-0.0137580860091831,-0.0390881589551883,0.0126997126038052
-0.0364965444246709,0.00268022374998574,-0.0282090559089248,-0.0166652329120373
-0.0186975619841796,0.0117018571298731,-0.0189536834112515,-0.0428278286312764
-0.0299795843131999,0.0130815678381067,-0.0120817403520605,-0.05710373207722
-0.0660514026992734,0.0320672388183909,-0.0041966611994192,-0.0580480303355887
-0.0958874806976642,0.058926728433439,0.00587718513680528,-0.0488909710590682
-0.098067497825924,0.0616503071660829,0.0155809179780144,-0.0327089019368568
-0.0658199945732027,0.0416195387473303,0.0221900391455678,-0.0118923642288805
0.000772649309922963,0.0160387769318608,0.0268583721293155,0.0100250242233548
0.0776560676049121,-0.00368261216095144,0.0291212394458086,0.0305443342265746
0.126963669256036,-0.0103600703036996,0.0265490308569763,0.0488365387364202
0.135407936762197,-0.00512752212078672,0.0231106086566652,0.0634914986772047
0.108068164828382,0.00221834971398828,0.0227124134268535,0.0741115380850148
0.0713357435476177,0.00724000665888708,0.0215889826146036,0.080896680707254
0.0644339599271908,0.0127554476473547,0.0161581463148092,0.0806638622253674
0.0840975012807443,0.00687522996757811,0.0122520015547448,0.0685765038982104
0.0930316147427374,-0.0138077732212288,0.0142236217537553,0.0456145361756389
0.0683520573907112,-0.0310984345678064,0.0176166843815599,0.0198280141575277
0.0151219778581419,-0.0417307406109384,0.02035403880948,-0.00128069712215666
-0.0407749819582249,-0.0458492311689083,0.0227545956953003,-0.0155056921711736
-0.0750794516633263,-0.0274170128075059,0.0248170126734724,-0.0238765294324019
-0.0829784718345023,0.0151818551596257,0.0307945777041568,-0.0277164028814758
-0.0659734495041542,0.0395535023408129,0.0379033788926613,-0.027785501009527
-0.0302766935401375,0.0164656536640356,0.0366364743871427,-0.0239394425800012
0.00146775262434007,-0.00870736111159124,0.0325557000085905,-0.0138347391247994
0.0129087609411775,-0.00315195543324138,0.0334363748103923,0.00427911857176131
0.0107106376960834,0.00880933194548023,0.0358259800462928,0.0251253569896307
0.00441347393946428,0.0120632983840391,0.0355667754022745,0.0383410067614822
-0.000176355350849526,0.00756048668392595,0.0301613548510604,0.0387444526383411
0.00370728362234778,0.00219930637505634,0.0220915149332242,0.0295214351448517
0.0119645468287039,0.0071240014343287,0.0171849358998207,0.0152544232162138
0.0145162181088029,0.0159048234250819,0.0161339119406855,-0.000602590814519074
0.0139765560271577,0.014550971903066,0.0130234831687614,-0.0153511731241707
0.0156467958582602,0.00411249428609083,0.00681266912227842,-0.030976710900889
0.0121417134415511,-0.00803894976139329,0.00445440400310166,-0.0463606932476635
-0.00044729995298267,-0.0172938566053577,0.00876717330261145,-0.0503786643577362
-0.0124580279322151,-0.0248913594185347,0.0168104404162324,-0.0359079229195808
-0.0159961599865412,-0.0404945925443664,0.0244317440430009,-0.00902048395017578
-0.0131245988739101,-0.0662464481984673,0.0298346722772459,0.0185725803425039
-0.011625469906549,-0.0946294007149471,0.0332381493737014,0.0413037812860711
-0.0206030757870382,-0.122671152566296,0.0295695890425329,0.0615305333538902
-0.043725706072934,-0.132444816926797,0.0172773096894014,0.0768508076894963
-0.0672862259147948,-0.0976146493880919,0.00917255108640952,0.075640556047003
-0.0699767432735652,-0.0355500319999238,0.0166918490080355,0.053459083842377
-0.0619505421094415,0.00204238688091399,0.0321697502023934,0.022053307448592
-0.0703604797980612,-0.00126997365242647,0.0380127760733731,-0.00529995064322117
-0.0900814154193299,-0.00503781089536569,0.0305629346880546,-0.0263578809297382
-0.0975274358972729,0.0206192090670588,0.0186460458457339,-0.0475332911561032
-0.084500554571971,0.051975188822391,0.00659200874451197,-0.0745245369996085
-0.0600040740855687,0.0495705987739297,-0.0055283601363384,-0.102682712737759
-0.0418957654402981,0.0237892589184744,-0.0157869441113837,-0.117795435554648
-0.0313339000900378,0.0298574888376346,-0.0195582791528341,-0.110003212384811
0.00533818017130701,0.0706550830181556,-0.0165469775465155,-0.0834552027838316
0.0669986361888463,0.0858026244830127,-0.0113976047786863,-0.0486032245853534
0.101016719403565,0.0604141317260436,-0.00368707823146952,-0.0114190243639655
0.0887933316961968,0.0423197961204587,0.00435306808528696,0.0253374491663912
0.0505217667059744,0.0370008363984398,0.00384595082120553,0.0556923542649504
0.00558128270909936,0.00996138122932586,-0.0062259944659995,0.0710957728467166
-0.0306542817197427,-0.0276148557873007,-0.0177718598184483,0.0679977859536101
-0.0534317239635097,-0.0523912274415831,-0.0250539494039174,0.0520432204209444
-0.0766515553760961,-0.0706487902629691,-0.0231990084898602,0.0328775155198444
-0.102033725890723,-0.0836760513987936,-0.00946236975684667,0.0181267370178439
-0.110748621019652,-0.115029207510565,0.00605496310244294,0.01185693015197
-0.0988755069005051,-0.165344446654214,0.0170776769518959,0.0134461407820897
-0.0680738446900168,-0.174549411081623,0.026055497221454,0.019515586775451
-0.0181884729824936,-0.13031553850907,0.0262053724088263,0.0260180806927682
0.0258602313973668,-0.0533675839102943,0.0145409274398847,0.0279273394963674
0.0333528199065826,0.0291455760115583,0.00315006607230079,0.0219180582114486
0.0165309200159828,0.0772556112374203,0.00123872719998291,0.0100027850351573
0.0131210263925681,0.0907212742149721,0.00427497871648504,-0.00172497290090062
0.0306135063174136,0.0765763173778834,0.00220154519296624,-0.00946617633448777
0.0490009717613245,0.035150966280919,-0.00662057015303819,-0.014975030799623
0.0489645757437739,-0.0192552582339864,-0.0149560486073108,-0.0205420354472674
0.030630511507359,-0.0686203030900566,-0.0195997001750594,-0.023924243564692
0.0147216941819826,-0.0853448448563828,-0.0219405281352548,-0.0228225282815414
0.0172470748043369,-0.0540679249898524,-0.022039376526674,-0.0212266089185102
0.0356507353285654,0.00233727697752295,-0.0214977331726176,-0.0232894929963641
0.0477225412785353,0.0485289205742884,-0.024487233051951,-0.0250664710445736
0.0376723004768135,0.0682177623446936,-0.0298112291156056,-0.0209881832152628
0.0251568929534021,0.0588714880814246,-0.0310831694638921,-0.0128357448538434
0.0339028255543141,0.0345788683592942,-0.0273246163697339,-0.00623383810981827
0.0534576709267295,0.031837770235942,-0.0202183075397837,-0.00259726889110345
0.0609786945187269,0.0610030244236451,-0.0109136398309357,0.00118300931550251
0.0529002004773383,0.0810150566023732,-0.0031189398794474,0.0075195369176821
0.0414414896113002,0.0656765123945801,-0.000511344730108807,0.0159364158363236
0.0373686207140951,0.0312955223498749,-0.00327000955844849,0.0245641779491129
0.042304089384141,-0.00296380636173368,-0.00756037631435479,0.03224805754997
0.05775150073979,-0.0297553201408824,-0.00959922733778609,0.0394051787869282
0.0853536294598374,-0.0444183942160222,-0.00765104963163918,0.0461265968996383
0.10864926789002,-0.04366408577856,-0.00381239226853879,0.0491053353196804
0.103943959067063,-0.0411430907105092,-0.001056756173562,0.0441925521904845
0.0676829363599313,-0.0560475504479168,0.00179403974696631,0.0327954750766545
0.015397310816442,-0.0762438764259499,0.00447844099128626,0.0197662968097797
-0.0271208342573643,-0.0790466843517449,0.0053510103535789,0.00426370569548012
-0.040270664267383,-0.074488125415912,0.00696002111518689,-0.0201088267070339
-0.0228570198854661,-0.0712107987182877,0.0126734909887509,-0.053012103207564
0.00633130179799014,-0.0553443512184273,0.0224252678861417,-0.0814068938441675
0.0201931916334856,-0.032898956581406,0.0302238693875372,-0.0914271971407212
0.0154954993248885,-0.0206653767087153,0.0292939152068331,-0.082034623607042
0.0114337700389105,-0.00774619453918191,0.0261761363674625,-0.0624062501806686
0.0143557331842258,0.0279689003591676,0.0322138615987812,-0.0406369538340735
0.0133584341209957,0.0739452821050991,0.0451739078012638,-0.0190980151758352
0.00356109225509676,0.0952540064686904,0.0561073449135979,0.00235262093780227
-0.00631487775071479,0.1049072423931,0.0643192637079409,0.0230142342258408
-0.00398484641655498,0.125679649803935,0.0705445204801556,0.0412219042724247
0.016944105706591,0.114703281952858,0.0664564059961295,0.0523871464202028
0.0450369673854342,0.0648473095719157,0.0537326817728374,0.0494372552202984
0.0574386862338302,0.0358237944096292,0.0471628137070292,0.0328322229691578
0.0486176891143393,0.0314661960182506,0.0497518377748369,0.0128879575027753
0.0254987485387687,0.0194753161291461,0.0503204257072027,-0.00126651250081054
-0.00287618211838761,-0.00126089502751801,0.0419045799798217,-0.00731018679863287
-0.025263325786601,-0.0199089242900458,0.0295220770062233,-0.00691381017387896
-0.0426239946026294,-0.0272703296870028,0.0183729466898915,-0.00176794833949875
-0.0611068554412652,-0.01990745588039,0.00701251747705819,0.00566468050005567
-0.0776998646595108,-0.0106232966769152,-0.00380091401953506,0.0099297141933412
-0.078986854042872,-0.0178396543563257,-0.0094799835086737,0.00699385807489538
-0.0623060751648379,-0.03783116597091,-0.00511919627455251,-0.00156950035796191
-0.0485851136576602,-0.0478010995698023,0.00970575574712505,-0.00913124524805013
-0.0659354054470256,-0.0488524888822852,0.0235225850285248,-0.0098052020660532
-0.112717820488777,-0.0641854491817873,0.0287479196830373,-0.00684343362495835
-0.144490815391133,-0.0716062209381894,0.0338680021532834,-0.0067351238698394
-0.13593480744254,-0.039534548066462,0.0430761128172938,-0.00587755343332229
-0.103828431808565,-0.0103305927548283,0.0460888585963141,0.00167784954720026
-0.0704970322486108,-0.0184780333361526,0.0366222451621369,0.00893883271428045
-0.0410771329267352,-0.0319742851869299,0.020315732517862,0.00523908068864595
-0.0180083945867286,-0.0248413288720829,0.000541980153744147,-0.00648636412802318
-0.00946667126310052,0.00812448250718679,-0.0226428119099128,-0.013437743936449
-0.0136402677644001,0.0516657577130346,-0.0414348220342102,-0.00886724254781426
-0.0284845047875943,0.0658912955499059,-0.0465030158195181,0.00171103874537042
-0.0390231813928714,0.0557984491171579,-0.0417514216354494,0.00846939489856394
-0.0252891605775451,0.0394487504226973,-0.04165880534116,0.00646296845032084
-0.00299105475728155,0.00308940504713141,-0.0514208983375193,-0.00397121404060401
6.39011945004764e-05,-0.0370010765271941,-0.0601101882699803,-0.0185770205767801
-0.0232955333481129,-0.0596959433750546,-0.0590130023615778,-0.0289995475251382
-0.0558294393146747,-0.0617161499305253,-0.0495187683825942,-0.0287343053216927
-0.0740550302042518,-0.039636691101412,-0.035632224713548,-0.01919702701872
-0.0835457559744106,-0.000852130182484589,-0.0241480824572329,-0.00641836150306888
-0.0990040130313803,0.0397373624420443,-0.0181978533212945,0.00355563179973885
-0.104058881387907,0.0685034169172531,-0.0143077978191353,0.0068102791832054
-0.0712975092676048,0.0851222748217071,-0.0131472723172611,0.00506615653119905
-0.00842306616654909,0.0836573779972292,-0.0197207205745183,0.00395322771018012
0.0503647570488126,0.0602806594020275,-0.0328191658728799,0.00602244089522644
0.0860737779742004,0.0317103938860103,-0.0454397078502898,0.0081808459626901
0.0973859317309951,0.0106381085995955,-0.0543549909618042,0.00584475256174246
0.0935085532176091,0.00245610896808404,-0.0616656917403995,-0.00128503395083685
0.0852601440979413,0.00590668735059448,-0.0703974899387484,-0.00983958270618922
0.0667480805258632,0.0182495501144826,-0.0765955082397675,-0.0180454089001458
0.0360302863056263,0.0286012573925666,-0.0740380431427817,-0.025655418999016
0.0146451234118974,0.0104359439712558,-0.0717616388156099,-0.0320026136713556
0.0146185548464177,-0.0284623090015125,-0.0764768094910169,-0.0366931594940449
0.0244375440867382,-0.042991241111401,-0.0743385301005368,-0.0387007912316212
0.0200413326328563,-0.0248687936921412,-0.0618605320706319,-0.035702099081431
-0.0116730887588879,0.004197946949673,-0.0507468575379933,-0.0259860016001426
-0.0406211821041988,0.0397285117080208,-0.0420989281579277,-0.0101885043273948
-0.0439212817782123,0.0778910276216609,-0.0319468136277701,0.00850974607307007
-0.0421286584323017,0.108617755869622,-0.0223899978319905,0.0258026572177817
-0.0359571562429712,0.124438338972399,-0.0149384997855893,0.037795498179967
-0.00602948090078609,0.120473461697958,-0.0068717855895001,0.0426568246215435
0.0340563370784636,0.107713829211616,0.00372885107887556,0.0429848935437498
0.0726654643309638,0.0977104902393754,0.0142759998478794,0.0409832141039195
0.118085235460626,0.0800666871757592,0.0191728193845493,0.033198125240124
0.152170626901883,0.0523218133378397,0.0187631121333248,0.0178753346752513
0.160879067177347,0.0276230831086313,0.0184569044621617,0.000898788290133998
0.164334283281873,-0.0030574835081178,0.0174889591825704,-0.0115221793054584
0.167758583368953,-0.0408537875347122,0.0149952436528351,-0.0198133917346577
0.157621981260767,-0.0462505278889373,0.0149249805738185,-0.0258645494882184
0.137328068424372,-0.0120093245483365,0.0192080161256111,-0.0274061946459442
0.114872241004172,0.0163833636745247,0.0268426649948686,-0.0215937277058864
0.0844685065054812,0.0151974678802119,0.0345272546747439,-0.00879232274723241
0.0464961409097102,0.00581186878495113,0.0402208998813963,0.00823443255496954
0.0233170767894272,0.00789365485104594,0.0440658617814145,0.02505997451554
0.0235471619530852,0.0118046880336477,0.0469056195550033,0.0375720070570016
0.0216112595919196,0.0127423582204727,0.0495584840121574,0.0448283835119225
0.00643124964809949,0.0177637664030805,0.0502199341110636,0.0473355154429815
0.000912203182606125,0.0156784528496064,0.0480299522368105,0.0450644667610432
0.0176049698420277,0.00217665338215262,0.0451597870007833,0.0387082530001584
0.0392901641116628,-0.00485267971799444,0.0435486536970745,0.0299215568262677
0.0558490047226771,-0.00356680986742531,0.0438933551338153,0.0206941171773762
0.0680702600101807,-0.0103149676304042,0.0457522615950743,0.0124793545173948
0.0684061542807262,-0.0269075777685199,0.04947517909514,0.00512438399108679
0.0553418466122984,-0.0426972776588007,0.0556037681484486,-0.000840379803403126
0.0341251975459328,-0.0535733774563046,0.0615146563746581,-0.00165390597653363
0.0144343526019404,-0.0546406315795609,0.0651472612391087,0.00642114270715527
0.000613203645217955,-0.0373589766371421,0.0690101172096079,0.0210033674230083
-0.0225046452687755,0.00151148702318614,0.0776413659666924,0.0323939712075253
-0.0546407918316991,0.0363087709745037,0.0867286973849989,0.0302908098064667
-0.0551303025688247,0.00720011619282102,0.0798049642806579,0.0119005081582221
-0.0124565298442279,-0.0765559974138559,0.0569147230733148,-0.0163406048563168
0.0185274970329153,-0.115044512278096,0.040703501347502,-0.0425421533258579
0.0102327153249502,-0.0841747678280036,0.0339461297393735,-0.0571349556713014
-0.0143263633281121,-0.0530826042906537,0.0213042971115923,-0.0587621983547057
-0.0333318338652572,-0.0481078811147734,0.00595951687201213,-0.0487695185442375
-0.0390228464481095,-0.0438006121331509,-0.00113541154483908,-0.0254539321082986
-0.0492651520979014,-0.030714538570516,-0.0033995254755797,0.00952659637613372
-0.0685842041492332,-0.0169314750764054,-0.00785817665588581,0.0437247450644434
-0.076743819186785,-0.00417410096924795,-0.00987383531322592,0.0605280359297642
-0.074228979238818,6.05111871187988e-05,-0.0043706434537301,0.0541135449073722
-0.0655641774055784,-0.00882881678762919,0.00199857595755175,0.0311466213215495
-0.0530657278781767,-0.0217985055831287,0.000153081249069265,0.00110828995361847
-0.0478895339089265,-0.0347863651222678,-0.0158032069179263,-0.0279670099824047
-0.0503975801279293,-0.0485368735561293,-0.0385713138584707,-0.0489916134901654
-0.0525746120857714,-0.0564066371230231,-0.0493746064193232,-0.0565191029058127
-0.0435408014030713,-0.0512218741582301,-0.0426868761417086,-0.0499525375932485
-0.0191989472663849,-0.0394448356501037,-0.0297669821968524,-0.0353452856236728
0.0141968479049858,-0.0375867478928744,-0.0228151177099891,-0.0205341097386115
0.0423821010467398,-0.0432527644779643,-0.0221481220167804,-0.00820118242565742
0.0450027389505576,-0.0310396780345694,-0.0191686243099922,0.00461844935257223
0.0250440543112423,-0.00375921905541417,-0.0133921696178656,0.0209408967238258
0.0111118982342551,0.00215936040783352,-0.0156971793369178,0.0391659406919174
0.00296360646132254,-0.0297397172581979,-0.0297589546600762,0.0516120745014944
-0.0322837003266526,-0.0695753863238183,-0.0437016284794284,0.0476391825819176
-0.0890061831975792,-0.083777893533321,-0.0480371079929983,0.0236906672673452
-0.130004143781435,-0.076529408899671,-0.0470193462673031,-0.00992521212921421
-0.136705475531877,-0.062413569712306,-0.0467628415766506,-0.0364839588152521
-0.113052942926976,-0.0514693325153429,-0.049626132933215,-0.0472205419680007
-0.078247715348833,-0.0513714166207807,-0.056560836211453,-0.0450457219640587
-0.0491357934146918,-0.0599825631590148,-0.0662985183611318,-0.036442478461594
-0.0380747661650323,-0.0708461293979227,-0.0747858035046084,-0.0258579652518531
-0.0463920719452934,-0.0769164042268544,-0.0769930910709357,-0.0152489529525189
-0.0564213806896608,-0.0674724738155578,-0.0753626277617998,-0.00475165281139894
-0.0588278928189955,-0.0416522646682031,-0.0741526660369274,0.00591185900520435
-0.0545850391673237,-0.0183974225830346,-0.0717176448152291,0.019383513248402
-0.0339483255084322,-0.0100769652867898,-0.0686322882266227,0.0393238725633812
0.00876440425590128,0.000572615797881787,-0.0662162768242458,0.0596577911221714
0.0519252280778164,0.0290112839550614,-0.0628867039897832,0.066121224665518
0.0621987430783326,0.0518296811561345,-0.0566323240629072,0.0534618096857164
0.0308807988980618,0.0477620956018225,-0.0485566321205178,0.0298351256434338
-0.0133553160373416,0.0351436519892186,-0.0432421355207365,0.00590414544144053
-0.0352831689380414,0.0337830375852582,-0.038879562940463,-0.0128767358815248
-0.0340067322048093,0.0313576381433423,-0.0313715362945298,-0.0265654202096157
-0.034037282754014,0.00503559065004359,-0.024506399989756,-0.037419904576764
-0.044517637068068,-0.036799795456335,-0.0202546585836835,-0.0460380882774448
-0.0547351341383052,-0.0615009760785045,-0.0172210103472132,-0.0489916390878667
-0.0567171523129145,-0.0605652666476194,-0.0142844104533804,-0.0408124161019415
-0.050169149267872,-0.0461544016070442,-0.00882395523402437,-0.020416437583583
-0.0318895482429722,-0.0316306846552383,-0.00152188386688231,0.00554192853201949
-0.00422916640321383,-0.0346378813276392,0.00627013752871686,0.0276679883721494
0.0225528326592977,-0.0552455488082244,0.0172038643269411,0.0412505968464051
0.0415370934678674,-0.0644552503382296,0.0320023539477339,0.0481392795577677
0.0508123972202465,-0.0343316974931041,0.046301576286004,0.0516571465989633
0.0628156168348172,0.0201853736779855,0.0565095796122235,0.0502973859535802
0.0774385476433554,0.0542067289162528,0.0619216185706693,0.0387722208567523
0.0738938129390325,0.0408317400825567,0.0635385837154809,0.0135049529852478
0.0466183275082106,-0.00435857342502616,0.0629735181573498,-0.0227326463798702
0.00536189805833238,-0.0319038992149193,0.0619602756134531,-0.058412617070421
-0.0335776477864076,-0.0260598049659054,0.0574564684671053,-0.0789579444589209
-0.0576572138831756,-0.0286617716805159,0.044951140124946,-0.077785876400929
-0.0748007169450644,-0.0523236523051054,0.0310105702669465,-0.0598871158536171
-0.100706753666478,-0.0616558532375949,0.0227928116514851,-0.0354936537019692
-0.125615092984774,-0.0472891921374072,0.017789305177082,-0.0131273255197043
-0.13240846359105,-0.0297121406192624,0.0100309971356372,0.00220354177641036
-0.130278740774403,-0.0233376353652021,-0.00471058048461718,0.0091226504147443
-0.123351403715087,-0.0345050962171236,-0.0227807825511827,0.00965578327982248
-0.109837206845861,-0.0436210544627615,-0.0325361293687059,0.00786432100816994
-0.120229894310855,-0.0256674903763857,-0.0269454366076609,0.00957711679531589
-0.160236748124011,-0.00868971713375861,-0.0128079845721432,0.0170479450295094
-0.187366854930661,-0.0118527765419908,0.000323462621302284,0.0218240429134273
-0.179671925022978,0.00636787742449145,0.00744550001482203,0.0135429255903354
-0.129295879834267,0.0591427358100665,0.0113639929641618,-0.00596560037668322
-0.0328353669880525,0.107012758053436,0.0198992629881119,-0.0259330287760247
0.069833909688599,0.132617838048789,0.0305853766730253,-0.0398056170798023
0.123699425301882,0.131877643201887,0.0359126138467064,-0.0501822659760255
0.125233407885292,0.0891898456068947,0.0347688167158947,-0.0596379340092733
0.118813573134924,0.0361143672536317,0.0304373025766187,-0.0627778983829473
0.123997825476074,0.012941234150497,0.0229444944776811,-0.0532849344202082
0.107818729743323,-0.0115586932225139,0.0128526863995099,-0.031808593671401
0.0519233983895888,-0.0422900297816199,0.0085682767154153,-0.00305069318543513
-0.0101894737699922,-0.0316002958436011,0.010775496690804,0.0287428163009216
-0.0442927347581289,0.0110188449864945,0.00965716400610408,0.0585459598195304
-0.0665598832308044,0.0294520356830346,-0.00246242922962092,0.079394634749237
-0.0957007431707739,-0.00222324770001181,-0.0247103970662579,0.0838136125257841
-0.10046178670992,-0.0316065641699294,-0.0476180556639275,0.0675430863304096
-0.0606525068141367,-0.00823226807788469,-0.0643531855763923,0.0343383499998708
-0.00584007205779483,0.033460575932191,-0.0687572532538778,-0.00187877840132597
0.0355142965885457,0.0603957000919648,-0.0584677762286693,-0.0252735761416637
0.0735983961004188,0.0730738718529578,-0.0455060301712987,-0.0340639247183541
0.125123091257346,0.0600346016056029,-0.0389436028085353,-0.038126843486407
0.172236399907194,0.0373717634313162,-0.0309692647130347,-0.0436007969722694
0.182351774624745,0.0552281565223063,-0.0181497242673354,-0.0481467374948267
0.150657140367655,0.112371657265488,-0.0099027735025217,-0.0440677584043038
0.100562558052776,0.141463585806202,-0.0113062829979205,-0.0255952715850708
0.04897845610791,0.102193889306917,-0.018061287721801,0.00306119759422376
0.00730887211272355,0.0335322726849095,-0.0254079412735034,0.0308400006180441
-0.0145869305601254,-0.0111036937224951,-0.0312665096536948,0.0506472145515124
-0.0174618686126302,-0.030156450100358,-0.0315136178749658,0.0629822112230596
0.00165119086010359,-0.0361731996145,-0.0243891224649808,0.071454093915867
0.03690640542679,-0.0212081310507783,-0.0145165619673179,0.0754397738820843
0.0644447002748802,0.0100219906449148,-0.00522208828603353,0.0681143690884657
0.0649823755869882,0.04080696193983,0.00407717802363486,0.0477232990613728
0.0497667165006633,0.0597045258384642,0.0123267249460131,0.025360446985968
0.0497476552789865,0.0584819629208521,0.0139173285329058,0.0111948863467082
0.0661967013330202,0.0460899199081772,0.0091304805461612,0.00204390006575478
0.0730898036678208,0.0436721834179177,0.00869478568241641,-0.00884303789060584
0.0720550716954523,0.0516329650494283,0.0168430361402783,-0.0199186347554861
0.0780008963495178,0.0464544250677425,0.0275796085879578,-0.0258876082870398
0.0802171284985117,0.017030772703047,0.0348216310292769,-0.0259960640845272
0.0744510486001327,-0.0111004942512059,0.0394861386408182,-0.0222291958403189
0.0666561650833083,-0.0160576672081321,0.041226555946682,-0.0148956232385766
0.0510928423465552,-0.0104549551942534,0.0354524924314023,-0.00265137427740304
0.0296971308251835,-0.01184186521618,0.0250762771071339,0.015092967591705
0.0188382365181284,-0.027103214424478,0.0136473818217863,0.0341771812220089
0.0280008180137028,-0.0491282206092493,0.00250963030796714,0.0447358773981522
0.051594350736046,-0.0637468973588579,-0.000339483900020296,0.0385213964518177
0.084082307368203,-0.0715709356498847,0.00813154835179021,0.0181867409069112
0.11572250387423,-0.0735323555546191,0.0159441519685262,-0.00352758728310494
0.130559664834759,-0.0593995357433479,0.010849020677943,-0.0155230524141889
0.133603077994189,-0.022321824702486,-0.00445974886917438,-0.0169673089226697
0.135395177525642,0.0102187230261106,-0.0175903486734489,-0.0136179806971405
0.118504158400108,0.0077039048382583,-0.0174970027871883,-0.00943579388678621
0.0579272943002504,0.00556064539261551,-0.00100740029832225,-0.00300986660311421
-0.024177553224921,0.00592136551467285,0.0218475186861173,0.00835104788663942
-0.076846276745039,-0.0386694655921369,0.0413993423089166,0.0205390906331258
-0.0957836544476252,-0.0958332005189434,0.0554537915141922,0.0240902914607136
-0.0927662459412022,-0.115885900745321,0.0586584914651105,0.0142176590611766
-0.0637904271496255,-0.109368052892575,0.0544120760419933,-0.00568790853283823
-0.0299280273112355,-0.106855742353617,0.0488480584455978,-0.026529405147186
-0.0153565145213467,-0.116094067919197,0.030274050050106,-0.039245285883359
-0.0205285518262887,-0.0952438518524693,0.0022300329821823,-0.0411153042804974
-0.0356318993569308,-0.0255839420551103,-0.00873463892774769,-0.0340455852593536
-0.0468496596538371,0.0530305188803477,0.00037519476787827,-0.0206387089218937
-0.0584679528679604,0.124063558169203,0.0114712578434269,-0.0053007195572416
-0.0766436961741892,0.181135567791637,0.014954182321486,0.00612341088878155
-0.0791720159914634,0.193570712507085,0.0130196081812011,0.0101801666430439
-0.0538467687610704,0.153300199441391,0.012494047279562,0.00777810144599097
-0.0146070262922601,0.08604566963645,0.0109452504269366,0.00233858976591787
0.0229219274959644,0.0223516294232702,0.00204930974433077,-0.00392250907477344
0.0446871115309178,-0.0244732754112519,-0.0102894340168255,-0.0109360192154307
0.032981229113091,-0.0523117730351412,-0.0187348450801397,-0.0188049732631199
-0.0099505319332487,-0.0443171814379163,-0.0184517121000359,-0.0267678628568246
-0.0497725600308939,0.00824007064044857,-0.00967141182619255,-0.0328044163374874
-0.0603433102859239,0.0662472418025684,0.00121731860817972,-0.034592676827136
-0.0458928245336692,0.0854846813534987,0.0100340965169673,-0.0321064178930871
-0.0209401724199368,0.0837309334283312,0.0179097005336541,-0.0272579211212111
0.0111088504382358,0.0960489814796701,0.0251344254784833,-0.0211547004273279
0.036886001937499,0.0945642956524344,0.0303710392644112,-0.0142949257228431
0.0327665196640663,0.0494516387821263,0.0310036496997002,-0.0073186999105101
0.0132332248555371,0.00513762192484316,0.0227618686062521,-0.000475022151060569
0.00957889323004435,0.000782050459965281,0.00783530669568228,0.0053626229382231
0.00951098697360761,0.00224203410129099,-0.00415587574600364,0.00895867305657293
-0.00586951072879713,-0.0124684973719963,-0.00614551108822225,0.00991948389367198
-0.0141179033057412,-0.0142774865058299,-0.00192117528010323,0.00835519575188167
-0.00704384006472475,-0.00170872801279939,-0.000265437832355261,0.00622846610755412
-0.0145253648871825,0.0104644408191329,0.000430284043899921,0.00788909405699853
-0.0424383822254429,0.0330583071542023,0.00582565680214873,0.0157350507979198
-0.0602692392622667,0.0553866996670073,0.0132834077669022,0.0258848253007843
-0.0475094114771779,0.0574716997298403,0.0155212181924878,0.0292522157456379
-0.0177805862535246,0.0640457664301447,0.0124957875823527,0.0187931894810247
-0.00546306195174489,0.101776778652632,0.0120239846155718,-0.0014194741652702
-0.0217704574587856,0.144100978784183,0.014345820081573,-0.0185953703423141
-0.0448171398334706,0.140339024383018,0.0147028088018944,-0.0250680347375983
-0.0530140861004993,0.0856256598919089,0.014877548794841,-0.0235167276864723
-0.0455572455849623,0.0176342748432447,0.0156554729261751,-0.0194189952000471
-0.0373070650536459,-0.0376094453660921,0.0123650817778576,-0.0148396105662158
-0.0392595234949321,-0.0702483621812554,0.00689213509419748,-0.00980593218572169
-0.0456618448875673,-0.0770152729695883,0.00328250136330026,-0.00476377196456068
-0.0441965342910856,-0.0635844125518894,-0.00149850506159871,-0.000278491796451634
-0.0290702770558422,-0.0392679799029817,-0.00648035822167697,0.0025335211583046
0.00774786684205966,-0.00752973386379922,-0.0102529751929355,0.00222290952055399
0.0636692421157934,0.0194295387368692,-0.0170850148102363,-0.000238304210036289
0.106409554541955,0.0223643721785568,-0.0214636078006298,-0.000738423354456844
0.116220098429847,0.0105517252724632,-0.0115478479113897,0.00460566366543164
0.108886322057708,0.00697506621128631,0.0136873338010108,0.0154415400172867
0.0953377967645943,0.0117190370487012,0.0395385466631215,0.0267452462502857
0.0783905608605536,0.0112385384035933,0.0488617064451702,0.0326043575431769
0.0617525645988872,-0.0013511579072351,0.040216388554822,0.0305890904880366
0.0399612535640989,-0.0238923164599124,0.0234916356713607,0.0223735533078905
0.00513037386159461,-0.0428373769459512,0.00722016011071662,0.0111595393951544
-0.0412889230366304,-0.0423319790369147,-0.00340821351223538,-0.000204829273001448
-0.0697517523756035,-0.0260134897779099,-0.00490530642570796,-0.00960190961589955
-0.0545912554159725,-0.00595555912501458,0.00271667488951651,-0.0150099693535386
-0.0201275249606484,0.011890861397283,0.0186551689622746,-0.0152327400643782
-0.00422999699550114,0.0189892202476255,0.0391320147452724,-0.0113985944041021
-0.0127672449434702,0.0123206121148828,0.0507498384992569,-0.00626621995008365
-0.02561130895354,0.002559160322085,0.0425900235666194,-0.00381898310589897
-0.023997226067726,-0.000458867662256515,0.0191511935394039,-0.00631504267247246
-0.00161697528828673,-0.00755232182153955,-0.0106978136212095,-0.0101688444509229
0.0287813893520968,-0.0248344120782313,-0.0383560325832143,-0.010516631441398
0.042021083246733,-0.0307392647107578,-0.0486276352238768,-0.00694912907265263
0.0318820074832227,-0.0240669993987076,-0.0356529699644827,-0.00125305920410736
0.0138311648054927,-0.0209886809993832,-0.0151238266046539,0.00382892695804664
0.00690452632507044,-0.0123748408869085,-0.000960401991221219,0.00499883237729176
0.017780326081451,0.0095567912141514,0.00723202128967228,0.00244810705323198
0.0301372447570176,0.0330967974969781,0.0108819683074346,-0.000687011390911287
0.0317028561938505,0.0446562448052255,0.00941484696187825,-0.00303025926574005
0.0264416817877395,0.0458645296663584,0.00424414559343172,-0.00452570307963659
0.0133531713370293,0.0496351964358611,-0.00239633886713307,-0.00361329439839595
0.00054736710436467,0.0517728375808961,-0.00856035742023285,0.000202162902421344
0.000643281589244656,0.0365707865727899,-0.0134731796231405,0.00493809827708081
0.00395001584554441,0.00235783543405432,-0.0159430024386485,0.00908307803457347
-0.00130996655770908,-0.0313387817325832,-0.0144297417761917,0.0115523545311408
-0.0150638716456052,-0.0488850020368577,-0.0137267501893719,0.0104451503340892
-0.0370814505456683,-0.0579223570649067,-0.0185688195091883,0.00530119278667998
-0.0589484125961068,-0.0672805852741369,-0.0247910036540414,-0.000980060328615688
-0.0638657119747961,-0.0695310376717862,-0.0251689499333668,-0.00528831598050021
-0.0605042066191441,-0.0533375246680322,-0.0171088697891836,-0.00701407231903825
-0.0697591336478538,-0.0292495589988096,-0.00858386792534918,-0.00645282454458986
-0.0875970546610326,-0.0121514826118174,-0.00922577072191602,-0.00427099142907348
-0.0944970895935231,0.000381682917830917,-0.0147842740932197,-0.00180115313579008
-0.0842250961307333,0.0133331135242435,-0.0144368595194752,0.000487566546358738
-0.05955867303347,0.0308768917800562,-0.00829126300723311,0.00324183040230041
-0.0058307950291764,0.0600183259380561,-0.00381741821021084,0.00665099361687284
0.0654802788737471,0.0843996472822942,-0.00376645855915287,0.0109492756766809
0.111565969249082,0.0666045164503611,-0.00700439821189037,0.0165675459792522
0.126131451298298,0.0146733545644942,-0.0134076599320896,0.0213259588608673
0.123172173585021,-0.0298374332970446,-0.0210809956527949,0.0216632456356762
0.0927706551952446,-0.0536090622050418,-0.0251201026962663,0.0179329779647563
0.0345732224188459,-0.0674250679252165,-0.0273445318302439,0.0136091982010314
-0.0182083164000744,-0.0748115023995407,-0.0353664978916423,0.00913036001659891
-0.0413470629929642,-0.0719532985873568,-0.0452872993860232,0.00258063821223451
-0.0442015696998461,-0.0617620722505762,-0.0449747910274155,-0.00379271799013386
-0.0511267068536539,-0.0394959693737934,-0.0372615595346389,-0.00537020354391603
-0.0731206953891184,-0.0108833467124572,-0.0307419903935639,-0.0021806918208669
-0.0944408277933076,-0.00368810348501463,-0.0264371513195696,0.00231288681381283
-0.101812578390231,-0.0235853887873797,-0.0251073700018091,0.00547815462549581
-0.102120303069055,-0.0490023152618612,-0.026304177459236,0.00662483720846175
-0.0919184421842438,-0.0630645939612981,-0.0290142899005888,0.00572541526091007
-0.058946712835434,-0.0592282892937213,-0.0316057053237844,5.46997079568156e-05
-0.00746481913904318,-0.059541537522758,-0.0306324157159122,-0.0109431784449539
0.0413265261042413,-0.0754834810443693,-0.0252618124877798,-0.0189930584130125
0.0606947272967612,-0.0654357261198129,-0.0161556513443643,-0.0148837364082832
0.0554473920776964,-0.0298202015956267,-0.00892607972092453,8.54054446951663e-05
0.0585447837041945,-0.023917851259547,-0.0134166501853216,0.0148423970981271
0.075707002297886,-0.0386314502233917,-0.0217017267395234,0.0196804187476142
0.0889883479570919,-0.019316870424344,-0.0185743447186733,0.015162175244057
0.0901477581197299,0.00138724533421172,-0.0111051518384034,0.00893827757184739
0.0761679296286911,-0.0256385575939292,-0.0117615090130666,0.005023134931871
0.0455982096675734,-0.0428711382714541,-0.0154119718688793,0.00110142023266209
0.00364673919022587,-0.0147089603032959,-0.0119662356456181,-0.00239856287496094
-0.0395008705366484,-0.00824245826902036,-0.00452624544888964,0.000100130248211977
-0.0668011244623153,-0.0481188506071816,-0.000607483807883934,0.0102896483679613
-0.068294783568756,-0.0746412830532184,0.002565868555968,0.0222883834916357
-0.048493835830097,-0.0526936752789031,0.0110474726326523,0.0276163492538189
-0.0267137582757757,0.00167319520384274,0.0228639363409572,0.0213852959465476
-0.0305178184458762,0.0481391530162271,0.02895072456741,0.00638650642594535
-0.0511121494661437,0.0501307515513479,0.0231523951574498,-0.00985726849384631
-0.0531228131209791,0.0140528874785432,0.0106561349154634,-0.0231945554728834
-0.036066313163358,-0.0229219603950985,0.00210896443947935,-0.0330895494697752
-0.0257884773514836,-0.0380475102016774,0.00073771330088529,-0.0380658318785796
-0.0276260891119528,-0.0264702120326378,0.00392506248303468,-0.0375179030215509
-0.0263137574585517,0.00706329362029896,0.00927752976271167,-0.0328828793247736
-0.0146457853986134,0.0352980652355128,0.0115151115556256,-0.024452361530337
0.000699175892794043,0.0253934721312658,0.00635225050666706,-0.0125419631508333
0.0105682575114705,-0.0158981036572363,-0.00159649801412441,-0.00115164284088331
0.0126233276046606,-0.0487386225141793,-0.00203815849969649,0.00553708000317822
0.014310697060315,-0.0609374860411069,0.00955751672388657,0.00833832582165278
0.0228965157795403,-0.0739252959902982,0.0249392392509411,0.0111588598806485
0.0442054687557805,-0.0869322930164771,0.0344844366999077,0.0171300462262592
0.0842971476393489,-0.0717693311556606,0.0397265732876692,0.0254689527015017
0.12844569462959,-0.031957684819469,0.0437676877879123,0.0311462990494953
0.141188996582603,0.00180249517393341,0.0429109751547166,0.0300911387610879
0.101676794428617,0.0251930943825526,0.0324632491296969,0.0223124724220152
0.0316987913431413,0.0541959681265851,0.0158163599948592,0.0109246258093011
-0.0295502621099924,0.0914220478189181,0.00514661469864096,5.90099118362823e-05
-0.0780921836901356,0.118043651482584,0.00733413048605035,-0.00724477549460043
-0.118254149641217,0.119610747022964,0.0162072864556487,-0.00999351272659475
-0.125455125749317,0.102242276575428,0.0243600122725773,-0.0105331725228096
-0.0902339444937704,0.0866446096585248,0.028480337589727,-0.0122305068710679
-0.0479539925712031,0.0836058340000167,0.0223618912526538,-0.0147478008849097
-0.0274478062024261,0.0755351212472785,0.00625866765955842,-0.0159375417048006
-0.0183491746756481,0.055448992730864,-0.0062385624203071,-0.01579258009912
-0.00938093834519867,0.0387452385996829,-0.0063958036585031,-0.0149670281800474
-0.000152694714529122,0.0290736052859298,-0.000743681071057812,-0.0128867379032907
0.0118938476327031,0.017452704815504,0.00241535078851527,-0.0086313830509397
0.0261469284059343,0.00344517062273278,0.00148719438527588,-0.000716582285239926
0.0375040023929982,-0.00494519501863605,-0.00270298382678971,0.0118723315798644
0.038468281120607,-0.00881551757023938,-0.010604101449627,0.0237392383206366
0.0269898995769775,-0.0110845093752231,-0.0195855635353469,0.0243985018010371
0.0114535015683742,-0.00626626750061136,-0.0231566018289634,0.00958515687536696
-0.00286482708840759,0.00897079436323222,-0.0192100319608426,-0.0146759045489365
-0.0113786527449377,0.0236655890446732,-0.011558770633475,-0.0370926448537632
-0.00929485178322093,0.0299892917279182,-0.00516837230365388,-0.0477376718714586
-0.00049364634905894,0.0377676436036394,0.00100242851653589,-0.0428478593890777
0.00872025858531659,0.0448698020718601,0.00925080232406995,-0.025665541975628
0.0113230476859989,0.0348832951761998,0.013364828170462,-0.00428485268891344
0.00421141762875298,0.0121758054009265,0.0102694877617441,0.0138725080058039
-0.00513448602281677,-0.000511154395834837,0.00384315637097142,0.0260777376258787
-0.00874750260777806,0.00636663975332842,-0.00563789859450114,0.0319807062294457
-0.00690811447800537,0.021074567269976,-0.0187201480489216,0.0311008948556925
-0.00329542723440019,0.0288170350881428,-0.0307811769463578,0.024071554906465
0.00617742647134486,0.0316792628245381,-0.0359029590021204,0.0136073577110658
0.0231344682168979,0.0361084007001511,-0.0349867145184173,0.00350875730500136
0.0345247656285515,0.0344983763622253,-0.0326211351807974,-0.00329827602246772
0.032926644143415,0.0233582305460235,-0.0307520031500574,-0.0066500986001413
0.0247532346126881,0.020405075359211,-0.0272359544027754,-0.00928338817591203
0.0191282051133493,0.0409235076759296,-0.0199535766573025,-0.0133737476508987
0.0190312249405133,0.0661745772564394,-0.012863787743559,-0.0171579217099343
0.020292322306096,0.0621189141159098,-0.0117763453789534,-0.0181460882191532
0.0204559179893678,0.0245315778938179,-0.0161975813750408,-0.0185100774768934
0.0191007035380415,-0.0201902845629702,-0.0197903649121317,-0.0231280098503012
0.0115159199534025,-0.0463667760730408,-0.0172992423449808,-0.0317492298600127
-0.00528386773691249,-0.0472832822116193,-0.0109587347577544,-0.0368528199645322
-0.0260927592615177,-0.0360713249678622,-0.00855112368798508,-0.0310474210498079
-0.0416100519183766,-0.028632087485257,-0.0111773784347253,-0.0150204085035429
-0.0425122916489091,-0.0357777572373034,-0.0128429677649874,0.00292244800394657
-0.0316091583365731,-0.0558351340213184,-0.0117830121493854,0.014854794096185
-0.0277734756824358,-0.0683283040077781,-0.00879946481364966,0.0187557299593404
-0.0386831437528699,-0.0607636538958143,-0.0019752537049105,0.0176060253570474
-0.0529481221060457,-0.038592815256987,0.00722641498387569,0.0161040770991455
-0.0649737880504201,-0.0243655216688382,0.0104219615742939,0.0165721365584775
-0.0752032115065916,-0.0419961324084228,0.00533864503562938,0.0181977997372723
-0.075069322433725,-0.0737686003326897,0.00419142797445719,0.0192688173080238
-0.0634396509134364,-0.080157378923371,0.016025218173095,0.0176030361046836
-0.0562116678048941,-0.0597885710181832,0.0339001794185312,0.0116424253481181
-0.0487495128701235,-0.0375303122357444,0.0455112775933439,0.00308110776696953
-0.0177366804677226,-0.0115432419372869,0.0445127960308482,-0.00345226937392317
0.034277114018532,0.0276229540552933,0.0385792596654572,-0.00513470533031614
0.0721982232506421,0.0619662651926447,0.03911700513949,-0.00265906577306846
0.0682567103437074,0.0656738186940118,0.0409457164753929,0.00157959000914621
0.0461283963623109,0.0368147742142194,0.0349331945007328,0.00412650649707658
0.0251675123301533,-0.00328706547093798,0.0232664247404064,0.00257585089003567
-0.0225963540996911,-0.0366986255524373,0.0144759163624865,-0.00138254495864685
-0.0896065621729584,-0.0542301700807754,0.0129714572715748,-0.0038826289223453
-0.122225278524032,-0.0656053549775274,0.0155784933972686,-0.00537986066135014
-0.115348830363673,-0.087668322708058,0.0222947393163069,-0.0101348936279049
-0.115124141530613,-0.105926053535948,0.0381378136345002,-0.0183789869232492
-0.133042795434402,-0.0902400963634578,0.0628358788966406,-0.0239165848748585
-0.130342292688463,-0.043569392822696,0.083210623345232,-0.020532706045846
-0.0888885159957603,0.00841734533862608,0.0837793496347237,-0.00899668010851742
-0.0381201536571202,0.0483996747215416,0.0677042890737715,0.00355723173320421
-0.00108645864757308,0.0494366136519086,0.0485242565930288,0.0109178628540538
0.0193005576459236,0.00696919585741322,0.0325466701074129,0.0131683998524654
0.0236287287439475,-0.0286799411445494,0.0199877703501158,0.0139176273797121
0.02848382711883,-0.0237366529068193,0.00926859883400147,0.0149002711559809
0.0384746479505803,0.00210936662221083,-0.00283549603660503,0.0151760346468071
0.0224863990009647,0.0271148260722767,-0.0158183026333522,0.0128014766926649
-0.0226180737959855,0.062182556675526,-0.0210282296242068,0.00755914083575119
-0.0374268221985106,0.10025008676492,-0.0226625616926379,0.00332158411744262
0.0139914989607826,0.0943852627798505,-0.0354187400862635,0.00216785194198655
0.0830466689880752,0.060043164356836,-0.0523086195571,-0.0016824656295137
0.108679324969353,0.0469538967191334,-0.0565718789661884,-0.0110635079184032
0.0902211560173744,0.0282949002875091,-0.054846248418105,-0.0169815883966606
0.0616766842059384,-0.0177847494229363,-0.0613518659235359,-0.0109073362349184
0.0368155279339935,-0.0402902463852005,-0.0645466866581794,0.00557557628988454
0.00601134669824346,-0.019155723115593,-0.0455676214662311,0.0262103846985886
-0.0322281328308253,0.00342630869773748,-0.0119125747495835,0.0440237038648405
-0.0597888979142091,0.00285505743298626,0.0139960863243963,0.0518934011790196
-0.0542565986496415,-0.0207657825599545,0.0250500995274326,0.0485918785618408
-0.0158307301512703,-0.0443909950685605,0.0269533337595222,0.0414815322724724
0.0327550996053628,-0.0437600350121137,0.0233514646469002,0.0356568829143773
0.0709850529709828,-0.0417438293801064,0.0139044522678357,0.0248841082630095
0.089038500611063,-0.0546324168468781,0.0033195671142249,0.000572489560089956
0.0900652512936286,-0.0545046279706985,0.000865466515456726,-0.0332793073831398
0.0901736273239641,-0.0432043103095922,-0.0043914638930267,-0.0612065831335999
0.0966727795062662,-0.0468208479650679,-0.0231714275040208,-0.0714527906095591
0.102237682721014,-0.0340382909445332,-0.043131068014045,-0.063150669097318
0.101104847128075,0.0235157703165572,-0.055731785686914,-0.0421172132561602
0.0962147768546456,0.0870626466873834,-0.0610422756330885,-0.0153860311532368
0.0835073474680032,0.127023220097021,-0.0583431785118931,0.011851474782079
0.0531032802676381,0.142594943973649,-0.0509645921310246,0.0345072370296408
0.0317090201144215,0.122413031693022,-0.0442502070768922,0.0472796172559202
0.043468022376364,0.071697237968767,-0.0370128188626825,0.0493626365328294
0.0564516596458638,0.0215338091477723,-0.0298065311199076,0.0448769314500492
0.0442506925447827,-0.00704845932584915,-0.0287479001853941,0.0376877576704546
0.0230607000306102,-0.020449699283314,-0.0312263946890961,0.0294860796687137
0.0111162992837603,-0.0299816691921181,-0.0322292922766742,0.0219366775029112
0.00440983563289871,-0.0313482079942258,-0.0332774730006868,0.0160194242808777
-0.00994744391475631,-0.0151975588424307,-0.03067208029518,0.0105993969419056
-0.0277999167679738,0.0142614219871155,-0.0215315402750686,0.0052679244106213
-0.0271015517688984,0.0388208254240996,-0.00973877852429636,0.00179968561999562
-0.00303612543658503,0.0494026094898083,0.00166382832030782,0.0017242259134872
0.0238282958916577,0.0405159180657854,0.00779325870738874,0.00363949151860964
0.0361062948370464,0.00622805797406757,0.00621211509464024,0.00332242833755827
0.0376501065246728,-0.0290477327016146,0.00154632879226738,-0.000326437185214775
0.0420752786636944,-0.0378662641611822,-0.00228890043064148,-0.00212865968254542
0.0454568308405412,-0.0351705477595308,-0.00785104262857785,0.00107228788770127
0.0337745449779163,-0.0365089162422551,-0.0163960175938652,0.00421110738942823
0.00701450409595978,-0.0304918457137631,-0.0206105989775995,0.000634494856597223
-0.0276559146067089,-0.0130406158170517,-0.0143176968591937,-0.00929336686686423
-0.0605729705615759,0.00840689567459245,-0.000778481863515333,-0.0186277462210182
-0.0766436707927999,0.0245808094203252,0.0123706550014436,-0.022943145044846
-0.0700945582828021,0.0278621684298884,0.0196789464076492,-0.0261996958701959
-0.0509348549555912,0.0247867656139943,0.0232501537323378,-0.0338741910441962
-0.0269448432016763,0.0247732381562079,0.0278626302275702,-0.044570154296147
-0.00235582429258885,0.0261132089003322,0.0314946932259004,-0.0525072513804381
0.0140465707605666,0.0273728434039206,0.0319014825517862,-0.0530116120181736
0.0251456092524247,0.0275432584484544,0.0263916098723014,-0.0445569738665707
0.0312301063627722,0.027041244922103,0.0175124138034431,-0.0298648214997815
0.0220869438460799,0.0307212877043537,0.0149940555676729,-0.0152777343586658
-0.00400748748965391,0.0345784470937194,0.0194762373056908,-0.00689706416325602
-0.043345017417952,0.0317486553156402,0.024432267729073,-0.00444388353703745
-0.0825137985876346,0.0321136165715895,0.024960383350661,-0.002717617752452
-0.104294961647291,0.0492305952509167,0.0228635264298632,0.000524110985035242
-0.0974930068764291,0.0685654022362615,0.0202111414119336,0.00355070469913769
-0.0650144728430112,0.063778602398673,0.017708069151988,0.00457172665698483
-0.0347097207416051,0.0391375689237515,0.0163979701650428,0.00372215534091208
-0.0284942216843772,0.0133960050287359,0.0113974402571439,0.00217645012408003
-0.0441255776212309,-0.00765611768166913,0.0019685468502254,0.000805949291399608
-0.062999388140421,-0.0146560727455888,-0.00573163177053027,0.000397528033218042
-0.0524529581323557,-0.00482783388278618,-0.00808839767456841,0.00300847708026248
-0.0186445694066562,0.00264821884273237,-0.00346438479511964,0.0123792335290632
-0.00507688546432949,-0.00647349399304534,0.00521793454588376,0.0284263632449536
-0.013468685394948,-0.0210236658372993,0.0098367160162711,0.0386005035566904
-0.00751706306396723,-0.020509928007946,0.009931964123322,0.0253755285544221
0.030856519223474,-0.0203523479404618,0.00627166842968318,-0.0110905358144466
0.0763441340941603,-0.0498689729555261,-0.00789512004290744,-0.0506380338297676
0.0890218356344306,-0.0855705805898024,-0.0300457445211279,-0.0763161399607716
0.0638812187962247,-0.0819746018586204,-0.0450363102220933,-0.0862828721634404
0.0122862100276172,-0.0299574261050752,-0.0424310543839958,-0.0827987854042796
-0.0555813865197065,0.0219567881305751,-0.0309873949993868,-0.0656748772035894
-0.109776695249981,0.0323350720439246,-0.0236374380371037,-0.0380069035501508
-0.129045625552184,0.0320871800204052,-0.0146152617421198,-0.00607904237587009
-0.116655221828963,0.0451773422598435,0.00330540352141723,0.0245169021681646
-0.0818500459495789,0.0560864831501426,0.0204282054296594,0.0470823383886856
-0.0297061424935721,0.0592779173231167,0.0280913683809441,0.0532734839856054
0.0385226101365297,0.0507752165516906,0.0288353789753333,0.0411119100700796
0.0973971833740968,0.0261728240723624,0.0249640395227318,0.0211427045078626
0.109927522048805,0.007650985280289,0.0153049685561972,0.00714669509964986
0.0810108584648389,0.00931522968620022,0.00313898030160133,0.000294155054571858
0.0417880714530147,0.0107669334711568,-0.00474149211382533,-0.00688888585940076
0.0141665808301882,0.00386481719391671,-0.00850579764437156,-0.0124307925955494
0.00716967761856013,-0.00303789496754948,-0.00942899474466935,-0.00728073875914217
0.00880446046852962,-0.0115139742568187,-0.00710237653791978,0.00919301499821043
0.00473277476278006,-0.0196307051460729,-0.00403483578847177,0.0267436063755361
0.00309621274380049,-0.0254390479064311,-0.000770311984338301,0.0352660698117108
0.0133654062479497,-0.0244898437801139,0.00215631574649415,0.0348868360803307
0.0222592253812285,-0.0113786438031914,0.00165955567293133,0.0336625022639152
0.0234007949367614,-0.00424527790321922,-0.00342665392940464,0.0368775795921677
0.0254494638050726,-0.0195721530697065,-0.00871325283178906,0.0415184214157748
0.0171241363289192,-0.0432619782346668,-0.00933062407344547,0.0435994798480038
-0.0137962880740324,-0.0477549212231102,-0.00856797874657273,0.0471416696568366
-0.0514834996458181,-0.0332479102340035,-0.0115431904832765,0.0569019648247411
-0.0659311758736726,-0.0348657263385515,-0.0180135342177866,0.0637826636514894
-0.0554648259075237,-0.0586430385869229,-0.024776438630314,0.0500391232286547
-0.050195658117896,-0.070044679537831,-0.0261212776072735,0.0108998734006416
-0.0559268722946067,-0.0625287743606613,-0.0175976405672486,-0.0364853898553182
-0.0435355585922367,-0.0435809893682076,-0.00473877946892308,-0.0680910910212263
-0.00159743337630446,-0.0149300102245049,0.00304887639186764,-0.0734194379099995
0.0385657008627918,0.000525968872972099,0.00255828976102356,-0.0603965002676996
0.0565300437548327,-0.00850368475057384,-0.00910249454868066,-0.0435336526239058
0.0545866725541216,-0.0140833275730122,-0.02545825189232,-0.0302089422937136
0.0316169651357766,0.0205976136013062,-0.0312529132420832,-0.018210489881499
0.0125647467311008,0.0907900046856645,-0.0242661324355175,-0.00290936313199342
0.0292608265469221,0.157038000932661,-0.00863799921744525,0.0155748855537989
0.0599256895272862,0.175998888739876,0.012996877464965,0.0328171817975279
0.0607311943292611,0.117290485831214,0.0301678089973604,0.0434500729284006
0.0331532659055962,0.0079415384248975,0.0327667860969206,0.0438435640765995
0.011814486005974,-0.0743110005991644,0.0291169199171914,0.0362685949686394
0.0260038051961556,-0.062020592065239,0.0354766058998944,0.0285206757728655
0.0671233256137497,0.0262094495186353,0.0511667516533917,0.027284719864122
0.100670503653426,0.0745744964983285,0.0652744057997906,0.0317161518751626
0.11652698913607,0.0128656120375257,0.0724132045508141,0.0344403349011994
0.101926670620301,-0.0967877191797848,0.0694276227740247,0.0296005177265475
0.050035782924308,-0.156492357570126,0.0595637923552182,0.0182263879599853
-0.00315638633190676,-0.139385913630872,0.0532586308786415,0.00588026968017511
-0.0250881802080928,-0.0829710474527248,0.0524413468835404,-0.00310324564866737
-0.017886746816735,-0.0230922932398772,0.0561175260645113,-0.00809554523801529
-0.00292141569091292,0.0190176461758651,0.0643312702029374,-0.00898292808296288
0.0099941393941501,0.0308538170324733,0.0681084578980762,-0.0024977238269344
0.0177129589243981,0.0308510227773389,0.0593042537144825,0.0117488219421477
0.0151659392621369,0.040509726867041,0.0448671580987337,0.0240187309560923
0.00972481900558293,0.0506579632996846,0.036155033004089,0.0234918077009976
0.00475264460519762,0.0510774507639369,0.0293890268846613,0.00978262050111736
0.000303885476363629,0.0439258398339306,0.0192333134780042,-0.011058496691556
0.00032342040919032,0.0272152725619591,0.011471898550527,-0.0332903021307328
0.00585756435848954,0.00156223263153427,0.00795736801411019,-0.0506705554239609
0.0207261357759201,-0.0215632114199843,0.000630319963719719,-0.0583731366098188
0.038046767181677,-0.0339407231248461,-0.0136520756834316,-0.057306070252259
0.0450079189274464,-0.0346773863509783,-0.0240124783012043,-0.0509324777374372
0.0432480561125249,-0.0210397199622005,-0.0206366798397885,-0.0399266784743195
0.0424192760823161,0.000928395476527205,-0.00834272412892683,-0.0239648103198477
0.0460801903515353,0.0206499334740972,0.00479264025385062,-0.00606422364932967
0.0467443691965235,0.0426364066983427,0.0189064945028801,0.00929111230460823
0.0390044413475461,0.0626267936690582,0.0333383628197753,0.0198342938552866
0.0289798926015867,0.0663834529804065,0.044577042695025,0.0250898199308462
0.0273344801360073,0.0648450496078456,0.053055622902191,0.0255580553350501
0.0372311746076866,0.063402884949525,0.0558206150748315,0.0229537966246175
0.0419374440532241,0.0489116269601786,0.0497685980447488,0.0187593491100319
0.02041134640255,0.0294228860917785,0.0418967848336036,0.0135175772751315
-0.00824287041653088,0.00211440466785425,0.0313995792987961,0.00849691694215407
-0.0102297602967785,-0.0488632743519901,0.0118030211610773,0.00388383802418864
-0.0037885048536419,-0.0897041136651836,-0.00778889313283169,-0.00245196821967954
-0.0216727681678495,-0.0852175378957752,-0.0183191559837067,-0.0104356430376116
-0.0552942117805176,-0.0606178294573606,-0.0228829178851187,-0.0169325364636835
-0.0851630306627928,-0.050622284936401,-0.0234523354024099,-0.0204984186485552
-0.104876480970623,-0.0500696335742386,-0.0156041803646268,-0.0216394455771298
-0.112309026911635,-0.0477561726160622,-0.00346207811297596,-0.0197885172734271
-0.103528162825952,-0.0513934292229938,-0.00271937652278539,-0.015922955939981
-0.0941958010165868,-0.0578438905800127,-0.0172209503835675,-0.0147286926408945
-0.112924224962096,-0.0713150427703499,-0.0406706105315944,-0.0191306458356107
-0.141532080283458,-0.108938803880863,-0.0718840495038054,-0.0263161287181739
-0.14644807511986,-0.148124297583587,-0.0987054250492956,-0.0319079469250334
-0.138986093940578,-0.133006685903219,-0.0984375128526676,-0.0346585611372803
-0.138829546471129,-0.0587480764116498,-0.0739371904920218,-0.034152430466653
-0.129404448847253,0.00312877752228963,-0.051862543634677,-0.0283425085118312
-0.0906577024756535,0.00176132928875081,-0.0412682675001473,-0.0190310371402741
-0.0551490649901107,-0.0283615193382354,-0.0332581593609631,-0.0125134519975046
-0.0535218914158438,-0.0407017917273202,-0.0263755981475067,-0.00923147740686501
-0.0513960676678137,-0.0394407186612575,-0.0229155732204203,-0.00394344924397792
-0.029616241321462,-0.0421241863924459,-0.0254541552485291,0.0038930563483273
-0.0150438933871883,-0.0466750887474358,-0.0361716454019511,0.00985927696728411
-0.00288356335502386,-0.03894502020691,-0.0481634776782135,0.0116125812792624
0.0410838382595185,-0.0158184393399847,-0.0529015287841983,0.0102781384874577
0.109651688268648,0.0127778148650036,-0.0506323919924211,0.00592820710718977
0.153851795229545,0.0355150043725751,-0.0474045975638238,-0.00272003355459122
0.146513694773985,0.0411578629065177,-0.0448060844653735,-0.0156147993511654
0.0974986270384123,0.0270031707879993,-0.0402092316205691,-0.0292308148687145
0.029101892541039,0.0147469033485844,-0.0347968526324163,-0.0358637941872528
-0.0324595252674056,0.0399988476133936,-0.0285014870621612,-0.0295743912912366
-0.0631221685869216,0.0806478976499103,-0.0194420493017269,-0.0120075485916362
-0.054328778720602,0.0668372246190319,-0.0126862117123367,0.00865261675121726
-0.0288301075431958,0.0149492060059251,-0.00938784103236289,0.02461508489005
-0.0294181171565909,-0.00911338683539312,-0.00385246430366016,0.0346333176161854
-0.0598744419116938,-0.0105697778620045,0.00127383746750799,0.042577819801995
-0.0775394440423732,-0.0132766637252253,0.00191543516858382,0.0505055024974986
-0.0572726694046445,-0.0246719495832058,-0.00134390092082905,0.0534265508166625
-0.0173435939211916,-0.0381401410953881,-0.00802595835506066,0.0447822060497239
0.0157002756831044,-0.0252408639964562,-0.0174494779580339,0.0261623395266722
0.0437908409143486,0.00831433013647848,-0.0233406545794849,0.00501742745295206
0.0796089480843129,0.0283610970239669,-0.0190042422066943,-0.0145358636151854
0.117682253922359,0.0320561312503024,-0.00848882267499995,-0.030948951387247
0.143172003055776,0.0374683611034053,0.00110866376963235,-0.0400526627836163
0.148838711741281,0.0436759545835091,0.00536009291821786,-0.0382257832566781
0.137125474927787,0.0508621162922233,0.00647452661135887,-0.0276886541662691
0.121597731308053,0.0793398715091977,0.00933254290254681,-0.0149446392287857
0.120361703527991,0.113478091578719,0.00937201058784373,-0.00451197205835509
0.121952988071886,0.122114772501561,0.00611660053314931,0.00305474006330373
0.101955988449151,0.113181663053544,0.00753025026309574,0.00907438892416908
0.0636821131114435,0.0798809533908113,0.00647298796178886,0.0152125298430368
0.0271906952274195,0.0226565243455863,-0.00216362001480168,0.0201406117292591
0.00680729552775601,0.000383288480857474,0.00365063681476688,0.0208945290909356
0.00149531436861633,0.0287097555599791,0.0317176459955996,0.0199366964191721
0.00588611125058879,0.0418458369818573,0.0531255549017533,0.022542231260058
0.00917651871992722,0.0144334897446289,0.051769158900001,0.0281074983669392
0.0102852114505304,-0.0130359308525021,0.0452910578427337,0.0330580794592208
0.023142130510067,-0.0128064009401145,0.0454404284816606,0.0377599857897135
0.0402839042300711,0.00881690236752276,0.0460308868533363,0.0443078676926598
0.0431865389135541,0.0212088685680672,0.0423178149609892,0.0514461402381617
0.0336314373731581,0.0116490746310215,0.0365193258600274,0.0539970468304442
0.0301438535245806,0.0101285928596848,0.0339235613136834,0.0479380233023846
0.037646601796316,0.0350242141046038,0.0342505887865679,0.0353917699536825
0.0377583365067018,0.0619544476973085,0.0349304431716078,0.0233946042088243
0.0166606851291469,0.059095174082484,0.0377223297496279,0.0165048402419063
-0.0104123976275854,0.0246157541965217,0.0396485488190221,0.00944370632086616
-0.0148789368305279,-0.0208025038851049,0.0345191488050252,-0.00784959372417283
-0.00312856919159117,-0.0596712243976824,0.0211296129336921,-0.0353001105449333
0.00238305369585218,-0.0819093516741306,0.00122986043941974,-0.0602254141387441
-0.00640498542871931,-0.0812725194928556,-0.0217313128869223,-0.0722069976895038
-0.0373671638196638,-0.0636332621928406,-0.0438545707256306,-0.0721276359409264
-0.0758864814940035,-0.0448157665337666,-0.0537003462737317,-0.0642253987837826
-0.0907978341730409,-0.0327487559824404,-0.0411610890302365,-0.0489538560084563
-0.0783178994092474,-0.0304776220287193,-0.0144257512931416,-0.0270599358338417
-0.0575203468358958,-0.0325358069066491,0.0135267450678458,-0.00250586855573955
-0.0323498583232909,-0.0200207501483929,0.0331707891563272,0.0202514777143984
0.00192883410632893,0.00786423558683685,0.0372557291669423,0.0366324208895865
0.0341720431317298,0.0229449138582718,0.0280052948513249,0.0420794044843088
0.0473387002009999,0.0265586589671649,0.0192213718399925,0.0360079009753628
0.0394315988622571,0.0594259743681067,0.0178463034791843,0.0231426232112919
0.0249535972914279,0.107595160157428,0.0157465423108141,0.0103552806512286
0.00785453457331349,0.118418296684885,0.0122589557737595,0.00289071328122209
-0.0180328294288848,0.0922860757957683,0.0156268111337335,0.00197066686698106
-0.0291588409933859,0.0633474298937198,0.023898643769501,0.00514359179241319
-1.87534733367238e-05,0.0454642455198634,0.0299360418489339,0.00941384890916691
0.0386712629883519,0.0294977421403711,0.0334257296499868,0.0121397584208233
0.0454320191700271,0.00795555688063307,0.0344253455531709,0.00710763671380413
0.0195730591978328,-0.0161980282125128,0.0318693827647131,-0.0110010608297527
-0.014491111269361,-0.031653411299991,0.0267842782730557,-0.0359496369073609
-0.0471675728613741,-0.0313736748833748,0.0196270193355345,-0.0546968375001528
-0.0768252039098942,-0.0312313442139465,0.0100048951302645,-0.0600084693186993
-0.0882689640438601,-0.0447244557225785,0.00154221950377299,-0.0518851646707327
-0.0891849791015627,-0.0590232634087961,-0.00144013906176169,-0.0324779226719153
-0.0944409949337172,-0.0645768998324049,-0.00780945734372671,-0.00723868573805132
-0.0858490173696643,-0.0670284219177826,-0.0255781628881782,0.0123077632402746
-0.0479328426082153,-0.0652565847216361,-0.0428756228255683,0.0168364719254732
0.0021732247465342,-0.0489302370019713,-0.0504298870018093,0.00960030292341681
0.0519711511778486,-0.0173512843258941,-0.0559157075203666,0.00290445709746759
0.0908240207780721,0.0195342445899526,-0.0624255600195446,0.00537139722588199
0.0886466583937897,0.0472497023669146,-0.0652750229821337,0.0147375124013166
0.0528259067136076,0.0557422552323927,-0.0627994054317512,0.0196235990646029
0.0274053605505074,0.0638972566393428,-0.0517582188658039,0.00945796998954985
0.027573300100047,0.0976377206441551,-0.0311028049635331,-0.0137598121434585
0.0350899493204647,0.141680223635489,-0.00859208971010385,-0.0377032488615182
0.032002155971295,0.155386793333514,0.00811511900281045,-0.0512241367031491
0.0169968169519876,0.12516650377859,0.0208688379195797,-0.0474364811414113
-0.00670067138049733,0.0687289291831305,0.0351448079850549,-0.0222192348657723
-0.0260755865224259,-0.00383954445931937,0.0461742938003415,0.0189032142977404
-0.0280595524611404,-0.0686559150616794,0.0479304268126869,0.0550859658568288
-0.0226394894189599,-0.075143143497299,0.045602971675111,0.0662515661180722
-0.0255680757961372,-0.0293717776921865,0.0424601554709372,0.0532596295937582
-0.0435700111060802,0.00502903220849604,0.036146035462801,0.0313332686608922
-0.0660933417866907,-0.00248870094007003,0.0257063299276031,0.0122254767826078
-0.0759057521373011,-0.029819468281997,0.015960855636533,0.000254788088951997
-0.0748573194255134,-0.0426881751583061,0.0126922920976204,-0.00310354049949079
-0.0765123822978741,-0.0335235477731789,0.0132389007955979,0.00113640100939172
-0.0864135408201372,-0.0249769615786674,0.014460519413734,0.00851348389104253
-0.0939432117344813,-0.0311706760772896,0.0145791435789314,0.0151039267539164
-0.084122355357722,-0.0343485949304456,0.0098646252819834,0.0185116138817716
-0.0611870447624174,-0.0164511618204777,0.0033434610433856,0.0149898756529836
-0.0310946731621566,0.00304884916139785,0.000426144580251142,0.0015257303761762
0.00397004294596935,-0.00544584756633078,-0.000891363409710098,-0.0189302289907267
0.0301025283660347,-0.0373100066798504,-0.000207370474687926,-0.0362600347762827
0.0416950653255977,-0.0659040599139849,0.00609761514223477,-0.0402329652475452
0.0375268934147467,-0.0726355024161022,0.0106483429860425,-0.0299259257717432
0.0186979506764886,-0.0609359156627095,0.00195161983039305,-0.0133604154187013
-0.00326718091808548,-0.0472256308752229,-0.0176458793108499,0.00170989332420601
-0.017576107661363,-0.0356501763300268,-0.0310389634367818,0.0120190299752302
-0.0166164119296742,-0.0191803924468777,-0.0253333317094443,0.0142797496643922
-0.00422968076642774,-0.00368678405517137,-0.00916561690315548,0.00322212466624103
0.0114930452195774,0.000203212120056695,0.00325089390960179,-0.0166332389406061
0.0237474000535701,0.000816486647585712,0.00956017184111321,-0.0250864197919256
0.0216575290224127,0.0146886802212059,0.0128241122640719,-0.00774791206596047
0.00438757517484014,0.0406741020152863,0.0150041351801039,0.0269113570970623
-0.0185241362103825,0.0561583723113516,0.0148687168268443,0.0573504960304071
-0.0374751122919198,0.049696669916994,0.0120210802103189,0.0670753773297665
-0.0497551821010855,0.0252336676483057,0.00796499265012428,0.054525050719875
-0.0650600837250828,-0.0114747614531965,0.00583795922164751,0.0299559592472318
-0.0886239215862641,-0.0407543183579326,0.00681296773631266,0.006565377033022
-0.103591963122638,-0.05851526756786,0.00435036218114741,-0.00766672330554113
-0.0950177543549767,-0.0813986669469121,-0.00656815005063265,-0.013129382422655
-0.0758845689829544,-0.109637208070076,-0.0236500708939823,-0.012923806496418
-0.0635159530788445,-0.13581572667697,-0.0429207071834622,-0.010961295665185
-0.0568902899115049,-0.150206546352513,-0.0578506792361734,-0.0158125994558051
-0.0545459134642358,-0.140195793740559,-0.0632199813389077,-0.0348383039280534
-0.0636711294997858,-0.106592867328325,-0.0630494893543928,-0.0633807720263192
-0.0812120513518314,-0.0603511091219368,-0.063128113643996,-0.0839721848801745
-0.0911789118207638,-0.0150423119341319,-0.0661784926400097,-0.0795634601244246
-0.0844885733403239,0.0145413775192299,-0.073615100669323,-0.0486887570908507
-0.0639840176121182,0.0208858266907299,-0.0787523014929296,-0.00673936972548521
-0.035774451291807,0.0322011868043792,-0.0741724611507733,0.0262621158771451
-0.00848197855137986,0.0758270519476232,-0.0642023149793426,0.0406987250176782
0.00607400183567228,0.104957982434514,-0.0530623986783009,0.0407624219536468
0.00552037115034626,0.0780341453078132,-0.0417577570940538,0.0359120066908531
0.0125817502190186,0.046955624710334,-0.0339042542743019,0.0336518455324716
0.0382955968600629,0.056349029191175,-0.0264030469763953,0.0356362578233677
0.0656379540455736,0.0747821338329444,-0.0134258129304274,0.0379056438928795
0.0729893032426293,0.0755402000803431,0.000363328221997437,0.0368861943925434
0.0372324520359449,0.0463444409904044,0.00687374733396925,0.0329789337874369
-0.0312334157070889,-0.020568863584932,0.0011157952226608,0.0274660673205311
-0.0837468962323361,-0.0844318822681451,-0.0181170486270082,0.0201665854701363
-0.0859225909796928,-0.108396801259651,-0.039284518754947,0.011394551885523
-0.0582608471820137,-0.091392236824877,-0.047441622798423,0.00248845345466141
-0.0355164625448354,-0.0405790310425804,-0.0436214830680577,-0.00515441698330904
-0.00330174395211719,-0.0134516777656962,-0.0402872074636229,-0.0103617813200466
0.0518690823471314,-0.0532898348558133,-0.0447813651559469,-0.0134872714019612
0.0904051126596562,-0.0771862476836547,-0.0507236429677949,-0.0160215648580285
0.0765028344915331,-0.0245055359970624,-0.0473952115732685,-0.0177867635057515
0.0276515320146314,0.0228563961912703,-0.0366806505600553,-0.0166532893255807
-0.00763747871528553,0.00169333267068779,-0.0284345672116233,-0.0118455744082409
-0.00290527519401484,-0.0330701750125482,-0.0232321442916818,-0.00560561230818856
0.0177257852709212,-0.0181161973722278,-0.0166217571334888,-0.000115933335567846
0.028029636360313,0.0385203391549384,-0.007114876229807,0.00446799128518291
0.0372851925343719,0.0927392619893204,0.00436546357240788,0.00801710898488537
0.0557472404134927,0.114835585613871,0.0158778749326772,0.00959490517040546
0.0812967763097497,0.108913524696752,0.0261925707590866,0.00836739651637603
0.114462530649948,0.0869154356910671,0.0304964971898565,0.00405187023256977
0.141586860872051,0.0508603795492052,0.0290027380496322,-0.00208609528302556
0.134656545264666,0.013787892361905,0.0280560752311072,-0.00635000420072551
0.094457496675168,-0.00383236417068611,0.0289539411900723,-0.00608035211659687
0.0538780550812072,0.00393328845847042,0.0305736595197207,-0.0034501519263322
0.0353985280796579,0.0252269442583942,0.0316023904179131,-0.00257101983466465
0.033657895837706,0.040578808810731,0.0319891360905745,-0.00495448206293763
0.0323717364625674,0.0308639256032402,0.0320161483135907,-0.00947921029575511
0.0217908701281036,-0.00462947612378432,0.0320834165293841,-0.0149514168469826
0.0128528159120414,-0.0361354209866219,0.0363383139404658,-0.0195506925251131
0.027226944527779,-0.0387122670514077,0.0452796504441667,-0.0195934724176258
0.0554654217467725,-0.0203199690132725,0.0532855635892781,-0.0131380916429668
0.068739267826499,-0.00876519851936506,0.0556418492077465,-0.00295112120774063
0.0681765736855777,-0.0160854395812551,0.0511397524804358,0.00584006038351387
0.068700066537812,-0.0275952929616509,0.0422566915537669,0.00925568981663015
0.0676451083069774,-0.0307436589305949,0.0370024472386994,0.00605882712280133
0.0633432139925937,-0.0285191505315978,0.0420280658698422,-0.00144250585568614
0.0586242359297411,-0.0321140588244908,0.053651082757164,-0.00823102878695529
0.0572041904487396,-0.0363673067972874,0.0626600202325431,-0.0101386045189255
0.0643740441010951,-0.0122214012576264,0.0625727976790062,-0.00646331010291301
0.0696034126460637,0.0542678743944026,0.0586629117341472,0.000486102393694173
0.0661630365733327,0.111164219791936,0.058831377324663,0.00654084129184278
0.0619630711221779,0.088270678899751,0.0560267689150037,0.00740913188423389
0.056234701546318,0.00304687878855792,0.0427665568621944,0.0013769189490189
0.0419265637290854,-0.063628287088937,0.0281606066853229,-0.00981704341957736
0.0141626899839281,-0.0602845782672574,0.021758081530785,-0.0221172781125684
-0.0199029921411814,-0.0108088717224011,0.0212821729768978,-0.0313402325894288
-0.0380055240487123,0.0188289043259364,0.0211583191540181,-0.0372938804450722
-0.0342013647438448,0.0109726500105568,0.0202561435207157,-0.0438712393457345
-0.0248157342726436,0.00331568538744162,0.0192219157461764,-0.0519202930740944
-0.0251419107042031,0.0142933046489675,0.0156771776400767,-0.0551005774789425
-0.0437332587109389,0.0290483854395603,0.00636571116138237,-0.0461113184000898
-0.0734347663262684,0.0343864025898257,-0.00783089389097921,-0.0256675285984106
-0.085522845715615,0.0285345984104667,-0.0171333449575749,-0.00100979239364138
-0.0652227450326886,0.0193634360690924,-0.0129755571331607,0.0220658784166323
-0.0355966421178189,0.0119415593524234,-0.00160397604350113,0.0407814432580888
-0.0175124487075914,0.00551229168625171,0.00636878669664508,0.0524794790685496
-0.00288920363101035,0.002132745026106,0.00835951818827283,0.0554334614242797
0.0195684777061048,0.00172695864846737,0.00713107868987273,0.0508037484596977
0.0434375505512334,0.00810149636096138,0.00650540238165473,0.0403428897188026
0.0557828649900651,0.0206428596811466,0.00607978940532022,0.0254055179859929
0.0513353141649526,0.0295919204033579,0.00430808664171633,0.00942261029877613
0.0369146912826401,0.044722488060757,0.0039926959661771,-0.00321962751429804
0.0358182774400788,0.065999468343609,0.00648094106812643,-0.010473943289592
0.0608615034999212,0.0569438272760849,0.00845550043515596,-0.0130964439708014
0.0877948234301758,0.00484244180533906,0.00489614345553611,-0.0140414494173649
0.0971329634869245,-0.0642066862135061,-0.00488039412523861,-0.0172768355366367
0.0812169284454772,-0.122948071938652,-0.0152936172259012,-0.0243463526534337
0.0254529197032138,-0.152840527493828,-0.0231057384516007,-0.0313829874665153
-0.048677954311259,-0.148517864543852,-0.0283243420010939,-0.0321294514937895
-0.0999543149670069,-0.121427594308755,-0.0299926783640427,-0.0240826820406231
-0.121261995301863,-0.0905836371653277,-0.0280911418933786,-0.00962535472947928
-0.123074509406432,-0.0688776790498124,-0.0249047027668919,0.00670082780581453
-0.10685922103434,-0.0566000331494876,-0.0237572029379216,0.0190497704745402
-0.0840687221042671,-0.0444148887373118,-0.0265213085111375,0.0219830777076644
-0.078859439744579,-0.027081403231572,-0.030487877899897,0.0162211024899485
-0.091925239574728,-0.0100190836526001,-0.0306002383011264,0.0103778151912079
-0.10215122137513,0.00683412171700618,-0.0263355928060361,0.0121458379496057
-0.0889789580432348,0.0178785259590428,-0.021930649037173,0.0189384575764549
-0.0574706956703165,0.0109710932610514,-0.0216825912069086,0.0211317837158666
-0.0326882117933115,-0.0173797943980402,-0.0265687584281584,0.0135681927712043
-0.00681966404065448,-0.0590939908131253,-0.0314577864003375,0.000947122389421913
0.0396798296024628,-0.0676269517127703,-0.0276183253976406,-0.00839150226100248
0.0886285872827302,-0.0110732380067062,-0.0134087533865974,-0.010953302714259
0.108506943925792,0.0531100718896488,0.000279355387063938,-0.00872245880300309
0.0944357061593736,0.0520590447872576,0.00328610842444957,-0.0037742035706944
0.0710881870590261,-0.00609481323716281,0.000167519736976089,0.00569564327728768
0.0528301277351998,-0.0673486334598868,-0.00188229809094967,0.0211896059750181
0.0302109887392903,-0.0970433685131981,-0.00370315998880871,0.0367387275932057
0.0047779414439631,-0.0800361592812411,-0.00734561353048075,0.0414228371454691
-0.0186932254730168,-0.0271681551853043,-0.0100198018561275,0.0293911044872752
-0.0510922590863644,0.00908049360409741,-0.00748269432364308,0.00657093356820179
-0.0897165369601135,-0.00226210057195196,-0.00224997426179271,-0.0138125120025249
-0.11067549799089,-0.0264734151794405,-0.0021849508330509,-0.0228927511914014
-0.103481733212065,-0.0218687028222304,-0.0080649791520583,-0.0208498798902335
-0.0813215333599587,0.00649392897439034,-0.0123456970715133,-0.0127833503194347
-0.059180602481625,0.0315476835198986,-0.00991142647514083,-0.00430657444421414
-0.0431208416411343,0.0486800496322947,-0.000221757046728146,0.00107597045679291
-0.036102175233696,0.0559481820000757,0.0144136121380525,0.00373004191664016
-0.040685501489579,0.0439326070511825,0.0282962305396239,0.00509704219700017
-0.0543531899030674,0.0202042241601368,0.0363688940511697,0.00427860323075856
-0.065989928275119,0.00681339542012541,0.042330672029664,0.00100061037001325
-0.0597935430795375,0.026559814114462,0.0523227590528834,-0.00197405004423628
-0.0338595328241168,0.0833869425273463,0.0652323059336757,-0.00217569643949696
-0.00233260033084392,0.140719997849328,0.076614323890224,5.43907011429038e-05
0.028167968409619,0.156651569705575,0.0834682629505561,0.00243779222423283
0.0499262440667561,0.136868474337818,0.0858274079535701,0.0029231306997851
0.0481248429601494,0.108390955216804,0.0874046081502973,0.00237190976918185
0.036150529030563,0.0821494555802983,0.0867791838333219,0.00425081510399302
0.0347951249620656,0.0593651962047,0.0781976802292693,0.0102860788243739
0.0344532274661633,0.052543845277317,0.0668012095237685,0.0181004085786813
0.0202084045843253,0.0722297121624859,0.0586077148417778,0.0232297264104536
-0.00280827121203152,0.0969085204258394,0.0511329071183567,0.0222281087611137
-0.0162840294819558,0.109122792254794,0.0422686715183218,0.0166125598933211
-0.0127675312335119,0.113034074506676,0.0238552960287031,0.0127808784292291
-0.00367468266400835,0.10367267311602,-0.0126140163614808,0.0128519788098232
-0.00811122976271359,0.0871014974631281,-0.0540380796857603,0.011794248435509
-0.0324982216459285,0.0870604710696099,-0.0767765250931235,0.00603036157277058
-0.0628287095078569,0.0981371828021862,-0.0789095228627848,-0.00553236964351827
-0.0787553201364019,0.0920205476172406,-0.077868760633796,-0.0241807065397034
-0.0695712066014925,0.0733764021723327,-0.0799529474664165,-0.0460261663173202
-0.0419981578270465,0.064376720965663,-0.0753413061252058,-0.0632356691581719
-0.00647396956452274,0.0566715469252092,-0.0588577823456704,-0.0729154417946761
0.0385191308058865,0.0316789214567327,-0.0357547426577508,-0.0739308831203776
0.0864478131558766,-0.000787759359126901,-0.0112621762709681,-0.0611624950751151
0.120538184458689,-0.00904337023789395,0.0134454983757811,-0.0342403640264531
0.139819122732084,0.00112622963805513,0.0324675752314566,-0.00247848202414862
0.139787147166403,-0.0137925091457389,0.0378187983667711,0.026043887356953
0.117935330463736,-0.0460415703486943,0.0356650813068318,0.0513690208309952
0.0956372066286256,-0.0455333837515445,0.0346850997724394,0.073565530715257
0.0728305889396376,-0.00242533322944614,0.0323052143209671,0.0849412482888313
0.0358896115690677,0.0414574435185019,0.0247679161356371,0.0777154809740028
0.00202244640094154,0.0418891950029664,0.0112358140742891,0.056809128625699
-0.0167859475150056,0.0123887214596277,-0.00640615113667242,0.0371551172107796
-0.0300809128489822,-0.00639813928949392,-0.0250345476188931,0.0287112003908011
-0.0409360446493998,-0.00631567830596105,-0.0436908802186195,0.0252123778461265
-0.0401076447670794,-0.00324828870009999,-0.0597100988771899,0.00939422335247614
-0.0223202656688555,-0.0147240975220648,-0.0709297071045909,-0.0250619783223605
0.000458636850353748,-0.0314495121686577,-0.0765422437724945,-0.0639040795250766
0.0165157015994271,-0.0307457779931156,-0.0753859327829425,-0.0884810782924683
0.025729813294577,-0.0215881187797812,-0.0690245237567177,-0.0906871260294168
0.0316337633099858,-0.0226411882676128,-0.060954566464631,-0.0736829533404958
0.0387692053932665,-0.0282727724603749,-0.0532843300834916,-0.0470321137839501
0.0476410341431087,-0.0325012615658963,-0.0470062446018661,-0.0206207578678041
0.0568846072346231,-0.040286643706498,-0.0447392945020494,0.000365134238424769
0.0659793598477513,-0.0503442807077886,-0.0447960929122274,0.0162162755547763
0.0715001356969845,-0.054593552040984,-0.0431866443134981,0.0288152110221206
0.0702247410295464,-0.0517721511650454,-0.0403089963426621,0.0384715275518626
0.0584861568016105,-0.0482155984827122,-0.0366400628685993,0.0446786110598209
0.0382546563025086,-0.047306634543137,-0.0320436810652311,0.0473058993465128
0.0204590014761044,-0.0471648656659525,-0.026888963337533,0.0470094871444443
0.0134188666730259,-0.0490975657533762,-0.0237143415522673,0.0453947178667282
0.0146627456770294,-0.0574750842982686,-0.0217676230437615,0.0435304478866581
0.0157750158404398,-0.065552027846169,-0.0142974199268507,0.0395957438847391
0.0101368782611904,-0.0554515565215426,-1.30648504430824e-05,0.0298220859808395
-0.00353265073946087,-0.0285962478808105,0.0156341045694017,0.0129127225767375
-0.0118312798739885,-0.0181282436610258,0.0242885710371799,-0.00956413588289313
-0.00454293488549169,-0.0349998673815928,0.0209749671722748,-0.0338883187225822
0.00617587250562245,-0.0491264458946537,0.0136415003612249,-0.0517577011842899
0.00554234810820874,-0.0426303966175638,0.0108125879424813,-0.0556956116196927
-0.0168099330968312,-0.0250038586974794,0.00923832701239505,-0.0503698756005091
-0.0518806825887688,-0.0084478241520014,0.00554220318811717,-0.0465491518339255
-0.0652069949739652,0.00336123242440029,0.00212037667117816,-0.0434066667564214
-0.0522012143025123,0.0106790540645274,0.000832805609741344,-0.0312705958675167
-0.0444670649587995,0.00814183129061927,-4.80749322234741e-05,-0.00577861806829267
-0.0519282503290636,-0.00524674040969641,0.000106550642111746,0.0304609835569823
-0.0568256535252917,-0.0170615755702563,0.00205782942283225,0.0714884617379974
-0.0494377941143031,-0.0278163477419613,0.0029769255043478,0.107635651075001
-0.0407089564856054,-0.0552735058391906,0.00014771896104462,0.12624038632674
-0.0463376602599798,-0.0937573007410657,-0.00570994793844784,0.115741243249957
-0.0633307679938616,-0.114661548421712,-0.0108120132921978,0.0706778845789496
-0.0609991914123045,-0.110551518405668,-0.0157145826281773,-0.000195765729642916
-0.0205432486226475,-0.103451366511941,-0.0204533505651354,-0.0720401331725372
0.0263206835004889,-0.112810522364283,-0.0205776660609659,-0.117797169456391
0.0451827525551275,-0.131056837443781,-0.0170466717850312,-0.125090143849876
0.0430651028661539,-0.13404074784215,-0.0158547921910628,-0.100939030957949
0.0279567394619493,-0.112008290978927,-0.017415236621784,-0.0622358337344823
-0.00834884231476062,-0.065108529566632,-0.0167351467739148,-0.0246249426316922
-0.0596708718264241,0.00799825718888977,-0.00730655613891543,0.00214067242636747
-0.104337106177575,0.0768388167613393,0.0106439843440786,0.0167342971491487
-0.121138894244868,0.112173791196729,0.025243470314964,0.0249294244269691
-0.102172896037767,0.121676112363189,0.0295813180175408,0.0308210438216065
-0.0611555447345534,0.104967889207351,0.0275041703451194,0.0324658421206561
-0.0250493890208417,0.0613883149392529,0.0231447505574747,0.0298192044257117
-0.00830283894365254,0.0171532337877464,0.0211000274553879,0.0274918573678637
-0.00486737021860106,0.00925621983389785,0.0229009798529315,0.0285055284539942
0.00860952364308565,0.0357498969808576,0.0245202195324016,0.033033154178482
0.0461770887049778,0.0419263361114486,0.0246920454066615,0.0384157056959109
0.0821073592847154,0.0135332494295411,0.0259552044385308,0.038013371217812
0.0904614686741092,-0.00872089121941638,0.0310274511969899,0.026373278410856
0.0713090896982997,-0.0243260300700134,0.0349740268970019,0.00593830361022224
0.0328494046355914,-0.0539348178138587,0.0276496987895494,-0.0160513533934729
-0.0087830365218213,-0.0742878730802268,0.0136085864903738,-0.0340862928804733
-0.0292555364307,-0.0634526465485423,0.00682306567839364,-0.0439833049690496
-0.0196183010767155,-0.0456725440207614,0.00582443547644623,-0.0433232548578609
0.000582400249950437,-0.0425354827217898,0.00223974543748599,-0.0350931745763473
0.00856496678598796,-0.0409325273119184,0.00054347894310619,-0.0252467986821261
0.00342241119935282,-0.0285630431834233,0.00589722801507446,-0.0168256490618484
-0.00362848506399055,-0.0123262435100428,0.0117536801345113,-0.00994206010944192
-0.00787477187662069,-0.00443527011602368,0.0114090141361427,-0.00424420408624948
-0.0127716653569806,-0.00775091632458284,0.00400729795626612,0.00125003957595798
-0.0177065159650942,-0.0088300940653304,-0.00520863691800759,0.00764803912339301
-0.0186075247578095,0.00748281345493591,-0.00350386811021934,0.0143146164522865
-0.0189040555441273,0.0385206903690292,0.0129690974734672,0.0175906951311995
-0.0176254276934901,0.0663648607384585,0.0337736365121928,0.0134153517016918
-0.0103846632506796,0.0774243083071725,0.0501031382478667,0.00298318433677824
-0.00389544944497999,0.0714057863885162,0.0567139338284915,-0.00842870244695946
0.000273742300259727,0.0558342977019859,0.0534485240423893,-0.0185330832580104
0.00430038428635705,0.0459906836940361,0.0487514371090467,-0.0279127995655717
-0.000791194889369608,0.0512636350532894,0.0443205577539746,-0.0343537715851466
-0.0150766029430778,0.0647456269967874,0.0340571923938733,-0.0347175597717487
-0.0232843599964028,0.0754549977698892,0.0206047350281684,-0.030321595645405
-0.0129562566227875,0.0720625458729628,0.00622248919952165,-0.0255312105957669
0.0143202033361626,0.0480465043643764,-0.0142114816375473,-0.0233851707853008
0.042212740852084,0.0104246854887708,-0.0378840301982935,-0.0241954546795515
0.0520184435586605,-0.021544636123397,-0.0542483728531147,-0.0272359771760402
0.0352458925906865,-0.0368191721935333,-0.0569365327579015,-0.030380217100275
-0.00235041427824892,-0.0431247539610309,-0.0497267443313751,-0.0281628629644194
-0.0485840513762905,-0.0466410294939963,-0.0384115377440026,-0.0173482385241376
-0.0942790531041439,-0.0484499785931602,-0.0234554661383464,-0.00266348764845334
-0.124284706856787,-0.0494495044685443,-0.0128531392618231,0.00909284650638876
-0.128618265725156,-0.0481494709467056,-0.017799629202789,0.0169385987944147
-0.126160273934756,-0.0426536047482024,-0.0334635331427207,0.0235536804758957
-0.142728352605546,-0.0322475501393812,-0.0466316671763776,0.0277110010985857
