-0.0577396176910646,0.0181801044738852,-0.00965670676277389,0.00306273581389389
-0.122096348789973,0.0320619380409278,-0.013865976358773,0.0026747796431821
-0.119053437740578,0.0310132089613582,-0.00948623234003175,0.0022274240354732
-0.0465506609472305,0.0179956291520653,0.00171035288150816,0.00141679449655545
0.000329014007205503,0.0125348077596133,0.00928578081882823,3.29398758554308e-05
-0.0111730294881186,0.0167758531334375,0.0117784502278962,-0.00119345749225444
-0.0189673094946754,0.0214440715243847,0.0129932009303006,-0.00150081771241836
0.000195497703350794,0.0524545502514863,0.0122752635314405,-0.00107030065332341
0.0129255334509505,0.107185240906853,0.00767104526811117,-0.000492750118315699
0.0185174153999534,0.128218331112658,0.000933422507001838,-0.000121951171551634
0.0313179032643902,0.111700038725761,-0.00261726068260485,-1.25751178749028e-05
0.0340946803485337,0.103352890435063,-0.00240247376241315,1.34821881512382e-05
0.0143858887424287,0.0926151347428975,-0.00507807996826787,6.47737352094628e-05
-0.00430368934132073,0.0263042710334207,-0.0100332665062595,0.000522061245490205
0.00466612863355313,-0.0921832281818858,-0.0108496906390435,0.00187435596324567
0.0347770662206026,-0.176626413526336,-0.00945453528328452,0.00275959307025528
0.065838258583392,-0.174825678237101,-0.00772305681125286,0.000785624735700232
0.0649210367847504,-0.165518075324021,-0.00169072447003527,-0.00327664753039999
-0.0026589612152195,-0.196089980308291,0.00791917615847074,-0.00553716409192679
-0.0763835932120127,-0.183269454667344,0.0169621082776208,-0.00364464477766928
-0.0576677659585866,-0.117824590210478,0.0268128817623119,0.000843548641100865
0.0144827878271283,-0.0587646730827563,0.0354190369941036,0.00448421415487459
0.0415184180775936,0.0238985031387067,0.0348728664749866,0.00559197453739487
0.0220417606702611,0.126102328381835,0.0285086842364831,0.00502871303994387
0.00308219595656648,0.149919927896467,0.022561876784643,0.00381258794616472
-0.00347471082994381,0.0920499263323154,0.01231453244509,0.00248965542605725
-0.00430106176315522,0.0651672944119886,-0.00114416649648021,0.00170813028763141
-0.001386532423961,0.0929388409308566,-0.00853689856800451,0.00123606718399547
-0.00119897100622397,0.0987027626535785,-0.00953407379316967,0.000103743706733753
-0.0072139991017996,0.0570749638264935,-0.0112693368134498,-0.00171398893973189
-0.0133070798359881,0.00872172642715317,-0.0159346321898081,-0.00337221794565249
-0.0196244075491963,-0.0162254816638343,-0.0170788134726526,-0.0043894685697247
-0.0340826693192179,-0.0264195182829587,-0.0123004534359571,-0.00419245820736334
-0.0464178635686237,-0.0275179770104413,-0.00596961102280446,-0.00194300231906019
-0.03282307308472,-0.016181529175591,-0.000253502886542314,0.00146860983488425
0.00429106508864033,-0.00750719217711019,0.00446191934269677,0.00343819816670335
0.0335916583569126,-0.0112393955660394,0.00736480080662902,0.00289566388537201
0.0375328104995134,-0.0198260127688,0.00754669719475937,0.00132773309579596
0.0316469604360168,-0.0343735125055515,0.00926394870694172,0.000282579719060074
0.0280068762589017,-0.0597873407205491,0.0150486142044923,-1.33578222676441e-05
0.021380939472405,-0.0705317292954404,0.0185366412982804,8.06969972187115e-05
0.0160885130587724,-0.045884614626247,0.0190378031936796,0.00011743470329488
0.0160531307244579,-0.0204748726593937,0.0231097133345931,-0.000100903357606305
0.00656198638013297,-0.01680598391993,0.0286454182877092,-5.77231207181822e-05
-0.0162036686394892,-0.0174862603932499,0.0293233317091634,0.000730219950066799
-0.0299094333759121,-0.0232507981780314,0.0280013806447498,0.00172996531037526
-0.0271915082403041,-0.0278795591411396,0.0271321463464904,0.00224409785191743
-0.0274259721327196,-0.00710565336978399,0.0244284543373984,0.00226489374531336
-0.0338997010871028,0.0306617746604725,0.0217491502421217,0.00199660347506958
-0.0309751189253807,0.0595863358255554,0.0206533300957634,0.0014309361207184
-0.0192294077410339,0.0694420308864519,0.0180231135725537,0.000524847860193967
-0.0144383295933164,0.0671027859524867,0.0117471515409074,-0.000728515763980021
-0.0228983339069275,0.0640756036060863,0.00598438669999943,-0.00224987525395173
-0.0327039026568483,0.0571086124015685,0.00189649769823726,-0.00365485277322203
-0.0323140794293047,0.0420904970589424,-0.00443244978165025,-0.00456129511592725
-0.0122801682483572,0.0290065240307679,-0.00859274464526615,-0.00446524911047522
0.0318780871063561,0.0167075913845319,-0.00346004760231362,-0.00320772036045539
0.0669140144592607,-0.00657056652981735,0.0062336673260895,-0.00167351489073819
0.067098950187062,-0.0312075957251645,0.0117750589748815,-0.000553652807044086
0.0511482372709511,-0.0337118163982811,0.0100513813417719,0.000247350549055834
0.0331803139456974,-0.00766532996470624,0.0033343605413303,0.000807383242131456
0.00503505721795121,0.028020337882559,-0.00151901251127149,0.000999732750785635
-0.0303968422946732,0.0487968869221912,-0.000692264697502793,0.000805395591243368
-0.0422250013502702,0.0513282007753527,0.00493727753113846,0.000490304888414339
-0.028043453368426,0.0447037687117143,0.00897514982683473,0.000180764205102423
-0.0223259923840377,0.0409382518601085,0.00400689750441626,-0.000394142385519431
-0.0269911862908184,0.0529633618621543,-0.00549160382273021,-0.00119890356111477
-0.0230312629027636,0.0687594432943142,-0.0111653396031305,-0.00148514541861406
-0.00255838089758515,0.0784787544087592,-0.0134687698868763,-0.000511995491292222
0.0257527754069577,0.0884440948032812,-0.0161425104921642,0.00131141912879957
0.0362366152181217,0.0887837833357829,-0.0181843315492186,0.00272262863933944
0.0458428818691182,0.0702818530608899,-0.0120470788875624,0.00293064141302664
0.07342978182899,0.0516339833986319,0.00170094558375922,0.00201251176396541
0.0707407663113483,0.0648774802721707,0.00898140402953928,0.000482043735890808
0.0195688461704221,0.103443597070931,0.00335885037187632,-0.00168807856142147
-0.038188771367452,0.116692955697721,-0.00906515503603125,-0.00476730642329688
-0.0625965190445224,0.0365715367627314,-0.0166423265750496,-0.00768132902753635
-0.0310539058826961,-0.116230215499262,-0.0121392781433324,-0.00868356936236851
0.0300935624034538,-0.174744406842204,-0.0046989535082045,-0.00720843108889952
0.0511705431920324,-0.0599364179098505,-0.00563444290718783,-0.00408663686001345
0.0162847504245413,0.103937035892809,-0.0131607926667639,-0.000515017948750585
-0.0117801252817518,0.180115832801504,-0.0185075005132964,0.00241116301685676
0.00835600124468966,0.145745466983856,-0.0121129079697112,0.00371386783118497
0.0576054163322673,0.0490303086379806,0.00789535454144902,0.00359183935534978
0.102739845322142,-0.0602147626784142,0.0288415143487583,0.00338065705415328
0.116161266689166,-0.153188641276351,0.0361578760098355,0.0038621230078572
0.088636019568915,-0.201380050993245,0.0298768336910338,0.00466989036228197
0.0479737703418869,-0.184197395331555,0.0168309283454535,0.00514684036014966
0.0209905508616338,-0.115267796992631,0.00137650141307981,0.00475762234202058
0.000242009901376836,-0.0276932513265701,-0.0117585762244731,0.00319953902072136
-0.0272321394706836,0.0424357159061362,-0.0214118547310089,0.000872912598803794
-0.0610303276223208,0.0826952583375245,-0.0273617010807308,-0.00134395652275881
-0.0751951501376565,0.0948999993378709,-0.0276951978983467,-0.00283922770270363
-0.0565249544790168,0.0834405767610798,-0.0235211456446777,-0.00402647049507839
-0.0369526762938594,0.0582331122065088,-0.0164956493458727,-0.00556795540651771
-0.0202850434541481,0.0202795221468754,-0.00565224737369292,-0.00688222798762081
0.0081426813028498,-0.019499047047149,0.00725394778127675,-0.00661742995886604
0.0223049561063459,-0.0460571542539441,0.016211143674622,-0.0039286465452857
0.00664267707318503,-0.0548375863562408,0.0177587820908039,0.000590312348192876
-0.0183444404737618,-0.0494024515519409,0.0149217374857504,0.00461247202140376
-0.0340260380282252,-0.0497905335274779,0.0164648346530146,0.00602313147871848
-0.0291514118934484,-0.0653338965210317,0.0228767357013522,0.00494724153527243
-0.0111108115459984,-0.0763874179765595,0.0203018482975389,0.00276181664328536
-0.00180738466700432,-0.0772931332536402,0.00926872012331445,0.000624199153724213
0.00145954901600043,-0.0853917818270706,0.00726337182506898,-0.000557385376031316
0.00872316277905957,-0.0975344957341226,0.0136642066333621,-3.33522325405329e-05
0.0115400114298348,-0.0986660697785753,0.0161527343097311,0.00216956640527415
0.00642418415551138,-0.0887346684957578,0.0105854246165547,0.00488093119073634
-0.00119241326513403,-0.0718432328368127,-0.00323403565320271,0.00625656416575329
-0.00581227792122255,-0.046493077315696,-0.0187431119357609,0.0048812752341481
0.00112544346834358,-0.0202072891129438,-0.0240943515018841,0.00104233856917858
0.00805663630771912,-0.0137387662510758,-0.0169251452821228,-0.00307375797170683
-0.00469325980364967,-0.0303599982019254,-0.00722258836580476,-0.00492000125791965
-0.0217075226875379,-0.0485488577035441,-0.00351059723086015,-0.00386818639972009
-0.0253098776870607,-0.0544249603952711,-0.00656201435494608,-0.0019086857276529
-0.0226711579756242,-0.0613864201152368,-0.0105665222871919,-0.00135191357632503
-0.0167235482536778,-0.0790866363814346,-0.0106856060080372,-0.00221585007959517
0.00209161550925688,-0.0928319058923482,-0.00726925057505407,-0.00308845803248482
0.0314559783013772,-0.0952094626390831,-0.000278151843192076,-0.00320052042077049
0.0398490862514706,-0.0911478963348317,0.00731570217292059,-0.00248457920457012
0.0151718988959056,-0.0793058137011283,0.00800285171776655,-0.000733058377075871
-0.0159150515677586,-0.0570810454632596,-0.000405284429422628,0.00191782191959766
-0.0301300072614109,-0.0278037729574958,-0.00818842909415028,0.0041865722348275
-0.0302987296973538,-0.00238971642210802,-0.00572304003979708,0.00531271448685854
-0.0456410108266731,0.0236481293852917,0.000397476371355114,0.00593880570857145
-0.0786835374192549,0.0622941101994092,-0.000593511736029062,0.00614679508489747
-0.0769128353361684,0.0904333247072554,-0.00556494770729984,0.0050536014549409
-0.0302118920959828,0.0916888730217068,-0.00680927443630981,0.00265865237500405
0.00246480430644061,0.088871350978205,-0.00629049610864819,0.000270593284252963
0.0117954872543932,0.0768060122910166,-0.00669297350284368,-0.00115213240923588
0.0316185719323467,0.0453287788386133,-0.00660613973911872,-0.00186450520630857
0.0550683422525148,0.0245755154946142,-0.01107045996522,-0.00263991969803577
0.0698631625151273,0.0118855248610708,-0.0206577793285995,-0.00394998497157174
0.0915565270335727,-0.010989770876465,-0.0259362826116482,-0.00519592753382988
0.113767067344003,-0.0300374167829819,-0.0220648629112375,-0.00501201276610697
0.104046387418831,-0.0518501876717997,-0.0127999731105244,-0.00317257394850207
0.060376308922362,-0.0819939813153091,-0.00691336257643706,-0.00103427762530779
0.00460846154979042,-0.0822622405846209,-0.0070087744082233,0.000102794540134283
-0.046298966172936,-0.0486098268108872,-0.00639714578944516,0.000328013966452691
-0.0791410474168252,-0.0191160701324646,-0.00373598742323632,0.000735974344048876
-0.0895411359971233,-0.00188925618738663,-0.00360169909683787,0.00171565724406647
-0.0804316403159967,0.0127027841868531,-0.00506349910768245,0.00251851944127087
-0.0595425559485068,0.0316150887388684,-0.00316830917720874,0.00261421551910661
-0.0348361274770317,0.0594125933454389,0.000561035814874909,0.00224075845715982
-0.00805514843095884,0.0838783591659858,0.00134838058305011,0.00166562264195803
0.016189936192482,0.09220292680677,0.00126619016736369,0.00140599779289445
0.0274451137367004,0.0830546647767291,0.001664154434871,0.00196270926018354
0.0248035124903712,0.0457028036834395,-0.00188205513093767,0.00247228229120104
0.0176938319726592,0.00577393704720105,-0.0128398151992864,0.00195665264504401
0.0166449386264232,0.0114909325130468,-0.0272609236094963,0.000886460914972815
0.0283943491232303,0.0360443781283521,-0.033560860683695,-0.000138055750296742
0.0445169166087417,0.0366580433225381,-0.0291190778001526,-0.00133199415549402
0.0497664992959436,0.0172115806557941,-0.0253479286959877,-0.00299720013878286
0.0410264787875329,-0.0139624450667652,-0.0288519264855846,-0.0050224057176538
0.0285495315808249,-0.0401606610312778,-0.0329625224836742,-0.00656278649875495
0.0161298915071544,-0.0373328674229099,-0.0252332775911329,-0.00649183909135136
-0.00318068389778921,-0.0142392994288127,-0.00417414941313594,-0.00425193640911852
-0.0349993698044488,0.00543526404557933,0.0128352062604969,-0.000191159100920597
-0.0755609295334792,0.0245361114030298,0.0138647181293116,0.00350229936120267
-0.101222139204881,0.0520155357446609,0.00395808141862761,0.00433456065226566
-0.0987882461794259,0.0772917842947849,-0.00708062243908249,0.00261559397768138
-0.0782178419990347,0.0911699991470318,-0.00420966237981296,0.00094322933991622
-0.0514510944667398,0.0991047734931303,0.0172535546230348,0.00165076882126768
-0.0283671310084648,0.102595998407028,0.0356011834650625,0.00439474204038248
-0.0139694326757078,0.0945412043129341,0.0312424568145862,0.00623554496192529
-0.0087408782886635,0.0739770769046603,0.0127867102294288,0.00511841989428291
-0.00855109046471081,0.0538801927585328,0.000159387644398552,0.00175862034812109
-0.0114293764890592,0.0411086984212736,-0.000642264451401191,-0.00183860812960138
-0.0124609429371672,0.0121792309449862,0.00371154159335506,-0.00385119452626061
-0.00596885571607876,-0.0489873746649728,0.00549891695096028,-0.00350623086874165
0.00370187857709664,-0.0921593660255257,-0.00039578570932253,-0.00208296042436565
0.0180841409122446,-0.0549288904259784,-0.01132376215446,-0.00167499336079817
0.0362788224287258,0.0354246082473118,-0.0192608490869109,-0.00246958013708595
0.04661754802125,0.100674457744375,-0.0185800659863817,-0.00296978243735828
0.0442283457516774,0.111473760325539,-0.011536845630235,-0.00235887345594311
0.0376287850885349,0.0916432594830646,-0.00732196133327812,-0.00097868346045138
0.0517961590688692,0.0596565829923618,-0.00848111366681436,0.000550096306803821
0.0742394285383606,0.0221781918924107,-0.0091544362472536,0.00147886702747785
0.044328339597137,0.0101039079934334,-0.00852687270859351,0.00132849402800336
-0.0181813764371012,0.0272236685643614,-0.00827455859586257,0.000564385935140639
-0.038566245807034,0.0201178079211292,-0.00368642376359393,4.49911585810539e-05
-0.0346106844832503,-0.0249680654975808,0.00695288777115017,0.000256334870634627
-0.0502657522266997,-0.0644599353506012,0.0172369173667547,0.00127636518200144
-0.0471532332418076,-0.0710467632883005,0.0217431191773755,0.00247200604014767
0.00355163251787969,-0.0398604479715047,0.0237324704423082,0.00280009777182638
0.0524838480351984,0.0196549875341743,0.0260607795683404,0.00200640585130184
0.0667060306063918,0.0814498709736431,0.0239815864995229,0.000380539236086378
0.0679706102088844,0.118278372002668,0.0150060736588568,-0.00210546289928634
0.0723151594852646,0.116463555026911,0.00419011563957698,-0.00507304106285347
0.059645570995276,0.0919487725825564,-0.00197354554417731,-0.00710204631639493
0.00128359719189526,0.0752405971605728,-0.00547131132502729,-0.00684099969481094
-0.0754814554786371,0.0744183888162592,-0.0128907577529982,-0.00442710403352282
-0.0970300881256054,0.0738927999327259,-0.0215119840259365,-0.00156489507288679
-0.061542384569021,0.0626298574017188,-0.0222577048125072,0.000380891304655595
-0.0309219164620352,0.0393407217563203,-0.0164501157155792,0.00285004679533197
-0.0121648067622082,-0.0075056681359819,-0.0120301082999595,0.00884879239143239
0.0148860879289641,-0.0829028427644056,-0.00703573693309466,0.0166017905012274
0.0391909374937356,-0.143553774968262,0.00399082423153699,0.0185977874962216
0.0518983692353301,-0.139624490130044,0.0152244360143409,0.0113794120453411
0.0524382419007036,-0.091078501817596,0.0193065843544058,0.000164129355640738
0.0376101020829705,-0.0513394968584836,0.0180779256372454,-0.00815187697057693
0.0140655192188537,-0.0307705053283235,0.0151821077638601,-0.0112875188139357
-0.0096977122933661,-0.012303645187215,0.0132095516197782,-0.0108495534598649
-0.0283857680240697,0.0151119249567797,0.0128122318751729,-0.0088429094959263
-0.03601828700576,0.0548436110121123,0.0118976287012142,-0.00635277259982865
-0.0319523084564854,0.0845452447440376,0.0120026570979089,-0.00425428510965521
-0.0243216758988363,0.0858215936049708,0.0128021621481673,-0.00304470850547417
-0.0164630134462759,0.0756575826580203,0.00763018462811648,-0.00190586069545766
0.00699764375863019,0.0702269162959526,-0.00167812312374754,-0.000105065311158435
0.0367781102050677,0.0719032957859584,-0.00718811682015206,0.0016169750347602
0.0335616897978135,0.065811479847282,-0.0095722626148407,0.00264199409333587
0.00245814375814756,0.0120620789026985,-0.00930262422500082,0.00335121818862071
-0.0167986970814568,-0.102656416944333,-0.00137403442284827,0.00374322463632291
-0.0197469608863355,-0.187996613564525,0.00843442627407913,0.00325976922217183
-0.0304043453260147,-0.135371364702741,0.00855547785787638,0.00190481643052361
-0.0451072763661989,0.00866300624155009,0.00114862668587193,0.000517315722235416
-0.0375790477079765,0.110415676885639,-0.00434030481324893,0.000289260972616207
-0.00839942565935996,0.118374149992013,-0.00362794232912667,0.00141261005475849
0.0191519500494888,0.05411742534378,0.00167069519412983,0.00273124612189508
0.0412663132238125,-0.0422637896207587,0.00589267213434859,0.0032558477133317
0.0594043694815301,-0.0904665072302144,0.00520838493495098,0.00247298585495725
0.0584888149329421,-0.0447464387184683,0.0034088781854377,0.000207990956354192
0.0380715177076556,0.0185984373299349,0.00687555301489394,-0.00250890958254095
0.00304187275173147,0.00646926898928202,0.0158031136955337,-0.00380157260824647
-0.0387649875290881,-0.0744280979633697,0.0248939487846743,-0.00280794779109571
-0.0688973036615462,-0.142275032688658,0.0287506311230789,-0.000713502745095891
-0.0835251775657154,-0.138223177203239,0.026550979912527,0.000626719891133889
-0.0770838511503097,-0.0785957922982315,0.0205150390975624,0.000404976365948989
-0.0388921599161785,-0.0217287862780741,0.0117955958861207,-0.000915218511358358
0.0170470049629883,0.000947843822276806,0.00298086245754403,-0.00241605506402052
0.0525043613735097,0.00842504933247568,-0.00236068082756902,-0.00369317957353045
0.053212083038841,0.0202095624163517,-0.00287311523519771,-0.00442360338181236
0.0509473125974278,0.0268588419244124,0.000584976676241361,-0.00411770780702796
0.0643937402423559,0.0180162670380805,0.00420188158763497,-0.00294283859329525
0.068412241075633,0.00421770991886914,0.00456940278184996,-0.00140557482964317
0.0210393162616735,-0.00191653734003812,0.00119311653605394,9.08838199497599e-05
-0.0625904856501636,-0.0160201970607726,-0.0025171081978195,0.0013606784418803
-0.0898278664085891,-0.0539424216695984,0.000965195984036341,0.00274423590683425
-0.0360368886676554,-0.0760063545581412,0.00906084816218714,0.00401484026983108
0.0238613650875671,-0.0419180931760233,0.00775230041718799,0.00383929824864926
0.0542109282053704,0.014879631605748,-0.00385067484901501,0.00136293623416531
0.0623273999362826,0.0436052530400495,-0.0132913080931263,-0.00245274167892904
0.0444965719771652,0.030483451818382,-0.0165535082135546,-0.00537832096406687
0.0162313414561506,-0.00528646303937048,-0.0161883527926529,-0.00601611304943321
0.00702993145800887,-0.0195349762144957,-0.0149743036804982,-0.00485147841338725
0.0181776696253058,0.00520436768223274,-0.0185689193085252,-0.00344817464694232
0.0202267856467958,0.0233717512594461,-0.0268223365893273,-0.00299273355732456
6.53238955880975e-05,-0.00641759480888959,-0.030510131394309,-0.0027970294499708
-0.0156985532188776,-0.0621523166797131,-0.0257348746888907,-0.00115534559721108
0.00297769042832649,-0.0993991133113941,-0.016883910983108,0.00200502238730533
0.0447397878194052,-0.0884453088772114,-0.0101544119316989,0.00475224647425206
0.059253036616297,-0.0191169138377732,-0.00593203079300104,0.00538798524916653
0.0279859118125999,0.0457480016067345,0.00364197272564781,0.00440621117559019
-0.00799907463304329,-0.00920317952301641,0.0191747382505422,0.00347123197821317
-0.00365759758643996,-0.178525878088806,0.0321855526260469,0.00290699902969045
0.0241819915402781,-0.276779790050255,0.0342144898530724,0.00202792252514087
0.0154409416232701,-0.173937815818075,0.0257038437418874,0.000850073441326126
-0.0280408046854129,0.00821383962355027,0.0145874881234104,-0.000618426309195893
-0.0524884886494533,0.106686577261722,0.00372863418007295,-0.00297014323969188
-0.0459929576825641,0.130214508497378,-0.00508661344056088,-0.00580474002276076
-0.0286173803591746,0.131839995682096,-0.00674861452818894,-0.00705597783358558
-0.026762313467655,0.113406779382454,-0.00457507476895049,-0.00491964490420668
-0.0487761868322846,0.0795269061076927,-0.0094616957267352,-0.000410779468966263
-0.0621547680078401,0.0494873300884899,-0.0195541010833506,0.00331371798236059
-0.0478065826575361,0.0283066631621921,-0.0248098990147391,0.00455409601377912
-0.0236697740272508,0.00472072379943178,-0.0220535793631188,0.00410657068992689
-0.00356639291604201,-0.024192180653798,-0.0139097747789133,0.00314196395876059
0.0226011969406752,-0.0523295694378511,-0.00538904527645276,0.00201545098100053
0.0658768688929735,-0.0812288266153383,0.000809235621881676,0.000607576692085364
0.104677549779345,-0.0982589573887553,0.00457646807041294,-0.000750423408311617
0.099318538523564,-0.0760373573024286,0.0068217731257035,-0.000732229039904228
0.0517474229107396,-0.0305091480851544,0.00893993774296168,0.00111554053987058
0.00707917955571583,-0.00638999540750226,0.0120201518453181,0.00318471796883394
-0.0137743510366209,-0.00642466948709858,0.0147431533062542,0.00367452883327486
-0.0262245789500745,-0.00409266828114884,0.0135758122703877,0.0023317841524135
-0.0351512022696219,0.00737805626725865,0.0108045873779444,0.000340988666180337
-0.03285418593662,0.0179995755942706,0.0108950994887201,-0.00119593353823932
-0.0255729075247272,0.0203945614725221,0.0120036104166258,-0.00209563796037178
-0.0278561596264792,0.0151534772721198,0.0122372045886877,-0.00255867661458163
-0.0446654879756067,0.0204227765245735,0.00983168244136379,-0.00246697465692957
-0.0557457381258388,0.0504306242032263,0.00215455907041539,-0.00174600703668446
-0.041359823385123,0.0847505261352191,-0.00885690034696878,-0.000874622703845938
-0.0159915238322731,0.0884237568697168,-0.0158233642132316,-0.000245740711420868
0.00836928956320706,0.0570900465453639,-0.0111090389656267,0.000319895440117364
0.0278365261017349,0.0360492582454955,-0.00189892497709448,0.0016313377623194
0.0285121194374913,0.0632783331423192,-0.00222835852430188,0.00428129301303585
0.0131786245643982,0.112262316889296,-0.0103040222685273,0.00734535658651304
-0.000104460914683413,0.129805705303679,-0.0149443120858485,0.00827194330765374
-0.00759845458057695,0.104266643931823,-0.0103632469708304,0.00485922301739022
-0.00171411159759034,0.0609825230370147,-0.000450662708695301,-0.00179303650271393
0.045700960997619,-0.00713520473175788,0.0060181297298204,-0.00788898737540641
0.118089261456069,-0.0980158316377398,0.00718568856460351,-0.0105370895025006
0.160594926366875,-0.160367198421868,0.0124922446594887,-0.00940048179185527
0.149515326488844,-0.176581095669857,0.0245605923275019,-0.00580977591369711
0.0995219654763113,-0.162219404578979,0.0302742326125049,-0.000771909085813724
0.0395366657941227,-0.126161601764927,0.0244634799163758,0.0058933883389935
-0.0361153331720592,-0.0737093727512235,0.0148173949886235,0.0131051130353777
-0.144704866775834,-0.00825372011662018,0.00536706131464273,0.0166945589586392
-0.216420675476029,0.0598520188801104,-0.00113887662302152,0.0135043358867144
-0.179395130793388,0.106931235786975,0.000823800134751813,0.00525305637880157
-0.0932733339573621,0.11922104481783,0.00755936505014223,-0.00372649176168971
-0.0293115532556371,0.112994759948698,0.00769265558444891,-0.0100121982586775
0.0165875739729666,0.103177972179155,0.00216528870272417,-0.012427889784522
0.0509022878094949,0.0815342525715153,-0.00207013194798301,-0.0116329688124554
0.0565184434510645,0.0495571020610302,-0.00586589864176978,-0.00873319306282799
0.0370598083272785,0.0231238116846856,-0.011272163572495,-0.00470719424628059
0.0175138089415191,-0.00394727938153685,-0.0142207908903464,-0.000846863561510987
0.00947461249254864,-0.0381598927141787,-0.00612319935399068,0.00211967555273261
0.0165432123740326,-0.0643037874855407,0.00793428901967688,0.00450272892036653
0.0276462050882531,-0.0761940260571172,0.0134678656517554,0.00602562142036802
0.0242864288491971,-0.0732094737539178,0.00888468232738379,0.00541249250081946
0.0130187925095466,-0.0570594621369142,0.00111912510458378,0.00284941120760535
0.00963935493347061,-0.0444738233591572,-0.0032952105587732,0.000807248047410799
0.0082390919062076,-0.0418586068485274,-0.00189734688779429,0.000884286088520931
-0.00165087318209222,-0.036789203821041,0.00476038237577377,0.00228886393206017
-0.0170399061598342,-0.0240047036405441,0.014267705365471,0.00353477465408771
-0.0330979829212672,-0.0103333120917854,0.0199152171142831,0.00366646925886308
-0.0448900909711263,-0.0012172360028428,0.0201663719322184,0.00252466418207528
-0.0507183335475775,-0.00324946779635919,0.0195865751382287,0.00107830796158794
-0.0565057650229975,-0.0228475630719845,0.0182012491996633,0.000435108159302127
-0.0602595456387623,-0.0541164905162267,0.0140614804921166,0.000587896126516322
-0.0508056033937869,-0.0789288685997402,0.00570825871483666,0.000900836474150694
-0.0235545472956029,-0.0877401453857714,-0.00683523543782798,0.000344805886960709
0.0179634068198198,-0.0925412480797225,-0.0148193706745533,-0.00150378337403562
0.0527430564692565,-0.103151499636095,-0.0100369941877672,-0.00335699155594662
0.0457061618468483,-0.106714041704924,-0.000610499215692104,-0.00372809273031413
0.00131430987574364,-0.0824380004775416,0.00144474222722142,-0.00273117895527865
-0.0333961420896464,-0.0331166662267154,-0.00187120505172072,-0.00160290265565359
-0.0391547397287667,0.0174529639995429,-0.00427125704942509,-0.000978912918599509
-0.0373094319775846,0.0510993889879075,-0.00337831689673001,-0.000534633062560836
-0.0375278313018689,0.0630752510205693,-0.000538224350023708,0.000264632817568411
-0.0302073407852834,0.0523258009178495,0.000345590777417493,0.00139393177240786
-0.0171337286866457,0.020791040529969,-0.000776536839304606,0.00221715540122834
-0.0034995786294928,-0.0113816443679073,-0.00247285222422883,0.00245313135552227
0.0125626119006158,-0.0254905772802136,-0.00335557561401862,0.00222355055203717
0.0240906115824548,-0.0321187275310034,-0.00145470488566833,0.00118054398154782
0.0207233158426162,-0.0442304914003765,0.000410023619048081,-0.00086214099171062
0.00801783792183749,-0.0564279588676411,0.000484406931334768,-0.00291879338288941
-0.00450842533218701,-0.0608604841092425,0.00102432510411148,-0.00369825862540376
-0.0233604261351498,-0.0497226090444382,-0.00619312732705438,-0.00314617305315207
-0.0451102192505546,-0.0203949991542604,-0.024409373657597,-0.00253287597257984
-0.0485942305707008,0.0295928763311204,-0.0354340106396321,-0.00290804393138432
-0.0326831451146584,0.10395092516641,-0.0319784147514133,-0.00385438112124859
-0.011600158312058,0.174407368607175,-0.0231655520860503,-0.0038766457115358
0.00727486171449471,0.206109552562859,-0.0129872366032705,-0.00203188357804248
0.0189778321792672,0.194501916935961,-0.00560208725033317,0.00104006806893377
0.0194250702159992,0.153260502566232,-0.00466345250447811,0.00379629526464726
0.0100073361740213,0.103341461681921,-0.0082090933181865,0.00512205406787491
-0.00143052777282435,0.0435601620856973,-0.00955146354038072,0.0050101727817395
-0.00775696462004934,-0.0544082482245247,4.62385782398619e-05,0.00425427628019649
-0.00565382808141986,-0.175934228759737,0.0174098133597215,0.00352622605913056
0.0045856136639086,-0.226531535688666,0.0274763314565494,0.0025107674862753
0.0131777786500428,-0.152511732510235,0.0226321427845613,0.00052968980383951
0.00941012147299891,-0.0309565527050918,0.0101780021686249,-0.00218228162771699
-0.00470178408170493,0.0439195972690198,0.00184390373214999,-0.00487456597679654
-0.0179888283928939,0.0616905338690544,0.00152121972037449,-0.00698788400602113
-0.0112948121521407,0.0598299455134519,0.00398659872164733,-0.0079180333384361
0.0236414653759658,0.0631760432840048,0.00455176272703734,-0.00691576712083463
0.0665312449130759,0.0691750250999069,0.00197527380049446,-0.00388009733646521
0.0919305172426225,0.0672033416881519,-0.00185958419180801,-0.000574497365350789
0.0792330999420564,0.0513077678085195,0.000215151609797421,0.000805802524551603
0.0348885680308885,0.0308964546115675,0.00693949564340564,0.000479110905654776
-0.00407086917353296,0.0185746993211705,0.00817644301130815,0.000483428201204194
-0.0232818263181163,0.0053953402558046,0.00319380892958847,0.00159857344518397
-0.0402153735083683,-0.00367662182242612,-0.00221571861718984,0.00243739130255869
-0.0556996750168682,0.0177466858534364,-0.00619083031635564,0.00200373232802817
-0.0537745254756897,0.05731025563529,-0.0073109163248415,0.00113181962486287
-0.0468684936743445,0.0742028346279476,-0.00529237312977194,0.0010657131040661
-0.0441700666403658,0.0654703114503438,-0.0032469931685922,0.00190092347227112
-0.0324683373550185,0.0629303566366461,-0.0023839284824757,0.00255640539409979
-0.0138143989748138,0.0784061272162689,-0.00173227900170021,0.00212905049978089
0.00102839003488094,0.0850515871455419,-0.00119809264527795,0.000804484707153698
0.00660589528332348,0.0604601805026065,-0.00365208825627862,-0.000442137207749605
-0.00255591942618539,0.0159316309096632,-0.0079098042929511,-0.00112535365190514
-0.0225619126525625,-0.039170048833783,-0.0039424850880215,-0.00155973963184676
-0.0287608639673411,-0.0933185967176553,0.0112510416376083,-0.00146424569945434
-0.00420160031214302,-0.110553447869146,0.0234720661684725,-0.000484304448992161
0.0290121226896523,-0.0843062199705749,0.0206918358507523,0.000433407526187469
0.0455570164384542,-0.0440524577831509,0.0104724657934667,0.000315684598859021
0.0590783831518342,-0.0167995163483721,0.00648292956034702,-0.000531688780831926
0.0845478394090641,-0.0117060156023268,0.00997113525043303,-0.001000842764175
0.106773285418683,-0.0112861971182523,0.0115997102236403,-0.00044230844111309
0.11149090991512,-0.00816049316236397,0.00720266958749555,0.000553802455527328
0.0915583377698964,-0.00724081237756048,0.000826507056554382,0.00121435800242156
0.0402707751747788,0.0081571563475535,-0.00552000010309795,0.00166479748327065
-0.03020910547315,0.0512635577509264,-0.0108176566922128,0.00230704847530407
-0.100491928059055,0.101412613521094,-0.015159206433707,0.0029370889873363
-0.149831458759145,0.12800638877503,-0.0194425526959007,0.00300833833263648
-0.145836746061839,0.121394717067139,-0.0201029576716565,0.00224171165950186
-0.0913094720545348,0.091316739647762,-0.0153627862159351,0.000716039735962648
-0.0321284613481522,0.0510336580670877,-0.0113001845615153,-0.000878876746066626
0.0123056085973381,0.013432398252357,-0.0134372696742418,-0.00186156858942805
0.052169812140675,-0.0160913738565498,-0.0170406066287558,-0.0023507832339243
0.0943411507168358,-0.0596676746932417,-0.0109488768015008,-0.00271561965896068
0.139023504741436,-0.125579905635528,0.00598304697063268,-0.00315019044438781
0.1609679038246,-0.156013970405387,0.0185605582290791,-0.00319878134808468
0.132799580139151,-0.107902912064672,0.0165307953471135,-0.00209242660692787
0.0674234544766659,-0.0285814041920232,0.00670498243868222,-0.000115633918435267
-0.0138726527889252,0.0229414334083761,-0.00119749731576196,0.00177446775222928
-0.0863388896084627,0.0352104647071881,-0.00417476805564587,0.00319072277732402
-0.112231504710845,0.0203967439726958,-0.00454333457432815,0.00394218862254769
-0.0865831979425066,-0.000590003040581485,-0.00543487180182408,0.0038891592351436
-0.0372725632923745,-0.00683111036936204,-0.00405883335338285,0.00339044293117418
0.00668496077399466,0.00923610247420532,0.00112720308016432,0.00266311461146835
0.029542527622803,0.0415841389938478,0.00326758925490931,0.00180682099131065
0.0358776719796468,0.0694525095420196,0.000803365066345166,0.0010807588233587
0.0352583810632143,0.0694544549748961,-0.00189546190156289,0.000301877312222399
0.0341136076957252,0.0505565262037001,-0.00394569849336326,-0.00096261592535128
0.0371079176257392,0.0311043156856536,-0.00436136604536974,-0.00251764260638153
0.0398882942549244,0.00928651746595129,-0.00185515767004914,-0.00341981777906251
0.0348543173305866,-0.0110483602002202,0.00123717448006278,-0.00306583060085043
0.0149585250666208,-0.0265583634193492,0.00379139415877927,-0.00191168497700699
-0.0222990875662131,-0.0490948854490005,0.00751359733338643,-0.000636547717974764
-0.0601583462588379,-0.069819532871047,0.0100905674424345,0.000441156684567221
-0.0690084992444191,-0.0615767570354131,0.0105460602405481,0.00111117968690971
-0.039076019482981,-0.0445451539522641,0.0132284766095338,0.00116038764936588
0.00099765546004453,-0.0576165631441831,0.0168551001210634,0.000487552094059891
0.0166188924224702,-0.0808746035509645,0.014804120028544,-0.000491186681614201
0.00896481456845549,-0.0717917843672081,0.00568146750311608,-0.00111415141111456
-0.00427387051731206,-0.0294987480195449,-0.00449377287559563,-0.00157335988082874
-0.0186854164929794,0.0098079909385901,-0.00798728944554918,-0.00224964708975993
-0.0308369508678654,0.0317946494187824,-0.00658376860157069,-0.00259742857337472
-0.0357939081977542,0.0505021319983417,-0.00694185409787673,-0.0019616665176917
-0.0350916175776056,0.0672804380996745,-0.00641343965323107,-0.000355145531328563
-0.0175185707917639,0.0823548003654155,-2.12710852146095e-05,0.00144054486679151
0.0227431477275963,0.084915236858952,0.0134225233578701,0.00221810896748366
0.0470536517750055,0.0538742843273084,0.0272344058462831,0.00168338321994492
0.0318488167364186,0.00299009159636664,0.0287594594118885,0.000757908081415025
0.00719405030570935,-0.0526033997826756,0.021594691250647,0.0003363066979562
-0.00819100531408418,-0.11762093092405,0.0181860435510824,0.000963505886382023
-0.0225123190420665,-0.151018589111298,0.0161583564906099,0.00249668695687129
-0.0324152009012433,-0.109930303974205,0.00943391535115511,0.00329358340859403
-0.0273971657916755,-0.0505433293974141,-0.00111495719858407,0.00176151025375127
-0.0125586528873862,-0.0369773800640333,-0.0110489693524972,-0.00152435027097099
-0.00284867502004144,-0.0429441027793324,-0.015261708819017,-0.0045722293378077
-0.00309880066450369,-0.0300398606122601,-0.0133693443434379,-0.00597402984699749
-0.00358937034647486,0.000737461145078194,-0.00983361968450398,-0.00589260424659574
-0.00193742374693253,0.037763667412736,-0.00862484947639763,-0.0051684882937765
-0.00753790806347555,0.0708075764239286,-0.00788361328698891,-0.00395055736921706
-0.0117641226720535,0.0802208401097269,0.000226474214033608,-0.00199624859018678
-0.00368518107093402,0.0499448675123104,0.0176803122883788,0.000805622885564869
-0.00376137828182396,0.00417517333392654,0.0298265002780083,0.00408188809164837
-0.0235667942927532,-0.0201624127811911,0.0268357112078609,0.00615346764144724
-0.0374411797888071,-0.0072721438047903,0.0184489842503802,0.00571215012079695
-0.0136519843308354,0.0356389570943003,0.011676184840476,0.00371610769888025
0.0467587472937556,0.0713855082539329,0.00420035602289895,0.00169166719018743
0.0967263187350637,0.0738090566828955,-0.00401960092738174,0.000147977084555551
0.0955217131238335,0.0606429200095776,-0.0123827199734888,-0.000868100227249861
0.0736732695546042,0.0545905107765421,-0.021809863537186,-0.00135847522061031
0.0710201306725577,0.0615464840681511,-0.027391539498646,-0.00175881070299108
0.0554456775867508,0.0812346442659766,-0.0229371241300116,-0.00251263735966692
-0.000233607932940097,0.0686362880831922,-0.0111696208218885,-0.00326338793090865
-0.0704258099486411,-0.0252358347613763,0.00265432271832359,-0.0032934973987967
-0.102071096178,-0.147882115154763,0.0169261799740714,-0.00213250687455055
-0.071482756515583,-0.18467996685897,0.0260317750883517,-0.00011775040349336
-0.0251348789995086,-0.108740952588289,0.0228227489451782,0.00142725201029664
0.00840128339715657,-0.0152195249275081,0.0116307384915539,0.00152909820850776
0.0271661583482576,0.0456452474239686,0.000694597862062721,0.000299216373306115
0.0200581628244483,0.0973576278096289,-0.00678129820776869,-0.00103981807239109
0.00731516412574161,0.13433364586292,-0.0101859520094636,-0.00097086313974681
0.0122698290126144,0.148590835336342,-0.0106345371333548,0.000591119794926066
0.0258122713516454,0.140476543975788,-0.00684905438403962,0.002236405071589
0.0314677870694118,0.120095283019873,-0.00381399806554034,0.00283017100549455
0.0206942923608041,0.118256478119483,-0.010496247411982,0.00250519247475755
0.00303102481468147,0.113624677352647,-0.018168436921392,0.00153402943115666
-0.00270745259288752,0.017465561542319,-0.0101263605614645,0.000452483207770063
0.00408792387628557,-0.159001191937705,0.00902218224742451,0.000334079972799598
0.00770170675295551,-0.252712924487013,0.0188948224320362,0.00136215512296439
0.00115223467564219,-0.185352577630013,0.0149708459110157,0.00284168588841462
-0.00471556510561754,-0.0561471987740363,0.00841402276752039,0.00357774005642024
-0.0028725296952417,0.0241282355629299,0.0063314801189057,0.00223030417184503
-0.00351160792692102,0.0479060708050192,0.00838924317468438,-0.00081638108931173
-0.0155222220835936,0.0542674057158513,0.00942261032111269,-0.00313501331699753
-0.0300318806658648,0.0381379751113995,0.00758139486506498,-0.00304828889206315
-0.0337664582917242,-0.0120662224664737,0.00510760924084051,-0.00141423462726238
-0.022008786770602,-0.0563461791063721,0.00098289546091759,-4.288818144847e-05
-0.00833782588059998,-0.0573239467775626,-0.00228819538738454,0.000271395818540146
-0.00880377359520802,-0.0336721513305765,-0.00238458600108546,-0.000204447815827255
-0.0149817711371949,-0.0176022479305947,-0.00312927790785331,-0.00103917973114279
-0.0178609139226072,-0.0124540806296945,-0.00415720622254667,-0.00162183045878431
-0.0166233496981151,-0.0101864620216652,-0.00393687709799176,-0.00106997422056517
-0.00938710086131049,-0.0118103715317339,-0.00475688963648688,0.000405904664727847
0.000569804920335759,-0.0236561369133372,-0.00800096232604967,0.00133702754374084
0.00801298776082326,-0.0425183796441681,-0.0112606234663145,0.000746359586634831
0.00680004204887575,-0.0520835021320805,-0.00901314531975905,-0.000642658126546689
0.00159710103549404,-0.0552474348456924,-0.0025956814063088,-0.0012010686871015
0.00414121447238465,-0.0714172211249164,-3.36547222938334e-05,-0.000737000835215978
-0.000270404656574179,-0.0891615344635603,-0.00214435585425684,-0.000907944585338999
-0.0299502154472842,-0.0869920602297556,-0.00257833818429856,-0.0025684509405647
-0.064365559685948,-0.0701674614408213,-6.43290034034634e-05,-0.00398743917695608
-0.0736303521041971,-0.0493656401497787,0.00132773163412587,-0.00282951714067212
-0.057448900956037,-0.0218187070306484,0.000547650572487117,0.00136516362290146
-0.0349168032661086,0.0143356147235075,-0.00156375002921648,0.00710668426129619
-0.013413315008215,0.0332939024557712,-0.00182573058198769,0.0111221400256634
0.00927444948646292,0.0209842757980934,0.00188105707021793,0.0102010295207891
0.0277883834321858,0.00723106608069167,0.00524807580947122,0.00457318494548664
0.0396799542179287,-0.00430151067215941,0.00445652885725294,-0.00244654492865439
0.0464495512001752,-0.0281012658852262,2.48448596565896e-06,-0.00737191172686893
0.0474377043496716,-0.0523107303876432,-0.004865925710195,-0.00842730462848668
0.0440788742401488,-0.0784263707567284,-0.00528893436098675,-0.00641169952659839
0.0393166389101598,-0.114582559108018,0.00146624775591016,-0.00361745493629979
0.0346109752274294,-0.138062571620003,0.0105761581123758,-0.00148778216383148
0.0220097062178518,-0.112425334448925,0.0143947803532245,-0.000286690420854459
-0.00801150139382566,-0.0397744820886593,0.0118802074146867,2.12620541660503e-05
-0.0463792367499447,0.0302664348141318,0.00566992863263692,-0.000114721371289796
-0.0679043827511584,0.073911574558762,-0.00262639481100259,-0.000359611532104349
-0.0572491897681932,0.10364379062348,-0.0100779568453526,-0.000914338589532807
-0.0265676461523243,0.116858223441721,-0.0127836965930719,-0.00136594681969401
-0.00178857002919167,0.115045726231192,-0.00969125469276629,-0.000714701819321699
0.00684492489322361,0.106972797433473,-0.00299553370388063,0.00144467507616035
0.00671674308524796,0.0869978828035636,-0.00138096922860344,0.00419110447821266
0.0115486788616887,0.0508410882120093,-0.011646281868894,0.00576931902943593
0.0392893973947643,0.0173480981142043,-0.0243489105767328,0.00518594773391032
0.0681605059609059,0.0109910967556888,-0.0271174673652057,0.00260980819497746
0.0544427631913002,0.00958795180647889,-0.0193157162444816,-0.00115833592533315
0.0132440040299083,-0.00803764604044655,-0.00703583504798504,-0.00456079289003076
-0.0127465665587077,-0.0150793690285837,0.00433606679951693,-0.00576712205013047
-0.0188035601421187,-0.0037693363019032,0.00909980473813073,-0.00423687864528985
-0.0177339585080403,0.00313732134877654,0.00161746849582429,-0.00126025854291963
-0.00917939813448558,0.00260593224467867,-0.0103513141234557,0.00127009100859173
-0.00491855656823535,0.0143659999551086,-0.0126277397345828,0.00240838415947572
-0.0148640305297196,0.0332332660667132,-0.00668684397582009,0.00258152548845333
-0.0191269999503023,0.0385652524281099,-0.00337477781052301,0.00270139561763033
-0.00463042482573652,0.0340601932321009,-0.00165880295649425,0.0028330279051553
0.0250147264042997,0.0289489617610354,0.00714514256300031,0.00236361030428065
0.0624995329614475,0.0299196709167204,0.0170185651260397,0.00114808982484431
0.0870772219277886,0.0405275681898747,0.0135987611961911,-0.000328935474870794
0.0818847597737769,0.0586809433076512,-0.00376078593742055,-0.00140128325228918
0.057613638591714,0.0753955517569313,-0.0225802222488786,-0.00186821676286472
0.0344606562841815,0.0682051326756204,-0.0326126384571378,-0.00194052640642463
0.0197298999462502,0.033945394281072,-0.031860917285566,-0.00140916109533001
0.00247515715215002,0.00405211956267651,-0.0224536217987887,4.5299957337458e-05
-0.0379414295839111,0.0108729726634797,-0.0125248968767614,0.00172207077176854
-0.0830498068638706,0.0520780508465828,-0.00950755177348232,0.00260530409517045
-0.0862636695341299,0.0941217228354875,-0.00978638903987444,0.00234717830397262
-0.0614991681931531,0.0975416917953567,-0.00823550171704473,0.00114664453717229
-0.0450142836355562,0.0349574126956461,-0.00101651244256472,-0.000258076197114313
-0.0277519358163658,-0.0714812591657877,0.0122620691623472,-0.00125482304200246
-0.0104880385614671,-0.158937179680494,0.0206257517571314,-0.00184541412515037
-0.0172530018060792,-0.180878513842491,0.0172390922718036,-0.00203555750147875
-0.0291086528217116,-0.141716466262914,0.0094401705748097,-0.00108992833807255
-0.00757624810486779,-0.0848654995213327,0.00517380968965106,0.00152184052341849
0.033920466031153,-0.0406266652865996,0.00110173658087734,0.00447711236614372
0.0676464143347944,-0.00492442588749809,-0.00820407894288443,0.00505359228576669
0.0848094441411393,0.0292775022662079,-0.0142043051154753,0.00194873555830274
0.0641136919350378,0.0467218489483516,-0.0069894368066639,-0.00260632959217263
0.0117833296945591,0.0425411475416091,0.00531942070964039,-0.00519784532370355
-0.0228296861819089,0.0341708970623746,0.0088903440887746,-0.00470705166324714
-0.0214507350508604,0.0224408732570783,0.00394021306685865,-0.00220180910001094
-0.00491266660642786,0.00291400724470334,-0.00173509676624706,0.000405946006346543
0.0094853581152626,-0.0139547383580785,-0.00587413786625525,0.00129385411300058
0.0189166979810857,-0.0247457038944589,-0.00776154363803491,0.000355093916189465
0.022119397880118,-0.038760199317152,-0.00659599521029445,-0.000731269481354066
0.0144543774825725,-0.0532237212762493,-0.00300850616736201,-0.00072256552700475
0.000903700293544585,-0.0534562858497842,0.00127937448962294,-0.000198582131020468
-0.00869175402470176,-0.0353832111711286,0.0037441452148895,-0.000354926266838978
-0.0244132060525213,-0.00275706581390761,0.00553020947787629,-0.00100922033822858
-0.0564478421015534,0.0355844954852672,0.00705554484140437,-0.000902568717691809
-0.0789993669689493,0.0583290085151721,0.00878101637276095,7.46108417479612e-05
-0.0719914848376296,0.048794298856002,0.0143124393917208,0.000676016249288493
-0.0529573869991754,0.0190021207901427,0.0228836689558961,0.000517138257526664
-0.03870843142094,-0.00667852194095486,0.0293098902911378,0.000821194606111101
-0.0259729089637977,-0.0273704700174388,0.0313424156450425,0.00216988407905845
-0.00937859893645977,-0.0598580468144408,0.0319404264515477,0.00339100713544484
0.00699518782803206,-0.109787059433963,0.0306221105925075,0.00366665590932128
0.0160834471035719,-0.157547148418382,0.0236318684672999,0.00301258939535841
0.0118146334905239,-0.168903990074661,0.0128577910176801,0.0014166646563428
-0.00518556498374923,-0.130180205628493,-0.000133875434457691,-0.00067846594967631
-0.0235177843306394,-0.0655576168270208,-0.0160750940817459,-0.00241257343469005
-0.0352443403687529,-0.0182208292650272,-0.0300443988001549,-0.00323613979870155
-0.0413195783951328,0.0037188896604569,-0.033460240969189,-0.00319413187027345
-0.0460128497035189,0.03070267185723,-0.0251684152280726,-0.00279447069798303
-0.0505568364653783,0.0665538567685479,-0.0127942359606319,-0.00262451681456347
-0.0369590681027384,0.0858523703183343,-0.00354649582073871,-0.0026028506007433
0.016516414021208,0.0787078900115614,0.00184704703670396,-0.00214143572663734
0.0754227928943305,0.072649440819376,0.00568304031583244,-0.00142109311253654
0.0839284784535089,0.084496774690835,0.0079520625162133,-0.000844451129168363
0.0610785052982331,0.0834526700719183,0.0102348920682114,0.000354352706786658
0.0451770465835957,0.0638197131702294,0.0118319027079946,0.00253321500513949
0.0295522643199372,0.035908304571685,0.0114992019392074,0.00449511284343532
0.01415862640742,-0.0114023242021218,0.0125795678830773,0.005215378214738
0.00246800761889632,-0.0510702206424744,0.0122467010053503,0.00459660169970658
-0.0156334645943415,-0.0556066964218837,0.00920002243591523,0.00306056462283226
-0.020912833148791,-0.0464663644762824,0.00684369441669503,0.0012411478128557
0.00899408968863226,-0.0384317138285697,0.00389249231437918,-0.000421899916424798
0.0480799707972871,-0.0258595330383709,0.00061964993305047,-0.00169812582869064
0.0663516388085515,-0.00498938088693767,-0.0022228592361444,-0.0022232555281346
0.0648906557100535,0.0203242639171953,-0.00622976074685852,-0.00175861386630663
0.0530665603765363,0.0372503206224181,-0.0111253555589038,-0.00071300645871741
0.0418606631402379,0.0360422749781032,-0.0132931732265537,9.05840578486565e-05
0.0303349074656417,0.0257985874619692,-0.0137935736973266,7.17829467748768e-05
-0.00356571039734649,0.0303071687497164,-0.0178089610981322,-0.000429966085481315
-0.0453583866534621,0.0525257647219267,-0.0210321159709912,-0.000327955372280382
-0.0572969075146414,0.0749338249443593,-0.0190708125980623,0.00073324677107863
-0.0587789724979026,0.0977493871071995,-0.0175499994605387,0.0019285185260648
-0.0629722211930439,0.119503330137526,-0.019013713567996,0.00233823297349597
-0.0408693348018608,0.121844266170748,-0.0203013729860696,0.00130951977254866
-0.00716372043899238,0.104589683839424,-0.0193904816141505,-0.000921746157250351
0.00301180972644129,0.0683572362619161,-0.0144343452866295,-0.00303131604201398
0.00534853580715527,-0.0124919088064843,-0.00304300599456803,-0.00413566149908818
0.0261720984456095,-0.128446652796064,0.0124246922554146,-0.0044367844962534
0.0541638889731385,-0.191090034575477,0.0240750330692065,-0.00423587062286993
0.0655079155133459,-0.165208845335528,0.0264575945255806,-0.0033806788858442
0.0522545150743524,-0.109116316939942,0.0211056791653754,-0.00196776413719083
0.0266791472415105,-0.0458680000509413,0.0128350834881002,-0.000718143392809809
0.0109759164309979,0.0114417940927088,0.00659840312591741,0.000138260304823301
0.013521319557629,0.0461858166495072,0.00607001571525764,0.00191972335018823
0.0243820103739334,0.0681616637634052,0.00970443127296069,0.00665238739496353
0.0343835537572124,0.0745690877715176,0.0117660471777583,0.0140536677385758
0.0295469384444837,0.0665887814710362,0.00940690933300838,0.0188240219877329
0.000542407006791853,0.0627987188423707,0.00413243651020974,0.0152631873460284
-0.0270088369939195,0.0693892617487221,-0.0038767912736017,0.00491609592438481
-0.032426531627413,0.0772236894976503,-0.0124497258645024,-0.00570561759436222
-0.0289610007650545,0.0734227687656141,-0.0157693448838825,-0.012438653322132
-0.027214553709887,0.0420251407871878,-0.0114176480923542,-0.0147140311247672
-0.0259148506005228,-0.0125706540494299,-0.00178511534635646,-0.013108549476506
-0.00949997025858242,-0.0579148337314649,0.00596798585760125,-0.00886108873355797
0.0279418362248971,-0.0742395263550305,0.00622968617018178,-0.00398158505067461
0.0466560484584027,-0.0685606168195874,0.00211627536408361,-0.000174472809143225
0.0291077768397611,-0.0502294625089213,-0.000950357397894952,0.00181363627303938
0.00734834550159461,-0.0315328211975237,-0.00110010516717173,0.00220266421747391
-0.00506547145906834,-0.0229394916321228,0.00174701084154905,0.00189495175123345
-0.0240152861863809,-0.0180253734943921,0.0049891152977535,0.00191784685662102
-0.0633760229759109,-0.00905780629549426,0.00318557284793258,0.00259976222542302
-0.106066555877252,-0.00134431237111905,-0.00191612952078364,0.0034326011917949
-0.1111529302309,-0.00133936632446738,-0.00403123586370201,0.00384087243830077
-0.0760560897299271,-0.00837342507669832,-0.00359450841428454,0.00364727487478518
-0.025123947810833,-0.0208789173139851,-0.00213511234415056,0.00314402501258045
0.0239799082490388,-0.0345888476749633,-0.000121524571887393,0.00236135633798058
0.0416124155573091,-0.0467330666227736,-0.000363195243860571,0.000921263759280725
0.0209807269197154,-0.054007548431272,-0.00336546338755609,-0.000636907733006171
-0.0156210770669475,-0.0516914761862318,-0.00486385608233894,-0.00130608092709272
-0.0468909029207596,-0.0443385302353795,-0.00382804328321769,-0.000972131974958469
-0.0542593989883601,-0.0261772472335741,-0.00512189642852212,-5.00406793232924e-05
-0.0357505963903393,0.00457815649398575,-0.00859463213830289,0.000826843378892032
-0.0126228581268632,0.0284896371256076,-0.00936295937015844,0.000890868876313294
0.0097312461251462,0.0450500699997704,-0.00489518307823995,4.52335323555206e-05
0.0414072743791648,0.059516347650634,0.00307243662066211,-0.00109256857678558
0.0680043815703282,0.0645840052538079,0.00820450767095747,-0.0022660874366723
0.0755508079105145,0.0601535892882729,0.00951029957891322,-0.00313918845597992
0.0660344034554087,0.0527896951655627,0.0108850707582921,-0.00281825791339699
0.0452296948761976,0.0536719990105147,0.008878277230069,-0.00115723371213712
0.0223559509774348,0.0521914002024112,0.00120634582794644,0.000874924704369832
0.00304021170626657,0.0213558491113826,-0.00681925760639674,0.00183757903394865
-0.0167379149491312,-0.0383755329638459,-0.0131000505299679,0.000804092078528874
-0.0357376771848084,-0.106221579714488,-0.0147763692617455,-0.00140888718967805
-0.0487484503396525,-0.156846721889766,-0.00860204339141603,-0.00260877131933277
-0.0587119195259385,-0.152873059032788,-0.00290224083118458,-0.0017355175149421
-0.0639732750752735,-0.0893331231835078,-0.00583698591957041,-0.000219206735666931
-0.0663205206478002,-0.0237690014672499,-0.0148487040377658,0.000139724474501932
-0.0711189922744313,0.00605388402683023,-0.0221833701884752,-0.000530942368733715
-0.0715124896115635,0.018213610313965,-0.0184085948743547,-0.00119717991726426
-0.0560543680920034,0.0333863295372095,-0.00648636899160411,-0.0014391892030117
-0.0263255609077049,0.0488249030467501,1.6991317726766e-05,-0.00131304945853929
0.00909760628617776,0.0510593583261109,0.00108861887636391,-0.00111870165070182
0.0459669765276462,0.0296714165875776,0.00348789000547213,-0.00120074139932613
0.0755661553665185,-0.00688620760923365,0.00511294362415494,-0.00163844910195258
0.0948775770459519,-0.0317885648076688,0.00330585468357376,-0.00231706629621384
0.0939814219874533,-0.0324821955794378,-0.000356139966170538,-0.00325870918809416
0.0567743778553573,-0.0231378952366231,-0.00456736742555284,-0.0041861991953497
0.00901363187659629,-0.0178013461227985,-0.0116877301100413,-0.00444039434043899
-0.0125133254136751,-0.012567172681083,-0.0195209481584953,-0.00352467831179397
-0.0127698382310232,-0.0139371408679764,-0.0177978093719315,-0.00142731205586016
-0.0103994940279384,-0.0365491268161556,-0.00656446254181512,0.00121691595685736
-0.000995493817290007,-0.0635503143360355,0.00382593586270314,0.00362605807890914
0.0186135478366344,-0.0610573753525323,0.00893697851389479,0.00518633103779908
0.029360500925657,-0.0209520857254465,0.0105629313278752,0.0055218626271973
0.0221741457907771,0.0241875415418775,0.00844753545481244,0.0044853838889258
0.0121805497626408,0.0293037222385508,0.000634121482872492,0.00234521405882873
0.0124604568847338,-0.0191733631918695,-0.00543384763001266,0.000115407453589644
0.0109754246448288,-0.0855462773054925,-0.00539430274958955,-0.000939948601780666
-0.0124352696205635,-0.114287793776041,-0.00579727240701299,-0.000485679044431151
-0.0374004195434366,-0.100854819928507,-0.00672307691155347,0.000365200716490473
-0.0222957571228206,-0.0759783324909061,-0.00288989085337473,0.000310341925125264
0.0132628754848453,-0.0345847664073797,0.00106574093438804,-0.00108986656860456
0.0232461236459126,0.0236065106304422,-0.00398186723944161,-0.00389408488443433
0.0125030489102806,0.053599702741119,-0.0120322113580899,-0.00752969522260996
-0.00441999724916981,0.0500432373755544,-0.0125052415217703,-0.00953236214939477
-0.0223690007859619,0.0530560085875654,-0.00589590121510267,-0.00755660176028452
-0.0267320101912519,0.0570602588581527,0.0042822208242948,-0.00262174012864792
-0.0187538346093938,0.0499400084160613,0.0113773780677907,0.00256654168727444
-0.00708548524945489,0.0444381947436194,0.00966327483744981,0.00619048028682016
0.00608890567444642,0.0435840889033881,0.00388796569024166,0.00739873012512532
0.0145743144363638,0.0573292728116008,-0.00120305362432906,0.006408493815362
0.0226649748630018,0.0840821641847839,-0.00189793921534096,0.0042836360770306
0.0331336581334173,0.0921145423095915,0.00286271398325917,0.00200278347470763
0.0371504658600378,0.0825728400178845,0.00399090638194713,-0.00018219067107617
0.0391156327715163,0.0820467854746747,-0.0028752768752794,-0.00216616625307708
0.0362245600507119,0.0739115073979501,-0.0102316135222998,-0.00336348727617722
0.0164487711260796,0.0419552488795069,-0.0122167607738077,-0.00294818277042532
0.00030711845702262,0.0225855115360648,-0.0112055175032801,-0.00106089765812526
0.0113861564644673,0.0339765153364315,-0.00683547400282877,0.000399681884735208
0.0329123411361996,0.00608435321101826,0.00743558946198086,7.76362666207206e-05
0.0348416555971874,-0.0979389088529166,0.023063451617736,-0.000714758733397837
0.0115920061925629,-0.164147686871388,0.0227827990517784,-1.60625737990834e-05
-0.0147820724718411,-0.115463929401356,0.0114484828769924,0.00191605252620666
-0.0305822894972169,-0.0297714597064374,0.00340594518687101,0.00357189510358208
-0.0407069722481423,0.0226920933941515,-0.00392410644795223,0.00451413331418156
-0.0387890624836354,0.0357172228251123,-0.0153133791768615,0.00509911437940163
-0.0275412918099167,0.0336780236623277,-0.0223651753866755,0.00540721171999133
-0.0198418325497187,0.0434788959164645,-0.0207012281181301,0.00505782179093941
-0.00538947699932963,0.0766552108869452,-0.0167015831798111,0.00295268344163236
0.0180490976690129,0.118872041695228,-0.0109106693533098,-0.00125677766574678
0.0335114375576833,0.116760089924789,0.0004847930716976,-0.00511019282961676
0.0364417101725614,0.0842224760879966,0.00896320331706323,-0.00609154551324863
0.0308417932631959,0.0881610170533101,0.0093426688483368,-0.00472179193913482
0.0176189607463601,0.124238703786496,0.00877744392382057,-0.00275684009433823
-0.00356619211446467,0.154864666709264,0.012276774060233,-0.00105143169475297
-0.0302422334041383,0.140735570288995,0.0196855045784539,0.000567398634054507
-0.0467879041312412,0.034362718098001,0.0266244486201687,0.00239164191960938
-0.0313125026686966,-0.114835325535417,0.0320088246133429,0.00394619267671414
0.0107212170306778,-0.175099441069848,0.0363453332026669,0.00432499874355456
0.0407617580673935,-0.127149512285119,0.0356226163136718,0.00298458072033784
0.0313826366509495,-0.0643757664045858,0.0270876637038701,0.000465153348723727
-0.00318251475921852,-0.0358964812268952,0.014369597831433,-0.00167213732231888
-0.0304920635933612,-0.0273091404238599,0.0066812627105992,-0.00246556427277037
-0.0339855654154371,-0.028670228289819,0.00752750407698616,-0.00229556139534296
-0.0214134147874425,-0.0450931567271945,0.00879858140915636,-0.00191933959756602
-0.0147053453981455,-0.0707683517871647,0.00490251653182211,-0.00152219520801665
-0.0148343442046496,-0.0878230334825933,-0.00105016509312061,-0.000526871084227722
-0.00466476041178107,-0.081169136056396,-0.00562145264339834,0.00114588281254561
0.00880732534866403,-0.0524076809843388,-0.00837192386259074,0.00262072213466509
0.0150775926244209,-0.0175129967834938,-0.0112408817901763,0.00340650836061785
0.0185306837127822,0.00293097594342366,-0.0138958247468758,0.00359008177043196
0.0177033126920593,-0.00053198161822194,-0.0103523675032262,0.00312680456145202
0.0111320793549702,-0.0121280819431671,-0.00235749297601057,0.00206168176415491
0.000222724477994905,-0.0143865551142871,-0.000376762623028829,0.000944835372947467
-0.0132352660308429,-0.01245095691025,-0.00433569172995361,0.000136879188600145
-0.0154342986122447,-0.0176840642023939,-0.00562984633561015,-0.000317285323861595
0.00704824490609996,-0.0277524202668134,-0.00119870323758322,-0.000285590063579223
0.0343302328048524,-0.0405015436997722,0.00554901599801291,5.47717672159549e-05
0.0312409345109542,-0.0517759975172726,0.0114345013109936,0.000209948735460465
-0.000993889142649924,-0.0427920959956563,0.0138833631056597,-0.000511054996164132
-0.0312426497991552,-0.0126112549171767,0.0136366925847112,-0.00237942539875226
-0.043020297042819,0.0150055330522315,0.0144533674777778,-0.00442748094229618
-0.0486006625429612,0.0281302809283026,0.0130989378275453,-0.00533132006168289
-0.0658045308416948,0.0254440473252551,0.00225769902977091,-0.00477225216036598
-0.0809261131185071,0.0176667490070814,-0.0120013158499252,-0.00307062174224253
-0.0686766998712157,0.0412897524522623,-0.0175202805115215,-0.000523982750754264
-0.044327992289913,0.0987928835093101,-0.0160328981619018,0.00190444066974558
-0.029901633157709,0.1397271780815,-0.00982301080291416,0.00317910300116414
-0.0148534229803351,0.143866084306769,-0.00220998702232665,0.00322543021109107
0.00562301080914653,0.129785572931993,-0.00384043769897732,0.00260405226870239
0.00851756973752023,0.112561472865795,-0.0155407792609801,0.00206222066516946
-0.0154180974646305,0.104705667308195,-0.02925769787412,0.00170760456572682
-0.0365800002574386,0.106286817119317,-0.0358204501375119,0.000843021300773486
-0.027891236909042,0.092900645988368,-0.0281372047557978,-0.000862675114394466
0.00521936994984803,0.0129041200832958,-0.0105892156039477,-0.00265205662716646
0.043535311980905,-0.132463719391161,0.00309230446576946,-0.00394166095901335
0.0679494219137654,-0.254506761441637,0.00874612892578685,-0.00492117904958035
0.0666453660285092,-0.308444183891321,0.0155842546390531,-0.0051737130683142
0.0358282185734962,-0.276097066693407,0.0231115787405715,-0.00350317335196117
-0.0218425129760313,-0.137832808692507,0.0215506109229806,0.000494754316303751
-0.0580198039648586,0.0200269302345738,0.0121188399064164,0.00562055919945433
-0.0214778068918114,0.0950972450155243,-0.000266680228438614,0.00926398500118947
0.038971343136747,0.0978189012161407,-0.0119964723774003,0.009035823611285
0.0543768245779916,0.0860633644456349,-0.0191454688597791,0.00536706496417581
0.0399257995252473,0.0825275563577185,-0.0202248566407362,0.000710826242816596
0.0512819146891385,0.0782335507459402,-0.0174889641295995,-0.0032258317539077
0.0956229371982719,0.0691395173822585,-0.0150128891049817,-0.00629531896043435
0.115979064931439,0.0618470464356294,-0.0117639706785809,-0.00882699987802746
0.0839155735240056,0.0532376551931146,-0.00749523910537794,-0.0101562588114256
0.0233050761210583,0.0347994479398568,-0.00546622194029435,-0.00876352605422279
-0.0329449153490508,0.0029237055277937,-0.00549678576113409,-0.00387968109656155
-0.0584364992646595,-0.0366723177582191,-0.00396484720204795,0.00308483649095134
-0.0729768373557112,-0.0603550093403929,0.00157683301196999,0.0086727010692692
-0.103371880105918,-0.055988637245362,0.00823610693248414,0.0102100319787739
-0.109453218337984,-0.0453170208090596,0.0114202337367333,0.00793222569875339
-0.067129334922043,-0.0503934213222322,0.0139916565619117,0.00373855717114996
-0.0171032182182576,-0.0717693147854366,0.0190674976146963,-0.000140404010469675
0.0159734142103553,-0.0924372966367944,0.0202530604466498,-0.0019808483298488
0.0374749928055309,-0.0964940840055396,0.015637722077082,-0.00178171168461643
0.0507375765768606,-0.0895869589468908,0.0112570777404868,-0.000678826900975898
0.0574685759015846,-0.0844289510898158,0.00853024737510873,0.00094861923998912
0.0610702685416666,-0.0810488023554738,0.0059319891736858,0.00289738390845647
0.063032617109097,-0.0737778795534249,0.00214663004140681,0.00408465777912387
0.0580274214651953,-0.0743983688144482,-0.00280978799448082,0.00367593575962608
0.0469845431055301,-0.0886538160503762,-0.00785912732691454,0.00171124145197064
0.0386478808025528,-0.0864795319676942,-0.0123868399545715,-0.0010483733734763
0.0254605285109145,-0.0467511734952111,-0.0129619076701824,-0.00327862352869789
0.00219890698604825,0.015235270145244,-0.00750584827459727,-0.0040084460448225
-0.0106767181063644,0.0631673433447878,-0.00200374326651003,-0.00362184725017804
-0.0133087431275594,0.0786007819465697,-0.00113746831873684,-0.00316117438685072
-0.0271059264230147,0.0741267767031311,-0.00311912609706611,-0.00263764072239854
-0.0412753029718848,0.0547096023003703,-0.00739171744548967,-0.00152579622590284
-0.039348295384772,0.0260876673686744,-0.0100316768631721,-0.000269570467070986
-0.0332124143459929,0.0147398822289072,-0.00596760271587996,0.000755499362323852
-0.04188333685642,0.0334888156769675,-0.00247009717957867,0.00196748817188753
-0.0632218600307608,0.0587593284364632,-0.00615348786966046,0.00314875097141044
-0.0673341423542928,0.0564208989789657,-0.00841561201029419,0.0033430549439477
-0.0385651072842338,-0.00161671717581952,-9.5575058938327e-05,0.00210226703846367
0.00480521463190967,-0.111740075721637,0.0167278591597576,0.000255501397903605
0.0374337702317706,-0.197047749896961,0.0290902067940779,-0.000991705981953192
0.0398210286206844,-0.180398748869706,0.0233754143350289,-0.00158193003905188
0.0183099686389177,-0.0961536500392386,0.0054457939040306,-0.00205255225603404
-0.0122551220197729,-0.0286638721515799,-0.00767468527011274,-0.00228330712996997
-0.0492083764778686,0.000243407248020855,-0.0126483750283319,-0.00191210943188514
-0.0681231546376969,0.0149069464436121,-0.0156404410786108,-0.00122779441916059
-0.0426662979427018,0.0312606460409105,-0.0188364219130908,-0.000925967797465914
-0.0112028872510512,0.0560749870319464,-0.0199389516036982,-0.00156580657432675
-0.0258879793475624,0.0956716771607181,-0.0179776190084567,-0.00271423798476539
-0.0548135437585342,0.144813556801123,-0.013116417426267,-0.00311201386042643
-0.0490267783230027,0.18864978152923,-0.00361744730973554,-0.00235734700508445
-0.0234766631047992,0.207083666003168,0.00714020399133803,-0.0010094279639861
-0.0105726917755643,0.191539196889218,0.0107083485228748,0.000330852115905959
-0.00831886306762555,0.17021826983707,0.00647516053123405,0.00115505159002079
0.00810549554809637,0.167268667475825,0.00123462626397874,0.000984993899384267
0.0411896311344406,0.158607787150025,-0.00151135802395741,-0.000326775327575067
0.0595763859338209,0.117901738973656,-0.0029767513636287,-0.0022366181582295
0.0466323110266715,0.0674084976796411,-0.00283430238021766,-0.00343490032004266
0.0165212095384591,0.0312798590304371,0.000461997748778278,-0.00294943481824751
-0.0124421230515811,0.00158741051702138,0.00534562890567096,-0.00127015174405083
-0.0163326614156487,-0.0364680266542786,0.0123480152304764,0.000474226597191544
0.00759536641993923,-0.114923347839326,0.0228300264714377,0.00148544762842694
0.0341604764706536,-0.233770197336559,0.0328834638994994,0.00180008582981494
0.0409623663609273,-0.317469317963039,0.0362580735860944,0.00216676590083314
0.0212171764681864,-0.280302236315048,0.0272521953956494,0.00260041908865454
-0.00282396249009881,-0.126588010393382,0.0104212626870149,0.00225365190508992
-0.0072034241966475,0.0302160461308856,0.000218089902876244,0.000852459107087156
0.00803131400026769,0.108606860746263,-0.00122093098919377,-0.000865731921112059
0.0252049873064822,0.128308973904381,-0.00440572671232363,-0.00195458241669153
0.0260301273921781,0.127523597757856,-0.00996157773647288,-0.00212531155552608
0.0156057713380359,0.116466310403009,-0.0111587893262169,-0.00185668009159752
0.00808105179429289,0.0950381831990535,-0.0102774250333586,-0.0016307973297878
0.0041306674762569,0.069251199355694,-0.0133475914574852,-0.00140036297523288
0.00144038021676309,0.0486473348056697,-0.0179832193841808,-0.00111197345030391
0.00160100772311965,0.0312571478717041,-0.0150944617393531,-0.000633713551029042
0.0032189074696042,0.00608774013447162,-0.00378744075198813,0.000389154713008167
0.0050147078316385,-0.0166705003070637,0.00883095559893774,0.00174770784285257
0.00713372641581035,-0.0177932498422427,0.0185855724414393,0.00281932310085386
0.00374881879528047,-0.00283536085413439,0.02019577902699,0.00358631931781813
-0.00609027009067695,0.00931148567373158,0.0115509793781311,0.00411653730812625
-0.0129599590033248,0.00857541266361597,0.00123672885086799,0.00381153535410675
-0.0131144579985641,-0.00103844634467355,0.000124679750601666,0.00232546275569402
-0.008221485220389,-0.0121414584971985,0.00835692120668455,-0.000106719824764241
0.00341932805166746,-0.0255516545151988,0.0141692596611344,-0.00249821667024093
0.0185050215398865,-0.045397859345046,0.00945253506649302,-0.00330258715662994
0.025525476147312,-0.0712874525745496,-0.00164431154655125,-0.00227589026540159
0.0283878711179763,-0.09378096730528,-0.00807792416280925,-0.000574790262865186
0.0321698947579936,-0.0866695229140087,-0.00572754851712677,0.00101456902127582
0.0208046265842295,-0.0471398534192951,-0.00216081551379293,0.00223813937458556
-0.00438786278522628,-0.0198179475616861,-0.00307903553586648,0.00286010368202851
-0.0207875042931106,-0.0215614030520588,-0.00470988880251861,0.00294944970662423
-0.0204621611761032,-0.0281063883370435,-0.00114199389258608,0.00281885843342992
-0.00899789840407639,-0.0331414252553867,0.00592331291346755,0.00244044139892307
0.001193136191434,-0.0378083314885744,0.00893646406551599,0.00158402030547941
-0.00257041631660503,-0.0342098785507182,0.00553662101727358,0.000434267565112373
-0.0112283415564049,-0.0241885287432237,-0.00132891207245684,-0.000575823084343868
-0.0101718219572803,-0.0162975664647752,-0.00979816671632896,-0.0012357743958758
-0.001832580493655,-0.0198131658013066,-0.0156576874125917,-0.0015865693253707
0.00995805988746141,-0.0372235123218038,-0.012863788505418,-0.00164072853461191
0.0156600224269514,-0.0540764683159259,-0.00333974329494723,-0.00121057634682739
0.00444566695384508,-0.0551460017409154,0.00200878280209084,-0.000472739716315752
-0.0121852762523805,-0.0409477650362987,-0.000527512568841173,-0.000100272418418154
-0.0204789236222882,-0.023062749492298,-0.00521106733025036,-0.000431781638980041
-0.021725590542863,-0.0111615960792128,-0.0116962884426078,-0.00124765339023117
-0.0207314542845963,-0.00560244021022202,-0.0183488007945516,-0.00191047886570171
-0.0169837648693019,2.31167904676186e-05,-0.019290079655908,-0.00189399832355431
-0.00960351371427144,0.0156913042961384,-0.0144593025509452,-0.00141301920499594
-0.00274018804613556,0.04016836265776,-0.00541159066656397,-0.00089263798444283
-0.00172869233411212,0.0569224956899662,0.00214964397869143,-0.000328278262049363
-0.00844408812888135,0.0582173337256341,8.26097267053946e-05,0.000410500176656677
-0.0164958727037626,0.0527064981163619,-0.00908554840874915,0.00104607591434944
-0.0200207338664429,0.0471740700084345,-0.0165769939004771,0.00141067146410258
-0.0265835381387188,0.0420480112906755,-0.0160159925295269,0.00168017114989991
-0.048347642804693,0.031485061029587,-0.00742543225786319,0.00191131304644408
-0.0715388548647309,0.00251331908584222,0.00113503291110192,0.00218130833518753
-0.0672289264252135,-0.0309293342477262,0.00551756206407913,0.00216156876589387
-0.038732132196074,-0.03577832625428,0.00736672720321224,0.00108191831645647
-0.0168263741922849,-0.0114771064914136,0.00354753295357864,-0.000894974430468578
-0.013476575837102,0.00880300624888303,-0.00695010785977125,-0.00248524505564427
-0.00226760567670384,-0.0107068363350479,-0.017716179357286,-0.00292606408720051
0.0348570808604263,-0.0628153961935905,-0.0277988978561756,-0.00260528920310487
0.0832721183124154,-0.0970349011760466,-0.037030948704293,-0.00253691593165888
0.124044061135689,-0.0951826212059876,-0.0393967044358525,-0.00322948937594931
0.136814082023431,-0.0840585877523139,-0.0347293863043845,-0.00367784539748788
0.100855466560634,-0.070593803523075,-0.0283507549914539,-0.00277470613486288
0.0285509351827319,-0.0438443574346045,-0.027230140546823,-0.000498939746979435
-0.0428422381943334,0.00143481854518712,-0.0292592546777365,0.00222038734245274
-0.0999923057871706,0.0605656043270541,-0.0239476764737277,0.00386717028722861
-0.136610257987308,0.105831423875263,-0.0109441627351859,0.00400430759238752
-0.121175497978635,0.131658759754125,0.00544620507612766,0.00371507519039443
-0.0426218145670879,0.174064434966279,0.0239304857449624,0.0040942783535158
0.0284253332785211,0.232429718379138,0.0378004855840496,0.00507036080840666
0.0244600626761026,0.255517996854381,0.0376911818467675,0.00556745406540344
-0.0189416955720144,0.22696228816869,0.0252612121135758,0.00502219911594359
-0.0308106587144635,0.169425801019359,0.012076764385947,0.00346787148508766
0.00529377703544768,0.0898214637475954,0.00646603039419595,0.000545276134595072
0.0492035811935681,-0.0020045886346205,0.00586681037069895,-0.00315368907426124
0.0652582464031511,-0.0729849380772101,0.00429253981528826,-0.00552195140992525
0.0580708104403928,-0.135750638035082,0.00546820107266243,-0.00562514701154164
0.047379132498045,-0.220199836641137,0.0128807083802478,-0.00420427382192636
0.0428072372456033,-0.25827092066204,0.0140609932512375,-0.00207216150111801
0.0432421401654609,-0.187033722956538,0.00221662394052748,-0.000220352760702722
0.0447918512372704,-0.0710564662193293,-0.00938120191094727,0.000480712638095222
0.0432876110983813,0.0064585505667234,-0.0124521745478443,0.000186270924305136
0.0341803956657962,0.0364840228702894,-0.00921776443753835,-0.000304298984947807
0.0113493691847391,0.0430581433822489,-0.0020030892167306,-0.000389826058304061
-0.0250892065854494,0.0454428114341949,0.00502462490942635,0.000153656475584268
-0.0484059781866879,0.0484956024825107,0.00822659859074343,0.00119760947796929
-0.0314204590988068,0.0394679533378315,0.0111160078582857,0.00235738605770012
0.00851841397772003,0.0162892466496463,0.0175732726728407,0.00337120807154384
0.0318807833857311,0.00213759275948627,0.0227625162954262,0.00415665760975921
0.0273054307433844,0.00808427024702772,0.0239051123238815,0.0045594171841996
0.0156296348296969,0.0194115493936159,0.0233772616726041,0.00459713083801449
0.0145268144998202,0.026435143196928,0.022560963104113,0.00446737991104484
0.0213339301208619,0.0337774020994808,0.0233787501960055,0.0040662409437857
0.0277136090185971,0.0424641328656253,0.0226323007380783,0.00327616815244192
0.0309489678636836,0.0473863168449987,0.0162238462869014,0.00196209927988206
0.0289600503596707,0.045974415376835,0.00870405834185982,-6.83829855573125e-05
0.0212914036463957,0.0377248176459008,0.00321534457675922,-0.00248292605062662
0.0168213479457154,0.0237446226588621,-0.00145595626092806,-0.00467068715393397
0.022580830888477,0.00711367895859469,-0.00130119282104295,-0.00588899068107587
0.0274361149119305,-0.00778717629086477,0.00406944108117862,-0.00550424170350702
0.017835462537521,-0.018988912359225,0.00805899510774842,-0.0040201175351837
-0.00277681577079134,-0.0277183805930469,0.00938285107102157,-0.00251869049597073
-0.0181653843232164,-0.0353821198166343,0.0103198545682159,-0.0016417204692813
-0.0162851256237857,-0.0492286471625745,0.0120749660891581,-0.00164190299973638
-0.00238170400196833,-0.0789318865493604,0.0134609437185321,-0.00219555532241167
0.00891247755991279,-0.108167401935674,0.0111662549536023,-0.00242179959590975
0.00345021690860963,-0.103634146910715,0.00421350400335613,-0.00143030036061961
-0.0144988726906429,-0.0660572095549842,-0.0048576763128801,0.000761793368020382
-0.0248665580093454,-0.0271218935082644,-0.0130164152003471,0.0028869327487889
-0.0225442549646667,-0.00300311985908648,-0.0171067315924163,0.00369722397059826
-0.0132729958699975,0.0144892842808711,-0.0164887263799123,0.00311373542755787
-0.000189615346005843,0.0305571631662832,-0.0143708499179508,0.00193050606253175
0.0103300976938657,0.0390409112738767,-0.0117080881618282,0.000811596249175132
0.0129708850522587,0.0378748696700177,-0.00890271715409451,-2.14539448231948e-06
0.00956479344908157,0.0329404853080978,-0.00797477160169682,-0.000477987400649528
-0.0025935261094112,0.0288134222848492,-0.00944062160301143,-0.000949122476354993
-0.0226537313830355,0.0297318616279863,-0.0120445979906802,-0.00175035468980379
-0.0333076913624449,0.0314915734773814,-0.0128119217691635,-0.00302041921643501
-0.0263694074411687,0.0207513590913452,-0.0072651691659644,-0.00445915202052665
-0.0156305427337885,0.00115179569574267,0.00176005248014522,-0.0051074349810709
-0.0199951628567875,-0.00202723145534143,0.00131082294448012,-0.00473425239872024
-0.0428343553279287,0.024963088413579,-0.0118804293259149,-0.00401109097484241
-0.063968244564993,0.0563700723302596,-0.0251885200367536,-0.00307425112503776
-0.0646378161947787,0.0616666032434589,-0.0270216094789988,-0.0016418798275331
-0.0447725305899073,0.0489906086752925,-0.0194080201976479,0.000369854205849298
-0.0166574757973555,0.0441254440102319,-0.0135202241707371,0.00264044648887831
0.00690864171308769,0.0531411405671992,-0.0119198725559703,0.00436207079841791
0.020155744346168,0.0644499239597796,-0.00665703408122426,0.00485473479486031
0.0370944210722634,0.0660199166217444,0.00431454976423915,0.0043080869358055
0.0723518092897222,0.0551872807539827,0.0127926058704627,0.00329641959968903
0.0941568370908846,0.0391527686355445,0.0127529974247106,0.00200561686698591
0.0861772624395946,0.0166390257367,0.0063170692169112,0.000516146883546001
0.0742380859499432,-0.014205645668778,0.000134935561558148,-0.00130626074621066
0.0567705047365598,-0.0262310377780081,-0.00139484677748829,-0.00332235882055599
0.0199177050584663,0.00175014667869116,-0.00136281604762418,-0.00448844844454072
-0.0408857266543822,0.044436509541545,-0.00405383755521377,-0.00423245005383086
-0.109079032643251,0.0622808254195825,-0.0094338571119656,-0.00306426761996759
-0.136281963096791,0.0310752349255924,-0.0134211709757803,-0.00160812588262807
-0.109102281050161,-0.0397937005227412,-0.0107872519268031,-0.000460732570802764
-0.0590792703998505,-0.112115497927205,-0.00288435177905834,0.000164087036855211
0.00417862813448217,-0.169978573105024,0.00589001120748819,0.000843836291629838
0.0713173831112939,-0.18645869075155,0.0131906729254037,0.00168808894704654
0.0972851794427708,-0.116333582248581,0.0133883624429166,0.00208852169389013
0.0713875388202803,-0.00573635753661156,0.00626337864506245,0.001687331089045
0.0356526637807593,0.063879637353114,0.000723317428177536,0.000801137439716373
-0.00277560461489814,0.103584322638406,-0.000511114461984813,7.94388044292221e-05
-0.0520748499887231,0.141800556131739,0.000379824971043123,-0.000370519126635425
-0.0634138103382767,0.143855387618978,0.00499196340518181,-0.000609542712263817
-0.0149374554434746,0.107225148099919,0.0135280224130622,-0.000287736401958621
0.0352021818535414,0.0840017847925218,0.0190189492601697,0.000665699774135975
0.047520523405434,0.0852519953808408,0.0157820498450401,0.00150392367788433
0.0267778027140601,0.0898572168988117,0.00704486888008242,0.00164455414460999
-0.0170037049156366,0.0805414836593647,-0.0035353689484727,0.00148158847037865
-0.0627143848465918,0.0415944741728183,-0.0140504439257652,0.00150346614625234
-0.0871369222695927,-0.0142974669856598,-0.0203255712100025,0.00172187418586047
-0.0865107714862782,-0.0394077419067612,-0.0229079987578431,0.0018735860857274
-0.0737036030447121,-0.00315718977179862,-0.0255232509485203,0.00156141603307257
-0.0591974596753923,0.0661597520569256,-0.0252010088636613,0.00041921779774134
-0.0292874089138141,0.089143062712272,-0.0184223460962368,-0.00150083008829376
0.0340522925399823,-0.00384609109774545,-0.00763921755471342,-0.00333259570322341
0.101144982703026,-0.175102532180368,-0.000794213524353028,-0.00376510886455469
0.121716112042201,-0.276927478876245,-0.000515562710506196,-0.00259103830358887
0.0879091462814603,-0.247868828775779,0.00337407935999648,-0.00105515479955919
0.0278269131009931,-0.180353445282267,0.0160074170105149,0.000284012901620025
-0.0214031813947038,-0.12917105709592,0.0277680225600799,0.00202768687239336
-0.0393267905720624,-0.0884157433670305,0.0297771318919298,0.0039451133095685
-0.0364471254942953,-0.0521008795497124,0.0261644543257382,0.00468375194999102
-0.0308856220707944,0.000260985265944341,0.022362349840475,0.00365818577072736
-0.0266524454166579,0.0534457692599769,0.0142104382402588,0.00148619065729755
-0.0227433235600526,0.072113885328562,-0.0012936137146526,-0.000999907296914182
-0.0164783831001223,0.0600806245774554,-0.0149437659546227,-0.00305507239729281
-0.00335298484482802,0.0467024671197889,-0.0167317670183983,-0.00428525247341457
0.00727414396168777,0.055559143778353,-0.0106267128960932,-0.00446223153565717
0.00729100100090016,0.0851626429851712,-0.00210475067195396,-0.00336444376635377
0.00227477410348675,0.104480753486857,0.00923663157739432,-0.00120375290838493
-0.0018456215556664,0.0743062136452041,0.0205920667069264,0.00118278841552462
0.00190972612700763,-0.015965542355742,0.0271565729256202,0.00267890635911718
0.0171395632356523,-0.128139561056143,0.0260688320625668,0.0028854794516637
0.0275364383589362,-0.197864019725416,0.0180962039642169,0.00228764692775311
0.00135887538496007,-0.193332031965938,0.00876867983576851,0.00169590910403982
-0.0486342129850201,-0.139852848153309,0.00303654136300432,0.00172925573227197
-0.070196055500711,-0.0716968961879558,-0.0013444076740868,0.00217756148166306
-0.0608653064720739,-0.0117160293455715,-0.00626637944124989,0.00213658158936145
-0.0490534494588847,0.0106905607520187,-0.0102843967961976,0.000976810298782803
-0.0439057726632998,-0.00121448817624472,-0.0163212093662844,-0.000964061036520239
-0.0466456738341938,-0.0147982479206431,-0.0267885632191952,-0.00277249801789382
-0.0506528271933301,-0.0199230904564319,-0.0340820243202585,-0.00351241720826405
-0.0405504131509602,-0.013125573177582,-0.0298452556723825,-0.00268266395065399
-0.00559793878946585,0.0071886439375292,-0.0189507333133467,-0.000802433413290736
0.0526899837100861,-0.00190812346320434,-0.00802307522270448,0.000922282192829539
0.125430791377711,-0.0793621897901304,0.00824939368062688,0.00124030174246829
0.172561322480092,-0.159678932502196,0.0282365410408515,-0.000425221655475926
0.138157221355356,-0.148512033792208,0.0343664347515296,-0.00295133818668252
0.0452927247654612,-0.0712340465178066,0.0252429191189266,-0.00392462117652141
-0.024472994211777,-0.0282209563993047,0.0166569981367955,-0.00218661540921884
-0.0421209169436144,-0.058234439365307,0.0124022859493399,0.000838865287112894
-0.0304011433731252,-0.11247535230674,0.00813869238349941,0.00312789084206761
-0.00894051561761576,-0.119212569417229,0.00438521426165138,0.00357410382799806
0.00918812052899131,-0.0512350319257836,0.0071972613532329,0.00222811210494761
0.0148377669614595,0.0455424377447324,0.0198421909468758,0.00084274803029749
0.0136255414377202,0.0978438958927213,0.0326074435001262,0.00128785232560575
0.0216837586122206,0.0830634680857258,0.0342803890248223,0.00326888505447761
0.0369105810463698,0.0340428021243386,0.0254701765513425,0.00474674921471655
0.0368852376456429,-0.00617154708554232,0.0137189767057516,0.00393127786874875
0.0193470222301733,-0.0171593530824229,0.00408775831324031,0.00103482089252385
-0.00184291226159515,-0.0152168795213074,-0.00291224490317456,-0.00202825820545246
-0.0167763516480498,-0.0197695654212673,-0.00686399635978213,-0.00379659077746832
-0.0245014814645043,-0.0218586412040991,-0.00782101889154836,-0.00409878976144134
-0.0303611964394961,-0.0188680078382916,-0.00718302543345272,-0.00327184184122868
-0.0252675317906772,-0.0189470994606651,-0.00608157991240357,-0.0019159877479684
-0.00728859269635393,-0.0189784525847971,-0.00393832242661138,-0.000779224518340629
0.0075063615025869,-0.0180435337626176,0.000528638649994615,-0.000100420851795209
0.0146546236896011,-0.00815357059651297,0.00279125091141935,0.000377732095741687
0.0144191574540045,0.0424782913172075,-0.000983128104520911,0.000725857365317883
0.00782767095752849,0.134147801042464,-0.00704482563987485,0.000599806032336944
0.00451050008040537,0.202563627157391,-0.0110341002827077,-0.000424333481514109
0.00827281311791908,0.213747609847089,-0.00986864510331025,-0.0021379916484153
0.0134097245170621,0.194885883181244,-0.00497794396552215,-0.00352507403963526
0.0164818459260429,0.172983051056969,-0.00254761263692965,-0.00351024418971127
0.0211821771441567,0.159476798513785,-0.0031864368085969,-0.0020011834428446
0.0336892660132884,0.12084031521632,0.000360705823679038,-0.000109319020564123
0.054638815606744,-0.0125904712030661,0.0150230286599807,0.00121562559025248
0.0754889803557505,-0.235519610029665,0.0393706178190796,0.00221235986484462
0.0946542435322679,-0.409238396557086,0.0554680555401542,0.00374786926062498
0.10099845904449,-0.381907692747999,0.0476230689170725,0.00563797782248407
0.0647890951142231,-0.167565338648724,0.0260332730080053,0.00630991596475349
0.000432975808037986,0.0612366574051533,0.00863056868903216,0.00510669118163176
-0.0538752596507523,0.178037825941011,0.00126571875594812,0.00287674339257713
-0.108335280597314,0.204576477137479,-0.00343429051171708,0.000461140948757545
-0.156088948847795,0.188890380902118,-0.00797944536298593,-0.00152039974944405
-0.147127706855748,0.143565580205245,-0.00673945962126604,-0.00266570640645434
-0.0834789946719162,0.0935297733857056,-0.00779796644733778,-0.00329179744557158
-0.00484410020375714,0.041926794296173,-0.0138238522025765,-0.00406242950695758
0.0645935218918561,-0.0229205591354477,-0.0129675314607703,-0.00485218644217574
0.0960391156101313,-0.0627045280102253,-0.00867736353258201,-0.00459139200069816
0.0812230200837623,-0.051803765983817,-0.0102679633593214,-0.00259057416606936
0.0557998332993993,-0.0180729607791642,-0.012310922433151,4.21131226288965e-07
0.0324034405052936,0.0213799351920865,-0.00842733290064611,0.00119461562593601
-0.00321310335907794,0.0587718307583245,-0.00178793492310639,0.000621743382918114
-0.0355720876531547,0.0706584174600992,-0.000345588751819323,-0.000695585647337481
-0.0432063318522881,0.0476231382452676,-0.00687822327071506,-0.00195811251957158
-0.0361630028286111,0.00781046437671203,-0.0145750305934011,-0.00281097551900462
-0.0318569158868729,-0.0206821309845913,-0.0184149706106628,-0.00278858926910246
-0.0287504708100276,-0.0253499157161197,-0.0204639603549511,-0.00169832465815182
-0.0263172891671435,-0.0192539501801084,-0.0195613646495064,-0.000147405685321213
-0.0253209281499258,-0.0170740824653794,-0.0144944603766205,0.00122986656790562
-0.0172547303460507,-0.0232894643719599,-0.0104014694531947,0.00195990992605804
-0.011053250837752,-0.0372317109309133,-0.00708734290503321,0.00167648310210654
-0.0145069032835936,-0.0591317299287164,0.00324610816588803,0.00138195805579111
-0.00487560270140917,-0.0813902417837058,0.0203740434962137,0.00264836017711204
0.0225214606667424,-0.0795071043023337,0.0282398871850345,0.00500604402212636
0.0397730020300045,-0.052193457250559,0.0162935701866521,0.00654583041077595
0.043065429846943,-0.0277903825850783,-0.00297283581011588,0.00598651253993779
0.0527758084819336,-0.022953047024086,-0.0145464266838413,0.00350953031821622
0.0582517505793455,-0.0245780072160389,-0.0168228198877257,0.000607810010412083
0.0326463784993302,0.000969668220677965,-0.0149731355739005,-0.00144777137936032
-0.0174239920303759,0.0504910095567433,-0.0137799065836688,-0.00241247203937021
-0.0648918077295297,0.0845096548164429,-0.0147457789927726,-0.00291861375392869
-0.0833704619545972,0.0890139115119438,-0.0161858342855352,-0.0041014464488783
-0.0650696683859237,0.0710582234602356,-0.0145084358742073,-0.00627960185700456
-0.0291348461329187,0.0426937587771651,-0.0104310356827166,-0.00839124203175708
0.001600626821851,0.0229448250375296,-0.00870601841530018,-0.00876446755747096
0.0133004684474312,0.0162727219456832,-0.0110199152222409,-0.00665067215814157
0.0142517196749006,0.00120395311552871,-0.0138823457757671,-0.00312262436420681
0.0223054206375661,-0.0379158792777003,-0.0106765657741309,0.000464795214495779
0.035410638893085,-0.100415157122222,0.00138327523187033,0.00393954937082515
0.0378180773933737,-0.162246708216348,0.0115259971725862,0.00749893471067153
0.0268990907380875,-0.156321973061077,0.00863627990405426,0.0100949159157829
0.0172655558077647,-0.0611073201612417,-9.21880324580571e-05,0.00982844257778514
0.0119398667715178,0.0495634645498674,-0.00343708224171344,0.00664988922097055
0.00751502686548013,0.118520738522412,-0.00110158354488319,0.00275055631442406
0.00959395574982145,0.145425472085905,0.00010108890282721,-6.23353357321402e-05
0.0141041335579589,0.139544074021198,-0.00379844735790924,-0.00165972911410604
0.0129239377533434,0.111578676469189,-0.01022407914595,-0.00292795005928546
0.0194049769498949,0.0804222840935047,-0.0155199114377106,-0.00446334335213904
0.0314114736008644,0.0868992893034138,-0.019627073589207,-0.00537193203893174
0.0168380281327601,0.152379664300983,-0.0294127728059398,-0.00403816761601618
-0.0223956735666409,0.224114707943219,-0.0437967674910971,-0.00116222330607334
-0.0614592600127309,0.234389569260695,-0.0457935115892437,0.000472648308298062
-0.0930152705812239,0.169765868414253,-0.0322716904495772,-0.000196244959830196
-0.0942474956879906,0.075197179498147,-0.0194644485898938,-0.00178483451876755
-0.0506875300787459,-0.00471177852562976,-0.0131735369743665,-0.00244936234779763
-0.000911835027923788,-0.033928643604081,-0.00961987325720972,-0.00186285832307598
0.0224295481130482,0.041002518932597,-0.00716790549758201,-0.00126737112238829
0.0230836282436466,0.128581986867145,0.00444233581585535,-0.00124566527550203
0.0206447072019332,0.034797624271358,0.0291483659784055,-0.000628339350037507
0.0259037743949773,-0.201386593534219,0.0504740409728618,0.00140264252984966
0.0232640610926542,-0.343959243435198,0.0534122221906309,0.00352699415322618
0.00691285549950613,-0.304222957311377,0.0393330840861375,0.00434815968110664
-0.00787383296812684,-0.182454782398473,0.0210427872139548,0.00403641396518033
-0.0173287819673073,-0.0665599318950338,0.00576291902506879,0.00279079557742338
-0.0223153888541722,0.0245054908859117,-0.00590907460920024,0.000468373984654607
-0.00649840977988123,0.0956475628746721,-0.0133762867335558,-0.00207870254320445
0.0298827382883575,0.136837807722058,-0.0200491013599696,-0.00392972415616104
0.0532078103791738,0.139512964856988,-0.026814236484337,-0.00465739654730225
0.0495174670979932,0.122130607759901,-0.0288861081361817,-0.0037873146344791
0.0438096950958719,0.0992254711515162,-0.0265191777906591,-0.00201989151121969
0.0607025446883816,0.0699605217389005,-0.0212476476232165,-0.00127315620333478
0.0658979984388773,0.0351301766460322,-0.0122560471930729,-0.0027101075955962
-0.00192574029854298,-0.000846075264690974,-0.00405570344401586,-0.005018765881047
-0.107147604744824,-0.0492816072728544,0.00194567516937326,-0.00529437383655519
-0.140152377625424,-0.106263426779481,0.0080270763904342,-0.00134606587088109
-0.0843767093832646,-0.133388918955735,0.011199327081204,0.0067825675010579
-0.0356560082665721,-0.116671475268166,0.00995574689804402,0.0146753253217447
-0.0316221675861198,-0.0834999218841793,0.00815935493446478,0.0155474426407054
-0.0265244863243206,-0.0583420602920658,0.00854340935771955,0.00796202710000776
0.000168065119993184,-0.0417274423950169,0.0115264930719907,-0.0020896649540998
0.0405375185506447,-0.0221575864366511,0.0175444643862925,-0.00812859712223635
0.0774140409474304,-0.00426322515667743,0.0245045032305053,-0.00863612953801415
0.0894444081649693,-0.00199810518962941,0.0277175628741405,-0.00607498114482708
0.0749832485363096,-0.00835517251890228,0.0261020219408025,-0.00308206076423037
0.0540813813586481,-0.0175431311985186,0.0228139897383867,-0.000318962431462652
0.0457372969714734,-0.0308327184706914,0.0198519396242632,0.00226093797394768
0.0312739814437284,-0.0357370090447643,0.0163033280356903,0.00460717080173933
-0.0219663803804134,-0.0176906632326696,0.00929784673470139,0.00650425039976853
-0.0769930531067436,0.010986313870589,0.00072818670943866,0.00681468273077395
-0.0778449429741443,0.0087586662870198,-0.00157816073674146,0.00462825302089871
-0.0475736179451638,-0.0333487613814687,0.00208391995799062,0.000748354216103976
-0.0269627902395586,-0.0624820001188882,0.00423180618444497,-0.00293452122429006
-0.0106704382191473,-0.0376891929516629,0.00299364098681317,-0.00479415164934372
0.00774100955904655,0.0136746402002311,-0.00111823281081802,-0.00459947600620207
0.0136207835755648,0.0354666665378064,-0.00554817608617257,-0.00316194850337104
0.0158962298130464,0.000219216875689821,-0.0040934297507514,-0.00121668410044965
0.0268333109577154,-0.0660803896644813,0.00493429449304209,0.000551097497308122
0.0229116010239781,-0.10921713777694,0.0165087288458957,0.00199617523250061
-0.00709782144538576,-0.100736960145955,0.0227955927236169,0.00359222426225813
-0.0392119035862934,-0.050079499588299,0.0197981046230361,0.00526003174775922
-0.0470454775174197,0.00150630018991384,0.0102562918114178,0.00626607587788345
-0.0308893906563319,0.0216851667964059,-0.000357259356101654,0.0060061547120256
-0.00560595348107629,0.0330872406778946,-0.00902613118608023,0.00426145846000117
0.0210439343305722,0.0528594589769991,-0.0138977089516052,0.00142490102294888
0.0326089441316629,0.0579109784150735,-0.0128725588916749,-0.00157142782110528
0.0185097086071351,0.0540719437969681,-0.00993781362837586,-0.00389276852410231
-0.00206568675453635,0.0649375663268214,-0.0100876249324851,-0.00503969991365126
-0.00758122480589362,0.0617660565751242,-0.0082240551210777,-0.00478055563861548
-0.00952987500428466,0.042268007386882,0.000359226156498544,-0.00297833762211656
-0.0329415773720997,0.078066379944266,0.009396759134901,0.000100161984190795
-0.0696732964604033,0.161590362859073,0.0143404186115828,0.00342551430943652
-0.089534082317945,0.205692081463671,0.0133386163792933,0.00531174894016491
-0.0889965837086003,0.193043106919588,0.00336261948350363,0.00474935893023251
-0.0868743678699563,0.145909531982865,-0.00950331665806957,0.00260682866534444
-0.0787291873489911,0.0630385578040514,-0.017734318391532,0.000201071500359337
-0.0490185871888593,-0.0275992776946549,-0.0206714285131511,-0.00182978387405064
-0.00254647108763388,-0.093303070687782,-0.0169999887232733,-0.00314493687868311
0.0521161693657907,-0.170676983106839,-0.00468889482354521,-0.00355425394128395
0.102260543233146,-0.251254305368037,0.00937565609796997,-0.00320200641216572
0.115166480018914,-0.237932579104537,0.0117710166688201,-0.00260709014010667
0.080128041230148,-0.152483924403242,0.00511310928931983,-0.00198781443783142
0.0317536292610156,-0.0929496182878456,0.000969265089812295,-0.00112877544944991
0.00344486863060472,-0.0446582354131781,0.000228275035819372,-0.000212400032587977
-0.00551898016300792,0.021561582421336,0.00233618180286855,0.000462486708900706
-0.0139710716991008,0.0703396047725645,0.00668401974583249,0.0012047925015098
-0.0249656632840068,0.0776934866856119,0.00609860241518765,0.00221949764344818
-0.0334948449394569,0.0618692952376556,-0.00127224083193032,0.00292986960910838
-0.0327857243344887,0.0489854675896437,-0.00639795803902404,0.00262194346964781
-0.0102665281433563,0.0410739887022055,-0.00722070714296373,0.001241818193618
0.0230819637218134,0.028059493990081,-0.0075483674525349,-0.000640647674384127
0.0460264982640058,0.0055794447069257,-0.00741921234389575,-0.00248191158454252
0.0551071364091847,-0.0202185644032244,-0.00543170110293565,-0.00394028434556581
0.0537796535216939,-0.039131256950313,-0.000464109078741675,-0.00483223526957669
0.0422938671671386,-0.0489169694121995,0.00440803352035145,-0.00507497543488084
0.00953516860739265,-0.0459596883250637,0.00598568102224071,-0.00434181444389426
-0.0343349398456295,-0.0277941690884498,0.00361987065865958,-0.00251510319618519
-0.0325952554666501,-0.00982989043661311,-0.000319216779332453,-0.00027807325683347
0.0255546248802213,-0.00309170644581332,-0.00272117158039399,0.00101097635194477
0.0692697302162181,0.00544458811319683,-0.0049405142911152,0.000770908694683952
0.0588111900629778,0.0250493504890673,-0.00781978695947321,0.000217585931727735
0.0325063570870294,0.0433452785822201,-0.0109834423864526,0.000766714250974667
0.035724867536831,0.0444018857469413,-0.0149147258898523,0.00216074204134453
0.0671372521974037,0.0280818064191824,-0.0175068246444978,0.00280536216958856
0.0828090377559087,-0.00993777671180393,-0.0169587034394286,0.00178459714040334
0.0454712627428604,-0.0545215454686324,-0.0169624918342966,-0.000278021881082835
-0.0171589885551886,-0.0466416727661172,-0.0165904907665515,-0.00211402666216185
-0.0496688229427505,0.00296984495376456,-0.00909030558166552,-0.00274463486883494
-0.0454237269786115,0.0119333009002908,0.00270418426780812,-0.00165327763914634
-0.0308309345344207,-0.0483333348855612,0.0127200621343262,0.00110676502015007
-0.0107112907759529,-0.140674719064286,0.016974596640521,0.00414784190704795
0.0211670804740624,-0.195018583542331,0.0138118066618426,0.00508890332769425
0.0510625454705161,-0.155030839133245,0.0126843614675304,0.00275687217010466
0.0544022153080677,-0.0361860347909686,0.0171052466941153,-0.00156102235138038
0.0335936798991138,0.087761417286787,0.0154372132194879,-0.00521121919265784
0.0199700813005581,0.146830051039115,0.00191958834341761,-0.00654463634757417
0.0172375959971285,0.11951760634251,-0.0150209622864688,-0.00586600120475682
0.00581208674215641,0.0545891179730425,-0.0244760319367837,-0.00408254187007933
-0.0127899543663133,0.0307616571264892,-0.0268096111584538,-0.00174918084982909
-0.0280985121726668,0.0597400290190512,-0.024118471421768,0.000539995475523605
-0.0289022728223717,0.0712837522528732,-0.0118959558387792,0.00226234338696816
-0.00312312356896435,0.0242443170034623,0.00513927165556331,0.00367002706943805
0.0313329112731147,-0.0224958596685123,0.0153543125474092,0.00498766443122352
0.0385375919630435,-0.00760365781311599,0.0163647982230816,0.00539107570319872
0.0199920702156501,0.039532249766459,0.0127960880827833,0.00427914475111935
0.00130014303499979,0.0625633263898966,0.00932547698461762,0.00255801462210115
-0.0143564305022464,0.0557556684964554,0.00978568966530955,0.00121454597178761
-0.0352726733065154,0.0476872886938134,0.013858965009708,0.000170187542080764
-0.0561377927126115,0.0486894587929084,0.0215263669980442,-0.000850324426753248
-0.0617074727737268,0.0234437005934183,0.0332111608744834,-0.00168187527344429
-0.0502223166196123,-0.0481776575421198,0.0383349375284077,-0.00199214238580511
-0.0371336962697904,-0.102054247896139,0.0300733079552525,-0.00190413962259
-0.0348540908671979,-0.0800086746517396,0.0189764914986675,-0.00180294169801628
-0.0473631320546574,-0.012793745255556,0.0103780905655199,-0.00153251130302639
-0.06721595551821,0.0466371554749407,0.00237622307752877,-0.00107813607892775
-0.0787308733866751,0.0812599480913506,-0.000904589207224114,-0.000754408093270675
-0.0712942236905473,0.0988161167213101,0.000675102798696064,-0.000310218423673599
-0.0387106030972257,0.101464571988105,0.0017900036713601,0.000276387653117223
0.00616176080324365,0.0919609750392573,0.000187420547541745,0.000528322483714816
0.0414026447090459,0.0511807039344867,-0.000327400410215505,0.000492681724006658
0.0528648704593056,-0.0372582428317932,0.00558367083039049,0.000706402480649009
0.0261541577869798,-0.120747572320582,0.0151689592778133,0.00154291928862068
-0.0190430508784344,-0.146559515460528,0.0174966788781958,0.00306612441625011
-0.0445501481415415,-0.0965861826852311,0.00701077613359735,0.00468914775667531
-0.0418609797974835,0.00801637802229357,-0.00654183617097894,0.00498596427499553
-0.0112753237010236,0.0837812012728022,-0.00629386888587118,0.00296458530399295
0.0475247979403445,0.0531964363191961,0.0145813658910931,-0.000398821431763336
0.100109889883951,-0.054310970101358,0.0387938009340072,-0.0027691011201387
0.0941803203288164,-0.122762824015843,0.0387786286281303,-0.00300916299876865
0.0282999682300972,-0.10128474323067,0.0166374605602967,-0.0018365161024145
-0.0507548783247439,-0.0418220970884675,0.00160646833029391,-0.000373892646883464
-0.1033762828463,0.00851271885455224,0.0054819191553274,0.000398704167757762
-0.117408591828537,0.0458374922311517,0.0147372146859295,8.43882332588681e-05
-0.102696292365293,0.0670541018296078,0.0169506478127101,-0.00106324415139708
-0.0740656180609393,0.0639789294319447,0.0117694580799444,-0.00282182752014385
-0.0339607234681549,0.0472394442285655,0.00305139977954907,-0.00445273534414928
0.0126629921141029,0.0382359350963422,-0.00638769414521544,-0.00501892121085926
0.0397636760118119,0.035937325647124,-0.0128801852338205,-0.00465952952284177
0.0276015505848333,0.0210785538004689,-0.0133289326301747,-0.0035498965900033
-0.000301766159748496,-0.00468774546300312,-0.00942462127266043,-0.00135077371844892
-0.00491797113007761,-0.0178524822041374,-0.00915983031986053,0.00157880749433888
0.0164756836925977,-0.00963614026986174,-0.0185508355988318,0.00404406565649807
0.0277868610345155,-0.00300027113157385,-0.0300886902400127,0.00492397571226322
-0.00455215940659349,-0.019720343316106,-0.0294367404681523,0.00426902690256289
-0.0573102551885379,-0.0530334258482036,-0.015586306876237,0.00329940846228879
-0.0766713231582279,-0.0887064392949664,-0.00475537133891713,0.00303127955208158
-0.0503325631739346,-0.118359472746706,-0.00332636937440138,0.00296153377020381
0.0186605696614394,-0.138273835073799,-0.00102854868626211,0.00193080770071096
0.101075062153654,-0.140562516631981,0.00295550592751294,-0.000306421478105117
0.127678843789255,-0.114440288828565,0.00476716544749798,-0.00342181295254892
0.0999288907077235,-0.0670416290712772,0.00884768732739083,-0.00645291411300942
0.0718090034879471,-0.0129578708489804,0.0146130983950191,-0.00779790150324114
0.0605468462624065,0.0339542403900296,0.0132253608407433,-0.00666157676881369
0.057376251211179,0.0475131524975055,0.00380127320144584,-0.00392141296832272
0.0403174157950714,0.0245064943814236,-0.00377804933452494,-0.00103912917034186
0.00451739844900617,-0.000154727389438711,-0.00183071712376319,0.00160944705823084
-0.0252490468653745,7.16045729307955e-05,0.00599681333162848,0.00417425180733083
-0.0457681122154466,0.0210798214684391,0.00697999967840154,0.00590968333349685
-0.0719312863534563,0.036901244531851,-0.00277259676752123,0.00604383733842286
-0.0902851275691343,0.0370406211067799,-0.0163210456570558,0.0046654761307659
-0.0839458206582659,0.0342083701543393,-0.0247095464652277,0.0018790510990233
-0.0671614836800605,0.0326137524542654,-0.0246412693385756,-0.00186381698046069
-0.0500579776792483,0.0363438727170751,-0.0206009023918253,-0.00480604416733691
-0.0107908205206226,0.0434894604640179,-0.0134312726072001,-0.00563951753141549
0.0642008653338928,0.0253651873761538,-0.00169793453429831,-0.00508158770828379
0.130663902262999,-0.00557095503414648,0.0106410551898022,-0.00412338182377431
0.136969805563333,-0.00359408689171128,0.0138850280074844,-0.0027109988523954
0.101175202582992,0.02365218467364,0.00652767277810869,-0.000812659456948661
0.0633427969137707,0.0467491320212248,0.00106904492440869,0.00112375227224607
0.0305096208936402,0.0655598367079592,0.00254897585520986,0.00289794975957575
0.00521749631828065,0.107325434005229,0.00230548754930333,0.00418687247755282
-0.0123388127710109,0.173828582652123,-0.00465786205585203,0.00379817225225209
-0.0473826959968681,0.215303471820895,-0.0148093278263109,0.00126303850527121
-0.0836014148088363,0.172908457852513,-0.0175610617023932,-0.00135285698727414
-0.053222693136481,0.0345231335566033,-0.00370234028757334,-0.00135445482082551
0.017438859563965,-0.12751881915095,0.015253236588162,0.00143744821147227
0.0366251891269863,-0.201118045683174,0.0192463971240974,0.00462314712182475
0.00618238389676819,-0.184454354906194,0.0094868296732316,0.00573900911840502
-0.0165918136858602,-0.175904844599128,0.00153403588983374,0.00424189917047532
-0.0124699910958853,-0.176623237216628,-0.0018332423777482,0.00148710072992074
0.00588479626388282,-0.136358928061103,-0.00786112019199526,-0.00124399081208656
0.0161555893649145,-0.0689986828760011,-0.0119282110269769,-0.00319996965600035
0.00174152630884787,0.0114678158307525,-0.00568779847779137,-0.00313523779725395
-0.0265002465458574,0.100362918608188,0.00294265881449514,-0.000950693858307845
-0.0427852513663374,0.165895830085008,0.00322970452401724,0.00152066093476743
-0.0451304601769122,0.17809457068228,-0.0016956532873691,0.002584485430694
-0.044154020432075,0.14545664034302,-0.00382285146106818,0.00190040725771628
-0.0376026432274939,0.0983430412379377,-0.000757425462521183,0.000120834682401868
-0.0240263175640702,0.0534129221776559,0.00233258808185629,-0.00165458308686784
-0.0105664033679936,0.0159441667718528,-0.000425583581307314,-0.00250864557801841
-0.00468949206817678,-0.00442893368945592,-0.00745030352922592,-0.00251545134168899
-0.00177726677380302,-0.00839855976085727,-0.0119922614873184,-0.00215195465794676
0.00955423037604783,-0.0199193644977655,-0.00586178859572745,-0.00126441034922218
0.0341936057829252,-0.0540075368289145,0.0112451282058094,0.000839258953488901
0.0625900055537239,-0.0941379621762322,0.0238925291799963,0.00415333927298097
0.0644335294268745,-0.114595834738315,0.018304943232037,0.00661598476260877
0.0271899749823193,-0.101756901102509,-0.00115739677252493,0.00612657822762556
-0.0204738529368445,-0.0628241549191809,-0.0192143054036649,0.00342900549470582
-0.0481321169417866,-0.0219382012374726,-0.0269450338926605,0.000854662739000153
-0.0542552513768097,0.00843319596581944,-0.0285669520469675,-0.000984572699815853
-0.052803477847452,0.0272708655673437,-0.0271668320948426,-0.00401166768559414
-0.0481811235167502,0.0207272511728937,-0.022123796501328,-0.00911968787048292
-0.033814402055955,0.0128600422897729,-0.017758891982139,-0.0132860321497733
-0.00877382244945676,0.0486896228972033,-0.0169045819078178,-0.013142713262743
0.00546665093470414,0.0856796512866842,-0.0174670027699039,-0.00924791176537387
-0.0147423537324306,0.0601268549085731,-0.0167483041581636,-0.00418745032775191
-0.0550176071195876,0.000554976507462168,-0.0154630042716381,0.000876062302014435
-0.081573011517126,-0.0282888145963478,-0.013045953452748,0.00576455089919474
-0.0855418887191548,0.00275154946638835,-0.00505767791164216,0.0101822440405371
-0.0760962762476199,0.0803406373406184,0.00333798943764003,0.0142629198648375
-0.0647778451367079,0.151861744067958,0.00505405146366156,0.0157071534275917
-0.0399287494022192,0.16283201469422,0.00861252155708542,0.00976393667404839
0.0134045057969496,0.109854345490512,0.0163879599520302,-0.00185830981939125
0.0779146148642429,0.021682072820616,0.0140571908212722,-0.0102056732425163
0.1486961682505,-0.0728886110481337,0.000349338233194565,-0.0103700333371202
0.200873919623871,-0.153178973629613,-0.00822884436889772,-0.00548970260025385
0.192761635366353,-0.225139970914339,-0.00336685257567457,-0.000144788608082349
0.14514105664685,-0.271848517787167,0.00758703462208014,0.00414853368422676
0.092997773240954,-0.242603775660912,0.013849069549106,0.00713002454716814
0.0395200555738378,-0.142966908042194,0.0113452603283011,0.00730106095956706
-0.0178228271679468,-0.0510992890573695,0.00479040967001742,0.00357960799301454
-0.0654569915979741,-0.00889258795893594,-0.000348977930711872,-0.00258121061101849
-0.0632452630272889,0.0140580914439017,-0.00289561070003527,-0.0082025696096919
-0.028448858667464,0.0359285100411611,-0.00487064267867455,-0.0107319147967596
-0.040496153812394,0.0614922769547447,-0.00790544364660916,-0.00951567507935254
-0.0900711950984164,0.112967753987886,-0.0117275891222703,-0.00576167429180922
-0.106855586919388,0.178802703659336,-0.0140983002004054,-0.00129757593562799
-0.0809168197337805,0.222101027399389,-0.0105901308681275,0.00241254029935171
-0.0483360750349895,0.244807266730487,-0.00312687865058506,0.00479462550260874
-0.0274083465681137,0.252556430001592,0.00115300658108445,0.00619674556687385
-0.00887636299154002,0.221216302372733,-0.000193927333806582,0.00714166146485196
0.0131744349353131,0.14852800154166,-0.00471888691805918,0.00744339241969573
0.0419026184379185,0.0582619743603199,-0.00761683483570874,0.00691512013897061
0.0810505261449236,-0.0313955574951518,-0.00369034480786058,0.00600472760309999
0.111904705339931,-0.113158923458515,0.0075503274473922,0.00492909098802198
0.105401636688062,-0.176280914451496,0.0183611208785372,0.00376435385806099
0.0667960612570823,-0.194757404254198,0.0216579941391158,0.00259779255116851
0.0367324441247935,-0.186316889095933,0.0201054936715097,0.00126990499998502
0.0327977236495087,-0.204143987138881,0.0204143788815089,0.000212382073524137
0.0290810326590634,-0.217312179895559,0.0226308483506449,0.000311631221474729
0.00939816856141822,-0.165757589931984,0.0204576327073762,0.0015492823471512
-0.010699787410282,-0.102805459094443,0.0140295627175617,0.00283331808661188
-0.0153792221371467,-0.0880493781264827,0.0094679575691798,0.00313807911228106
-0.0115830153529881,-0.0787699392839068,0.00873142809218691,0.00245220931448429
-0.0138606277825581,-0.0419824503614552,0.0100295765830502,0.00144466595678466
-0.0282237811018927,0.0011328920956894,0.00764405250331469,0.000774557724057243
-0.054278097558128,0.0316208321012184,-0.00424954772108057,0.000708773554958887
-0.0699246459639172,0.0371320771096183,-0.0174106786768206,0.00103954554411928
-0.0546260760286329,0.0260581128795783,-0.0190684511583288,0.00114830077800357
-0.0310589411518215,0.0253559480071666,-0.0154476418640363,0.000346767596590983
-0.0229508265877745,0.0351067624597489,-0.0145008791781305,-0.00145247149688189
-0.0162478875968027,0.039281851450526,-0.0113592415510591,-0.00388393144379248
-0.00399777974132704,0.0406146495195946,-0.00811559308379003,-0.00599248314804995
-0.00468792391584053,0.0504249226424074,-0.00896352926510617,-0.0064895220605461
-0.0209057722381377,0.0660811823161308,-0.0111584560738012,-0.00532066151362393
-0.0332322416425048,0.0766566152251604,-0.0137770330340967,-0.00384043494952379
-0.0259584683743804,0.0733460633625891,-0.0112084895012092,-0.00308358435659297
-0.0134036509558938,0.0746823652931674,-0.000171350717807606,-0.00284664204643121
-0.024236455892239,0.0985292296844912,0.00510490186382707,-0.00264061866480941
-0.0475485025841317,0.097526364716852,-0.00591220421338469,-0.0025619978237474
-0.0477452482603303,0.0237061326762549,-0.0200434772467193,-0.00282258985035739
-0.018844756243609,-0.0891001096085793,-0.0187320580328815,-0.00268807599360352
0.0190031850894585,-0.143129279123118,-0.0125094190043632,-0.00143755655683641
0.0533605263206467,-0.0929086183209401,-0.0201671729721425,-9.77638758510322e-05
0.0752578715412591,-0.0177342875445683,-0.0299596158472075,-0.000767846651773251
0.0825965745884338,-0.00409275314750144,-0.0257009143377178,-0.00392905432984013
0.0840860355775505,-0.052351592413164,-0.0129603000890225,-0.00681503355326826
0.0772873209685119,-0.108304379212723,-0.00691415138494432,-0.00652013342774324
0.0634728484218935,-0.113585924205297,-0.0118449178608707,-0.00395973556012344
0.0399319572205373,-0.0649969912087168,-0.0161259334646784,-0.00197240113932265
-0.0161562806479827,-0.0132990440255187,-0.0114051959833274,-0.000956531637190958
-0.0910855355937192,0.0251466866018028,-0.00694159197797098,0.000922020991580338
-0.131073706839992,0.0739249147590615,-0.00965814836554692,0.00469754194954299
-0.127980247763878,0.112985722716527,-0.00909642952054088,0.00898144477896817
-0.099433125152128,0.0980590194699738,0.00398433194249587,0.0101678702849603
-0.0384011835557979,0.0499175634661358,0.0236804175909277,0.00531820725093934
0.0252526365074144,0.0413137204300551,0.0358115131182031,-0.00365842938265029
0.0343344453995675,0.0871066723159913,0.030515700046374,-0.0110106757549562
-0.000461123211307014,0.113897383431568,0.0124263543605652,-0.0133732915339184
-0.0209815868596803,0.0720691317356918,-0.00451564824071742,-0.0121316406072529
-0.008966195747872,-0.00378233656455396,-0.0113489708733344,-0.00953529756534642
0.0133017146651331,-0.0768774655168718,-0.00855706771419395,-0.0060167680838322
0.0322540106147472,-0.140326867825468,-0.00476675142729805,-0.00174972031150582
0.0492203131714227,-0.178620728571588,-0.00642633610836634,0.00197907460409135
0.0506890259194665,-0.169526266987845,-0.0108015498739982,0.00358514852272391
0.0350359858324735,-0.0933535391502908,-0.0125594639214881,0.00302294296951563
0.0271692273651833,0.0251470037622979,-0.00620732886870072,0.002156798073388
0.0304789124277993,0.114537393665022,0.00655438313686068,0.00240946695544992
0.0254767674579438,0.141500422547093,0.0165850885860376,0.00341143542679296
0.00929092174763033,0.120737759330176,0.0220367545241438,0.0044669379746594
0.00916817347950117,0.0629179311888312,0.0254382314550743,0.00542873749584966
0.0261618828135743,-0.00149120099627276,0.0258123985887975,0.00591667048886775
0.0286558409073578,-0.0238692268884467,0.0229838330567651,0.00537990353546968
0.0167959051379583,-0.00758366921739657,0.0166140465189779,0.00389856516259624
0.00834801398870649,0.00987874517267326,0.00762641798915347,0.00215432916091661
0.00897348248316652,0.0100231321476424,0.00394763525605487,0.000866467052259195
0.0172943800079376,-0.0213121941233181,0.0113090047655073,3.23294672723352e-05
0.0149289456582282,-0.101838176608469,0.0266099518063893,-0.000791675896616513
-0.0124201248140991,-0.191798739851472,0.040460181822806,-0.00130273734594269
-0.0303704214514978,-0.198304551414251,0.0445393792404292,-0.000273846911291025
-0.0126913083950156,-0.108057118663965,0.0392842428709674,0.00303762793382076
0.00503836833106138,-0.00345969366659954,0.0273218027673538,0.0070368755337587
0.00107609801648183,0.0589099067538091,0.0128713244118083,0.00872906087014646
-0.00962415600207577,0.0846072117034468,0.00175000864161701,0.00715759701168193
-0.0111735277459297,0.0925880371232506,-0.00289192694371995,0.00403575986988142
0.00522285587985656,0.089610097893373,0.0053947141010396,0.00110561286941443
0.00728207999774363,0.0675878440405635,0.0197894350228848,-0.000944193990183482
-0.0306493332737936,0.00620576928381635,0.0260779455833211,-0.00193127886763093
-0.0549425655110777,-0.0930211619998933,0.0319097517466473,-0.00207455972721186
-0.0335807933317542,-0.174931607837692,0.0400045121441932,-0.00174270019713413
-0.0177329120566968,-0.178524681477325,0.0339849636445841,-0.00118311425860038
-0.0297085163624321,-0.110859626560006,0.0122379083243304,-0.000734562133910043
-0.0351018292943725,-0.0314091051688137,-0.00706930892576823,-0.000770187296587572
-0.02334290067612,0.0171922394585863,-0.0144217929317358,-0.00116612001300319
-0.00707296252248499,0.0376005495116253,-0.0159631105033535,-0.00163755069145495
0.00885725214821145,0.0429212090814203,-0.016815216536226,-0.00226672298376524
0.0266178698413384,0.0406879711039113,-0.0143607480026385,-0.00315350794000891
0.0444287839399166,0.0549481694830531,-0.0070045759262737,-0.00391715029860527
0.0445878620201909,0.097879124385866,0.00089513488910381,-0.00382604647552131
0.0327104408739525,0.120736654314905,0.00697141913901721,-0.00251469282621463
0.0288625785500601,0.0700472443608016,0.0134560235014006,-0.000322458650605249
0.0260398744773279,-0.0263743109188141,0.018914089518685,0.00210392127557447
0.00860424265511259,-0.0878470000559764,0.0185114663029898,0.00393378849230424
-0.0263798485706289,-0.085242322805271,0.0153721089542316,0.00413724850360778
-0.0599852430465333,-0.0623936919252205,0.0131567041114848,0.00273488546347437
-0.0819614468489862,-0.0472964737102753,0.00836765819993298,0.00103726526083693
-0.0927394401332072,-0.0385438447003493,0.00232988913834478,-1.35409566963504e-05
-0.0714543098219742,-0.0392819834990812,-0.000441600488535223,-0.000514334926616409
-0.0223708237820077,-0.0469301203207226,0.00127165980305738,-0.000935955668078056
0.0162326730340219,-0.0532590203831967,0.00296800373982179,-0.00160694010089788
0.0373086866619825,-0.0509228176560101,-0.00113391709070632,-0.00265681410037375
0.0511662803375023,-0.0328145060251472,-0.00884050850196759,-0.00388125299010176
0.0388127390927393,0.00116515863540768,-0.0160922819219256,-0.00489415977329581
-0.0102646834927902,0.0427715339342473,-0.0222000067375285,-0.00543346686129267
-0.0698517018251874,0.0846694225236752,-0.0288001953576111,-0.00491402098471952
-0.100745149670067,0.129860970742694,-0.0350170818540646,-0.00308819909201046
-0.0811983385585822,0.180448211938524,-0.0366486891803563,-0.00112567945167644
-0.0395938888271424,0.224260587007196,-0.0363323135200051,-0.000286077125293386
-0.000167493355152842,0.26296067755376,-0.0373647579858795,-0.000640285032737072
0.0441873192426959,0.301070867321225,-0.0359457983481605,-0.00153754541825634
0.0768547623806914,0.31399493994553,-0.0313295719929247,-0.0021911412047291
0.0765108790681367,0.272739692081083,-0.0255581179887359,-0.00173975845621914
0.0607142782792686,0.156691181634191,-0.0138242712317696,-6.85199204363777e-07
0.0604833393543835,-0.0525037261430843,0.0082963545807819,0.00215944419189456
0.0677583331763853,-0.301332696529119,0.0291679353289061,0.00403150035821136
0.0444530750637171,-0.448373116701625,0.0302387590341003,0.00545195177545364
-0.00244376773990901,-0.453503933785595,0.0157226105772473,0.00629018664962221
-0.0146409064050124,-0.400581050069198,0.00489115182410161,0.00645285808808434
-0.00243230689185506,-0.295753569998568,-0.00136601039749267,0.00578387655229281
-0.0278866759613571,-0.12207359204734,-0.0100508756583346,0.00415201661114298
-0.0662489633207842,0.0402756605715898,-0.0175578470863146,0.00203309450157619
-0.0605382577569699,0.132723614283656,-0.019351748110574,6.41634315723541e-05
-0.0164678795543284,0.174294605599931,-0.0156141138850511,-0.00149702568692954
0.0326027396678808,0.187696008846906,-0.0117979196260669,-0.00273327067248451
0.0644387852637441,0.184693560458945,-0.0122858356411309,-0.00400475972408086
0.0696543501151121,0.174860820294688,-0.0110639328421047,-0.00524170612612886
0.0488079119668588,0.156243745003495,-0.00520663139484445,-0.00560562740507708
0.01868570235145,0.123204813944775,-0.00132625154720951,-0.00430293881738815
0.00259861827877342,0.0741195529715746,-0.00106300726467451,-0.0016289161604907
0.00277992938526954,0.0156008136771635,-0.00144823739081868,0.00117181881594759
0.00277608571089987,-0.0300843689595246,-0.00289315029860844,0.00306905971911408
-0.00666827634880152,-0.0495084214044114,-0.00740220743914177,0.00379633615739337
-0.0148931383093732,-0.060610531666973,-0.0110072655293358,0.00363365682090142
-0.00722523617241137,-0.0758296341091879,-0.00890858620514163,0.00337755794192728
0.00884766192770169,-0.0795062133654597,-0.00563796536464845,0.00361139154410147
0.0152765783218146,-0.0642730422457459,-0.00598376934380226,0.00366201787612864
0.0131441372690459,-0.04648599254242,-0.00747615796022224,0.00249198867933342
0.0132208374243928,-0.0399987511306722,-0.00738815865684399,0.000584249014604905
0.0196242355972188,-0.0457920015268678,-0.00521019844322612,-0.000511686654092666
0.0222292602102028,-0.0540063549524111,-0.00136676713124036,-0.000312404742934077
0.00377486922042801,-0.0563983639173879,0.00229802855528221,0.000564233715027898
-0.0213125305942535,-0.0546467547357194,0.00260811275465273,0.00190366835666538
-0.0268790942684555,-0.039175668003672,-0.00231284024755865,0.00378558114543274
-0.0203796865136942,-0.00691258160066938,-0.00880803284270684,0.00499926752417278
-0.0204277038128125,0.0227020778674097,-0.0109980397041535,0.00400441681930604
-0.0313906712489613,0.0390675148763506,-0.0068419216877605,0.00121614959891377
-0.0487957031202406,0.0517582103041128,-0.00167793190482396,-0.00194414962711293
-0.0578041360474878,0.0606217275602688,-0.00518775922346214,-0.00483520517720933
-0.0440240672847441,0.0322973951723334,-0.0142895887756251,-0.00703643498116662
-0.0221478486730842,-0.0681891827264921,-0.0132781243388015,-0.00770705158004847
-0.0160789917902783,-0.174398254999328,-0.00112819743534178,-0.00646580109508993
-0.0219313785457203,-0.142557538126748,0.00748821680195549,-0.00349593252414781
-0.027760457035719,0.0190836068334096,0.00342119811741949,0.000612399513754584
-0.0343021363664158,0.143376067826583,-0.00743104601146753,0.00447652150049372
-0.0312836886492965,0.112467382353029,-0.0122101595107685,0.0066218751774837
-0.0105211950952792,-0.00677201942138105,-0.0114548961652718,0.00639741897156401
0.00712591857985981,-0.00839214325094988,-0.0128166124905225,0.00431251687146173
0.00551450478349784,0.16644497003833,-0.0113283846092403,0.00160091263182899
-0.00924882913552531,0.330253371573313,-0.00341956997098219,-0.000398930822206901
-0.0213461610586183,0.287413669825281,0.00333207258412702,-0.000717303790169696
-0.0148089347778696,0.0914504718298935,0.00394367281513216,8.04809904328561e-05
-0.00541775805897304,-0.0149845000548131,-0.00153646179323309,0.000311830671382629
