0.0149196885232506,-0.0257190948731269,-0.0144311176593416,0.00152923794250314
-0.00460790448640015,-0.00855822332961811,-0.0184490114601141,0.0125910097952859
-0.00622951420777642,-0.0183119256863285,-0.0203651926611813,0.0200587531391327
0.0104797988358732,-0.0218928252604098,-0.0153916485136658,0.0222113628569707
0.0376128178053251,-0.0220406511019325,-0.00341201012850935,0.0123667786033512
0.0686359998641734,-0.0546701516777096,0.0087569751869393,-0.00741008494995856
0.104150012618894,-0.0710461761745338,0.0166986499031157,-0.0237616654227666
0.12373481768008,-0.0140060973391659,0.0185360322115151,-0.0251779496257874
0.101288019209902,0.054955608182218,0.0152360781342584,-0.0113273666544674
0.051304004916339,0.0815819125629844,0.00921001469820242,0.00460592669272386
-9.73526451966689e-07,0.0860832427112458,0.00450147887053871,0.00699717253991746
-0.0356128839878792,0.0729586909653374,0.00452596076004721,-0.00409141218742989
-0.0490345001947065,0.0402156209536976,0.00709426225005362,-0.0146587356536409
-0.0576538097323312,0.00715485841266532,0.00937861494870697,-0.015026202573551
-0.0763595683433634,-0.0145629421061295,0.0124265276310283,-0.00831149714962755
-0.0908019043999227,-0.0232971845750934,0.01458514147999,-0.00326742842934195
-0.0824718644625546,-0.0187770864848045,0.00963701706765708,-0.00395867771908141
-0.0532259655451473,0.0141222223770179,-0.0019998097772927,-0.00835763325547563
-0.0206851016015786,0.0692333101173404,-0.0139895925392829,-0.0131037145159254
-0.00243716608865007,0.0971776486864767,-0.0203999818443409,-0.0142776885857743
-0.00160638898997903,0.0889819139562422,-0.0143211702855489,-0.0089101172955474
-0.00512006215045907,0.0696554748991154,-0.000795170238254067,-0.00136646054703988
0.00370788148242383,0.0615638295654022,0.00808505391869806,0.00107805223311036
0.0253026025510016,0.0774392428995591,0.0114089057348244,-5.88609898733113e-05
0.0487156125786499,0.0855468017786478,0.0119418643322553,0.000736442591528077
0.0686548725974648,0.0188596104310154,0.00806950248170101,0.00356973730266115
0.0807533762689503,-0.0855145555273136,0.00220043333121115,0.00640614757238438
0.081850860383305,-0.0738565329200551,0.00291854528891636,0.00766482388253878
0.0739471591627765,0.0285330368291385,0.008037750705603,0.00582067634304308
0.0579028048514615,0.0581590269361636,0.00771149236112475,0.00195904455300231
0.0381152871370401,0.0201189385505129,0.000417565987563361,-0.00102008644694115
0.00872400461949548,-0.000863041398577612,-0.0079932114810921,-0.00177602441748361
-0.0373772996015491,-0.00742147136433089,-0.0136351409431893,-0.000702530963311233
-0.0734733415376265,-0.00238902450012393,-0.0167271162023434,0.00179217366607603
-0.0786391346431375,0.0358266272740974,-0.01296259506204,0.00512335926441937
-0.0771163285488686,0.0751195516373401,-0.00177963109460898,0.00668097976557008
-0.0911514135388034,0.0725707590850005,0.00652040043837558,0.00400250231045081
-0.0986723040574875,0.038932414875671,0.00782557051627742,-0.00115871083199195
-0.0707848931920395,0.00933616461957887,0.00813367268387076,-0.00492165120025573
-0.0166848156119409,0.00509925163124279,0.0105591927850111,-0.00586792669998634
0.0225814020333352,0.0371525399287754,0.0144576392681932,-0.00513543668042558
0.0298913817854584,0.119138633204832,0.0200366907143392,-0.00394924331862209
0.038632227278255,0.213662453807744,0.0241048800852957,-0.00244566002337162
0.0551163956035942,0.191562098677202,0.0232335201722065,-0.000196099141612094
0.0435949395666976,0.036542622501627,0.0203201654954818,0.00276734857553851
0.00821456224678117,-0.0568050368456422,0.0186554254727451,0.00584574924406603
-0.0198108460809238,-0.0164557940612976,0.0163794707733125,0.00886933210259553
-0.0296413255707093,-0.0107124209167479,0.0112822625919812,0.011978773268758
-0.014768289555859,-0.150855602731278,0.00507708871497996,0.0145186371881189
0.0237837262289639,-0.328877385563752,-0.00121299009635549,0.0153418493039806
0.0688940204753622,-0.327976671264819,-0.00942883314613085,0.0139725914920967
0.106183420298098,-0.111713945531188,-0.0212388196280599,0.0116083165888628
0.111036307451489,0.0755130589207824,-0.031548543719674,0.0100751545273285
0.0664579263820233,0.0729120691535329,-0.033428978075128,0.00972185998982118
0.00987054874243101,0.0204892278337823,-0.0257860697075992,0.00962941537200483
-0.0152285132582896,0.0562288293341989,-0.0104088635194794,0.00890337510672498
-0.018653097240297,0.0988006881086102,0.00505272996131113,0.00733276670721468
-0.0301643089563901,0.060317652561485,0.013822239924892,0.00459801624082148
-0.0469828895387684,0.00156341622544662,0.0167791307720976,-0.000893956650801053
-0.046965484828116,-0.00392830832234191,0.0173286421374924,-0.0101297476735896
-0.0305838644937932,0.0265782668839891,0.019120772534434,-0.0211819988642813
-0.0140939902920884,0.0413910010151027,0.0202612645974992,-0.0308923622836412
-0.00406371242790418,0.0216276160067388,0.0136405680267437,-0.0359905012933854
-0.00660083775045981,-0.0154486668568211,0.0015684569380176,-0.033153693709749
-0.0206886985646539,-0.0491883512469505,-0.00619390256873431,-0.0211422344712647
-0.0445584584351509,-0.0763212162981677,-0.00851467685115097,-0.00115977216886239
-0.0816813775527383,-0.0891845185291568,-0.00811857777351159,0.0210820712532444
-0.10682981058855,-0.0799523096960756,-0.00470028726952551,0.0354474303209576
-0.101832289175576,-0.0479662599939713,0.000817093299088092,0.0354414615850332
-0.0777784892269135,0.00614078450245552,0.00649262359237709,0.0218947253745988
-0.0418203441025349,0.067081713579743,0.010929161971447,0.00209206219004764
-0.00101041140741656,0.108925545422997,0.00974368026139495,-0.0128243272906269
0.0155196791636505,0.0940854301341145,-0.00204799384833838,-0.0156470890392845
-0.00893649269856152,0.0117676750301882,-0.0149275278909047,-0.00613735028086764
-0.0278345797570025,-0.0645615526403411,-0.0156644693212463,0.0101500195336316
0.0115134292865932,-0.0503344356463586,-0.00749674362246746,0.0206312832870009
0.0832698581299716,0.0360451340056585,0.00232952710881273,0.0150080702491907
0.113838376931323,0.0964449791078511,0.0109575767938511,-0.00218495340699096
0.0869751584300812,0.0695045938283571,0.0155780607426317,-0.0183383208014187
0.042055714526672,-0.0068939522046419,0.0134127139108679,-0.0255527976100773
0.00655204733751236,-0.0505894301139031,0.00625644644515354,-0.0231633193597923
-0.0117574222318352,-0.0716866759970534,-0.000709207290263032,-0.0154686381597515
-0.0125674923172478,-0.10711765806777,-0.00511732221822488,-0.00785149862921475
0.00102704610333399,-0.0882255945536723,-0.0051669677731362,-0.00281629560054684
0.00808201587041908,-0.00414221391006997,-0.00061046091286359,0.000420616788029916
-0.00283082807042486,0.0366704221269501,0.000569144505604725,0.00350980586705724
-0.00703107513970501,-0.0241335031911249,-0.00906249093253709,0.00678312558936659
-0.00918747752722966,-0.0938530566847309,-0.0182366694808906,0.00946285506351297
-0.0332273538140081,-0.0692381549586494,-0.0139963739148947,0.0109327342392236
-0.0543462024646149,-0.0147051885768082,-0.0041389918535409,0.0100557280545547
-0.0488392101876982,-0.0177510364359293,0.000435028824498248,0.00572605736230884
-0.0361300561495741,-0.0333496717318275,-0.00132294058901367,8.45059904102654e-05
-0.0303960240282753,-0.0146503763839667,-0.00606608156986475,-0.00227441925482186
-0.0238100910355644,-0.00661216404241471,-0.0112221458758642,0.000548368606056247
-0.0131447371684761,-0.0095636350235415,-0.0122564683656614,0.00595321693321191
0.000513936282590563,0.0215620938955447,-0.00584973756606495,0.00997135561725528
0.0158592486197563,0.0551031195774738,0.00182791340674053,0.0104328943697653
0.0368269576642581,0.0614051180069233,0.00457661143983533,0.00790365845924841
0.0619809393942445,0.0553912989880328,0.00215122559183937,0.00488454128583433
0.0716201848054663,0.0267350763047926,-0.00183440234589154,0.00321788845678402
0.0588911798087817,-0.0295329479837338,-0.00265299817760793,0.00244436013909089
0.0379567205225162,-0.079186125750509,0.00175793622050842,0.0013926985312242
0.0201395199827087,-0.0942036329741741,0.00807313177975786,-0.000169749587107584
0.0030593270552464,-0.0834114628761755,0.00991988647273803,-0.00239053507026318
-0.0100151540436208,-0.0684222247914908,0.00893822522248018,-0.00560984724573084
-0.00333790380344211,-0.0585267729516419,0.0095127475072708,-0.00889902303605147
0.0145226586857846,-0.0549301301792969,0.00805139498015862,-0.0107200671904983
0.0262156154576759,-0.0578205956438277,0.00440425015565557,-0.0106667903775343
0.0334901370291474,-0.0693702056991045,0.00190088713940907,-0.00821349732524607
0.0319944130830305,-0.0884299615413014,-0.00144399514869639,-0.00154479968038424
0.0207810642004631,-0.086604419091726,-0.00453476599139378,0.00812285221793614
0.00968314060713541,-0.0463554924699371,-0.00418359669867411,0.0143936293870678
0.00603605464155236,-0.00617022798176147,-0.00281461856017994,0.0132531204453932
0.0123165371067621,0.0016357143486944,-0.00359371813335236,0.00788363411328632
0.0170408583848386,-0.0120563235925308,-0.00649551118054287,0.00318968306566989
0.00127001790421994,-0.0309160131896913,-0.0098367889204568,0.000416717195903327
-0.0295842484142272,-0.0546128653360447,-0.0126041990877114,-0.00217480472436833
-0.0444788884334975,-0.0790914015966188,-0.0137653597689534,-0.00564555965554164
-0.038422059641162,-0.0906651825470176,-0.0101163208753332,-0.00902383254429378
-0.0291543133113923,-0.0854752246778958,6.73821515759848e-05,-0.0111700135709177
-0.0268287698431781,-0.0703512796915848,0.010279224555349,-0.0107283842524793
-0.0289039758110972,-0.052428760402027,0.0137977610161546,-0.00638992785253953
-0.0207279988686672,-0.0275471105457939,0.0129700896376143,-0.000743138358454087
0.00135079395332362,0.00652065300782501,0.0120522126895778,0.00165263747361512
0.0271278935532334,0.0480272518693835,0.0133220077674456,0.000922414281734982
0.0460360603229903,0.10750019495673,0.0148421252288864,-2.31356450873931e-05
0.0388540441085497,0.188438514525782,0.0106227297063744,-0.000897142323837443
-0.0114747100382914,0.271173822587268,-0.000641446482956377,-0.0021865564072259
-0.0819421590658847,0.288005772120338,-0.0134775922660294,-0.00278435536827663
-0.132116606571646,0.189648417656675,-0.0202937217769767,-0.00230169489232601
-0.142079373020065,0.0478039298228604,-0.0164180786428696,-0.00108691408196035
-0.113598095662558,-0.0732074442865839,-0.0067905141750984,0.0017262414340128
-0.0711704918717722,-0.179317732422618,-0.000176049329809243,0.00632274244462264
-0.0425756418664759,-0.228146278363078,0.001995185388166,0.00971433078337767
-0.0308599234747765,-0.191240121323011,0.00108228083710008,0.00902085791878764
-0.0141282192993704,-0.0845557039466281,-0.00300798530717672,0.00558874408856042
0.0244271961243855,0.109727411715601,-0.00593841001878638,0.00266125499468321
0.0610310874924724,0.315350510089276,-0.00223654973239601,0.00139095349491362
0.0521117891854927,0.37927545171772,0.00501898884207081,0.00055737977793309
-0.0046037339196362,0.255524873013494,0.0103290736610086,-0.00142506947104189
-0.0570495023040676,0.00728849266114612,0.0108540633431903,-0.00453270836932631
-0.0570874822294498,-0.189509268703867,0.00623471813886701,-0.00677489214519077
-0.0227950744113073,-0.153148105271539,0.00302505447911802,-0.00673642248701713
0.00897423707791586,0.0658598349983884,0.00512234046889454,-0.00539262304158726
0.0277014588142347,0.249291185639653,0.009185416625787,-0.00442561494840256
0.0221792418071134,0.273588192579773,0.0122040589610049,-0.00429665280691314
0.00637327063413719,0.138096807048655,0.0110033564840067,-0.0033537367963926
0.00596442239024333,-0.0728745888163737,0.0065082376383428,-0.000377348499813946
0.00872386311691717,-0.210870058011334,0.00329455980106688,0.00137001506583989
-0.00114047688836125,-0.187523891128549,0.000208921925775304,-0.00128874186723525
-0.0198484336976594,-0.0293621479014478,-0.00364639686149015,-0.0050123132142205
-0.0394128137770146,0.133777657514874,-0.00696020209513348,-0.00463615262008364
-0.0481326476678688,0.176691502786075,-0.0104776809296689,0.000902614306085079
-0.0341433330929228,0.0983457146139786,-0.0133953667165415,0.0113447117437515
0.00691770450931731,-0.0369252100841981,-0.0146696418038397,0.0245038987757315
0.0622467102019735,-0.161843229959882,-0.0146804539903008,0.0304241660436497
0.0931739406182517,-0.205059133820334,-0.0125961977111019,0.0200365422099611
0.0732945930382665,-0.13370736369065,-0.00801021012742988,-0.000330517398233407
0.0273538021790542,0.00116570972381869,-0.00537206052992605,-0.0151024137231092
-0.0056935179204405,0.107339134663372,-0.00964719593912147,-0.0158492547763601
-0.0164570470382844,0.139851938402327,-0.0157827118644144,-0.00556637568810662
-0.0105387606641435,0.109084766776978,-0.0123790422807759,0.00735101232179008
0.00749129924560272,0.0561444936762996,-0.00036756654087345,0.0147535870916559
0.0215961238037292,0.0243024440582204,0.00963566736836747,0.012691183454103
0.0160475592549236,0.00656821697680637,0.013546190530848,0.00457710071406876
-0.010594325001322,-0.0136610798168106,0.0139518134389416,-0.00246100230628254
-0.0375211157858128,-0.0164026803583543,0.0141152385513558,-0.00519929252581264
-0.0338171247546095,-0.019481762989784,0.0141938407257071,-0.00572741594286065
-0.00375224271545151,-0.0810460260562502,0.0121726482059052,-0.00673934520276356
0.0208696050490832,-0.176219528059239,0.00812704571630146,-0.00852896141700609
0.0181785048625778,-0.184042881878382,0.00683110372324827,-0.0107765813129204
-0.0251002913638384,-0.0907009247534752,0.00982497222047626,-0.013639721538127
-0.0941965711064567,-0.0239209698175768,0.0104424021880049,-0.015960634408111
-0.139057649368539,-0.0494591086450453,0.0076373042766027,-0.0156431075348938
-0.122917821889074,-0.123743392431248,0.00575379656721046,-0.0120678252974123
-0.0405973949802723,-0.123092041270806,0.00566578074718038,-0.00605917439891242
0.0556647155694385,-0.043577012263668,0.00801403452044957,0.000917585343682949
0.0851205855815392,-0.0476361124211183,0.00821944676965149,0.00715702238317354
0.044145342195851,-0.127698599704055,0.00427489824294454,0.0118947592439307
-0.00312402303368362,-0.159423005290112,0.00259248651593975,0.0147752071355559
-0.0101924693231674,-0.109403048914647,0.00442644719657566,0.0150923788082329
0.0268334253639518,0.0314596098835428,0.00564866372142055,0.0146101983997418
0.0768981918039479,0.137331913737489,0.000311846676649586,0.0161957768292848
0.0975509720587032,0.0408508289065906,-0.0132849513295429,0.0169234325485139
0.0773230295243899,-0.0761465768185273,-0.0228650849462148,0.0107540046737816
0.038514623237062,-0.0053356011888227,-0.0172237960800603,-0.00217632068409523
0.0096976854731684,0.107388884553618,-0.00555378955607756,-0.0150863421122308
-0.00328273270972479,0.133141345838303,-0.00012787712171812,-0.022509041777584
-0.0149173629456587,0.123501057295322,0.000301113457345219,-0.0253453675474733
-0.0266823222768897,0.130658850863267,0.000221978915740819,-0.0260860479902268
-0.0345908536738841,0.163068750598662,0.00364759082675509,-0.0243480726325671
-0.045886150419296,0.18441330516377,0.0127771002694564,-0.0205968646279486
-0.0521386969036445,0.131005068043815,0.0194993766544517,-0.0179421110938338
-0.0296166425534002,-0.0495534683607107,0.0159655988320205,-0.0167858897654266
0.0266030723330252,-0.288819332910781,0.00597926818162395,-0.0125562632778361
0.0917515941494404,-0.411028197145842,-0.00331164588075323,-0.00147343419066379
0.129283452316317,-0.341976115252574,-0.00412311136906399,0.0139565294940134
0.129587113829406,-0.176281441786981,0.00498698284199521,0.0247988990710691
0.117959118578774,-0.0561175436697706,0.0123515465422207,0.0240518341321592
0.107169138990328,0.0124004879461739,0.00968996510718561,0.0166133356436212
0.0741929822579721,0.102777580505947,-0.00103029573529877,0.013736204162363
0.0155446947762737,0.180309481376064,-0.0163554263504601,0.0218971288380065
-0.0302683296643637,0.182273423650211,-0.0291245038127666,0.0405829895271774
-0.0355535340721475,0.123985546939623,-0.030767652458413,0.0574907333850412
-0.00795318768802931,0.0599367318089806,-0.0224639589126039,0.0511929339317826
0.029432005722233,0.0293298403185057,-0.014364059939204,0.0153271859825234
0.0641107428574649,0.0293758725673177,-0.0115358789495787,-0.0309485065370965
0.0984236636844662,0.0396540398081687,-0.00947584863406868,-0.0638726937464152
0.13350976790227,0.0201269068967933,-0.00621358246363007,-0.0738822153274001
0.157591133998019,-0.0407339510361181,-0.00396142288461092,-0.0649148352340301
0.155035267121548,-0.0564011155108606,-0.00260177254569319,-0.0457425486947675
0.130983356971575,0.00503471629746691,-0.00234344726340209,-0.0218366054271614
0.103533577458547,0.0482309826857031,-0.00434199762957987,0.00608689504695388
0.0765620009547,0.0427329579627676,-0.00589539657366584,0.0326081856873588
0.0400587706675328,0.0378107694599326,-0.00417203106700922,0.0442979871478175
-0.0175692765912183,0.0297388700790313,-0.00211666453045232,0.0354123276834511
-0.0899022110460701,0.00267312319084723,-0.00163114087708549,0.0182782075989983
-0.147098770325311,-0.0239565256058795,-0.00027403985636054,0.0103130215698604
-0.160778901834329,-0.0484145317619315,0.00266760465038848,0.0166145348467216
-0.125631850197014,-0.0878606112300491,0.0044740336180711,0.0268171937616127
-0.0685281504470666,-0.144925568245267,0.00408882788609374,0.0279026524485718
-0.0201648248729867,-0.192054949018918,0.00111826579803265,0.0183460059487503
0.0191734442364082,-0.19101425147164,-0.00547132056041336,0.00567891268968063
0.0577349325315633,-0.172848236108732,-0.00942677764913014,-0.00329550510849687
0.0994603008644494,-0.177984044570041,-0.00691226308184695,-0.00764696035026028
0.15363400885751,-0.101856147426588,-0.00376528460625755,-0.0160791602669269
0.182335052780685,0.116887899908707,-0.00102783175074182,-0.0389295089357432
0.124107238678044,0.282456204988029,0.00574953619697242,-0.0689691611669473
0.0152068679148873,0.242671459759025,0.0140505169464235,-0.0841276906250565
-0.0584552355238834,0.105746832887864,0.0162022740590679,-0.0720036571151972
-0.0752660495350228,0.0357409868016673,0.0132048466986119,-0.0400847763589431
-0.0640820366646126,0.068451728745707,0.012929370013653,-0.000398901805210045
-0.0536877102503158,0.110597308119841,0.0147681163084784,0.0473754167870091
-0.0523073036841641,0.0758889694280132,0.0133091513757095,0.104894322747877
-0.0606282683446774,-0.00667075102750417,0.00862435042777965,0.152528661356967
-0.0738502281093618,-0.0695909038350074,0.000460281652547287,0.158478752018992
-0.0678492709718332,-0.0859278335167463,-0.00695128530228111,0.112332012381053
-0.0343984514503054,-0.00486962273529335,-0.0058724036048284,0.0339863567413357
-0.0131718935978196,0.15455031416941,0.000751521152206584,-0.0467166034387319
-0.0340513345410486,0.242909984645353,0.00849624752729143,-0.106167990915667
-0.0694887207121215,0.196176965483302,0.0161952636814403,-0.130555045664012
-0.0916487887332606,0.0907060222536363,0.0184853003603448,-0.119197559388921
-0.102306498308664,0.000370214042309969,0.0124605051148586,-0.0856686662111568
-0.100929347354037,-0.0529425311174641,0.00410064431265154,-0.0475551994081769
-0.0735903053097351,-0.0779705773122449,0.00173721745176215,-0.0166520080467211
-0.00943778506608889,-0.12237797287868,0.00504470264114499,0.00216884498141606
0.049157721494212,-0.186322519007042,0.0083292857916908,0.00998734266846865
0.0550412987593929,-0.20018968254798,0.0096512495464258,0.0130454062364152
0.0418143249803337,-0.152766801161152,0.00456790065700642,0.0178892275241533
0.051688254438946,-0.0545130175821366,-0.00691232609376218,0.0240395940304701
0.0691522635562743,0.082396680190167,-0.0145394719937074,0.0280432118158091
0.0728121203824904,0.193717792656334,-0.0141068111238621,0.0335747937137145
0.0668656043810415,0.249993327048505,-0.00650987700098728,0.0433625959197199
0.046803241488814,0.262409572072645,0.00381520043689888,0.0488403177149984
0.0129550490605318,0.217686198340624,0.00713777623465327,0.0428785254794496
-0.00381408089845464,0.0908520958155326,0.00174993022040304,0.0299496778628802
0.0155305507315182,-0.0736790983334548,-0.00565311841962322,0.0178851491123337
0.0440410351269439,-0.143664853252003,-0.0106560740270895,0.00910253203965754
0.0385384236945057,-0.0893041281083967,-0.0123720475813749,0.000926471929606529
0.00275534434323392,-0.00192157817232688,-0.0112698034658299,-0.0087178451793879
-0.0278695832698052,0.0538899011486869,-0.00891032820357659,-0.0185977874923602
-0.0479018881003136,0.056926247234388,-0.00860209372181962,-0.0256361990356524
-0.063995811741298,0.0273065378182099,-0.0130609789316074,-0.0271751318907452
-0.0654092369883818,-0.00450539574108015,-0.015594104753733,-0.0230385727194505
-0.0476891467170175,-0.0203697351758017,-0.0101370017771299,-0.0159160483100266
-0.023100582829804,-0.0205170958490028,-0.00276722844324898,-0.00951465488024831
-0.00519868565894508,-0.0294631172502573,0.00177647933600581,-0.00626548796664288
-0.00470207515540871,-0.04793283847521,0.00474946760277939,-0.00587443312809816
-0.0312143752097011,-0.0638614698265731,0.00519467968143711,-0.00548344801312689
-0.0766481233998687,-0.0737349352778408,0.0010234693708737,-0.00260060949565886
-0.104240366310445,-0.0573492164505246,-0.00456904187958366,0.00187381499242024
-0.0890466274370511,-0.0262903984469654,-0.00706873219640111,0.00456139778666535
-0.0443605565043548,-0.0154049154480888,-0.00669711308214257,0.00350419137724557
-0.00242443314892832,-0.0189788423252743,-0.00603175529288948,8.36387352615327e-05
0.0165830131723746,-0.0219551109714517,-0.00483622771187821,-0.00295855978553001
0.0276135872767617,-0.0318194834056754,-0.00235141669078084,-0.00425711881806603
0.0465202411306276,-0.0583989513752278,-0.00164150993095811,-0.00474925709473074
0.0716253755089787,-0.0746035707500242,-0.00577427291336324,-0.00571306717232731
0.102796448753391,-0.0538573621143655,-0.0154509001601249,-0.00654190249278612
0.11752543471029,-0.00989115907519168,-0.0286435174813649,-0.00598229281325317
0.0810500014406166,0.0565352233698987,-0.0356504078571516,-0.00417071798292522
0.0110227210057064,0.116522595865824,-0.0267418540354223,-0.00183242312915687
-0.0459297699007235,0.117334468854521,-0.00825050476175532,0.00146248676644629
-0.0810685028755827,0.0843051357279805,0.00761665708657974,0.00578274028841438
-0.103489710968393,0.0594104882425362,0.0170520012836687,0.00807404093035072
-0.106412054710038,0.0376029014307089,0.0207566489336832,0.00487293360884133
-0.0867058514175431,-0.00281234787060533,0.0203315220583525,-0.00255474272884056
-0.0531806133074179,-0.0740386611663149,0.0160780767429515,-0.00922522836658997
-0.0112894921605435,-0.156237569133894,0.00858485016383285,-0.0117948676703709
0.02857440131552,-0.215124412056556,0.00278325749988599,-0.0110467001208014
0.0469622499768339,-0.215860616077773,0.0018119129989804,-0.009815496572731
0.0419922708331377,-0.133142509149387,0.00357071062031312,-0.00995040759331888
0.0338892280815793,0.00324055760487282,0.00498541404697938,-0.0115616023493823
0.0296355473552753,0.12370628199324,0.00257723629885295,-0.013524618072199
0.0193202473148799,0.192535034581347,-0.00435824523534909,-0.014173817807237
0.00107783450958553,0.207468977065418,-0.0105152498124142,-0.012505731563457
-0.0245037131824278,0.168980865320169,-0.0110395433675468,-0.00880377885348132
-0.0553334143348598,0.0963683295252965,-0.00750525124326116,-0.00430938574038243
-0.0721143883834875,0.0334864237887272,-0.00164037661935913,-0.000518644398826001
-0.0572708080078199,0.00376998554811862,0.004195751030991,0.00158460596214813
-0.0247593222436707,-0.0201224426396791,0.00443379054963885,0.00168037622503366
-0.00331367005247626,-0.045505994398296,-0.00129300206522273,-0.00020682894290207
0.00364318159674024,-0.0354166286351292,-0.00946043213914332,-0.00258236097418639
0.00964879103530037,0.000173711490916523,-0.0175386811161635,-0.00195877019479597
0.0171405007437531,0.0137089134798976,-0.0201600589241616,0.00258944192567631
0.0244952325292357,0.00668017902942904,-0.0160827109482242,0.00750916946614589
0.0207815611171284,0.00592144004472272,-0.0124727986008685,0.0112474721117286
-0.000229827934847692,-0.00181462691332291,-0.00958817046679637,0.0149861839896754
-0.0148461258998099,-0.0225322949272984,-0.00228684441308155,0.0169429475135933
-0.00946787763424931,-0.0231617685712623,0.00857764400205415,0.0145635653064354
-0.00749860184896375,0.000112269422582474,0.018778056426409,0.00898831384340367
-0.0209315896647266,0.0295718937113772,0.0244798223202991,0.00389034087060018
-0.026243752808176,0.0580849694938382,0.0251802507220505,0.00192045934542516
-0.0179681983574018,0.0774865944642783,0.0233350730979049,0.00209484135345774
-0.0158252823359027,0.0892031314248942,0.0210388144587152,0.00184087519201708
-0.0156961028308939,0.0965541238455315,0.0188880187528607,0.000451616964643182
-0.00321901574870382,0.0844935367713234,0.0148994934707393,-0.00154787116495556
0.0147613065233985,0.0426833682089086,0.00775990383282234,-0.00339791657875535
0.025954182757095,0.0116067519588536,-0.00126035091420618,-0.00384276760553728
0.0265221975846993,0.0172509927505434,-0.0148045390972171,-0.00222416139284321
0.0206909602181527,0.00426598166603602,-0.0369260444774664,0.00132404873276362
0.0171527464214141,-0.0522074950743182,-0.0579726888583483,0.00627012257789722
0.0144259466318982,-0.0790255339881434,-0.0583447151847567,0.011235771380149
0.00667889370842978,-0.0581632751141784,-0.0395109746990356,0.0137712163714865
-0.00144985825304189,-0.0820976277058964,-0.0224368789794855,0.0126743436303522
-0.00706551447982737,-0.135819134204018,-0.0141595315145603,0.0102205376538177
-0.0129634604285056,-0.102738198840252,-0.00636164494001395,0.0088313085224081
-0.021529978361401,0.00356022613157603,0.00510071960053534,0.0101301904034289
-0.038101025021256,0.080514229554441,0.0146673504323952,0.0149705900591145
-0.0575919336356049,0.0876428480171765,0.0178285083202533,0.0197085552596217
-0.061659193442587,0.0582430264443965,0.0170191768456747,0.0189426530997123
-0.0514859979233859,0.0412030063246053,0.0147046873229741,0.0113901946278262
-0.0444870418917507,0.0355323311370342,0.0103479338224697,0.00024654555542343
-0.0499240594562676,0.00528027221361543,0.00515957515423927,-0.00976642769869874
-0.0654826645294974,-0.0521593410863418,0.00141394892037722,-0.0153941479657771
-0.0792334716954744,-0.0991409238418621,0.000796397817366314,-0.0163669435615853
-0.083384817673886,-0.108933156781082,0.00423823314526021,-0.016395815189833
-0.0774536476105695,-0.0980452044602338,0.0072172382583896,-0.0216210487484039
-0.0807690525226096,-0.0838985433372925,0.00366749094349278,-0.0324815187610037
-0.104306357055842,-0.0493712721891032,-0.0046529211262719,-0.039568283574108
-0.120440322593815,0.000835770599139307,-0.00998597601660368,-0.0342193123010009
-0.112417927531146,0.0323296643624095,-0.00910254872356972,-0.01615563100361
-0.0817658456434205,0.0277352996738418,-0.00492753716232416,0.0139004962572817
-0.0244565615998764,-0.0212077815271145,-0.000840293048707854,0.0497851618558272
0.0589344720472332,-0.0558511920897339,0.00318462856947605,0.0693229422039952
0.140766596696878,0.00375430355605553,0.00700545765541574,0.0579716689267415
0.172339406654441,0.0789202806281439,0.00649685435485809,0.0313967606760608
0.135264835926657,0.0563240614911906,-0.0023237540689925,0.0121097686490413
0.0723219275679369,-0.00351494245320513,-0.0172592574866915,0.00448133889387032
0.0344575661400425,-0.0114312483360982,-0.0300982103128973,0.00127068555714242
0.0238899244802524,-0.010339022057132,-0.0346607456790152,-0.003622974099448
0.01611285092609,-0.0342925855270307,-0.0298971187460958,-0.0119956846686499
-0.0085639540860523,-0.0272361382538503,-0.0188774644443428,-0.0221781827428684
-0.0452930354084159,0.0195651106774711,-0.00732268169775944,-0.0307632174701081
-0.0735868723047211,0.054318179127887,0.000448379552128116,-0.0346005213583046
-0.0823292599341209,0.060779691864618,0.00535299474629433,-0.0326872199155016
-0.069618447108529,0.0474165683044307,0.00935364352006705,-0.0265718571851537
-0.046368573525542,0.0263705456027666,0.012611837547249,-0.0163804084741318
-0.0284592861126894,0.00287991265537627,0.0150870900296199,-0.000159641379593532
-0.0211069440502308,-0.0340145362815584,0.0166957264157575,0.0175678058398302
-0.0191234229940966,-0.0784994765578296,0.0153686997274521,0.0256812219805597
-0.0140569421152343,-0.104499986033798,0.0104691056586934,0.0203745595658869
-0.0100099032831643,-0.0940975885314727,0.0085368121141025,0.00905700173831308
-0.0163674052069394,-0.0645227127287049,0.0104077703132205,0.000601272413949626
-0.0227344185104367,-0.0423517111998877,0.00924359934815491,-0.00171538262547192
-0.01131062491463,-0.0119736087772972,0.00316137080329023,-0.000485058105838562
0.0174800823147847,0.0506883057841454,-0.00516963779642712,0.00150654368940744
0.0415731337124545,0.117001066928066,-0.0100133814970896,0.00555091338102754
0.04001940291776,0.144598803876468,-0.00947162546659045,0.0121020854183831
0.0190222186646874,0.134488184478003,-0.00857586936954535,0.0167530275627893
-0.00457601953733484,0.117805989885154,-0.00956882658535754,0.0152192529786751
-0.0213477423098587,0.114571771224732,-0.0114699084144768,0.00870539534984851
-0.013902893861557,0.106386298748907,-0.0130617136674195,0.00177292872284393
0.0275341992012136,0.0463676419710173,-0.0132489317151737,-0.00252185114077289
0.0745828611690418,-0.0861398407046982,-0.0112734462649318,-0.00423143005687648
0.089087065395532,-0.193405628397158,-0.00692788638975184,-0.00542797570747611
0.0704337248881179,-0.164111821463122,-0.00312174929952796,-0.00733055423130099
0.0474828996501133,-0.0615245386008734,-0.00137448719875166,-0.00930914811472151
0.0364721356105411,0.00440058826139647,0.000136539027003659,-0.0109362537226612
0.0312917511803832,0.0361153223528238,0.00344988226107193,-0.011656284966293
0.01937355980496,0.0876787338957289,0.00966882689013744,-0.00976825011940981
0.00209549458628109,0.184617005149906,0.0175097751848237,-0.00520443598496528
-0.00560790686988306,0.276599750532701,0.0252892348058062,-0.00106998186822792
-0.024194259772704,0.267281979490194,0.0276654097993545,-0.000449321481788164
-0.0812721868787896,0.163451212847722,0.021301182553556,-0.00306042589552592
-0.137738245666872,0.0696256596823517,0.0100093245844063,-0.00578307489031737
-0.145213051030745,0.0215683141293641,-0.00478668448167583,-0.0053537261127185
-0.113715590399525,-0.0249424621942017,-0.0165091725409994,-0.00102421183232581
-0.0754275520832912,-0.113422619689376,-0.0182782292130167,0.00435463558065059
-0.0318993500974515,-0.244425712239581,-0.018210731615907,0.00703197631144241
0.0219162908336086,-0.314842729531293,-0.0203263048238158,0.00646153980000886
0.0459009551398026,-0.23459723979054,-0.0164402534255823,0.00457266589902581
0.0194025034234902,-0.0960051040128098,-0.00602938938583912,0.00122890537740416
0.00429571503808771,-0.00774651093785172,0.0023954304279537,-0.00466781216925728
0.043575823722675,0.03726049272405,0.00365768142680664,-0.0107922420626384
0.0856532207666227,0.0454670692649039,-0.0020421563990918,-0.0134143056271437
0.074909600572668,0.00379211781593464,-0.00681052644615404,-0.0118053640634821
0.03375633902574,-0.0438760100753036,-0.00311462728236595,-0.00814310949079999
0.0132600510633086,-0.0595981353890628,0.00563210808167788,-0.00474355130740188
0.0215882617753781,-0.0582525345859403,0.0133874269682375,-0.00280888363670248
0.0411785342757513,-0.021224034194078,0.0173707253850936,-0.00299825411140677
0.0631216891981885,0.0652589200272395,0.0193683761102252,-0.0049917437303148
0.068980828998005,0.125505846963815,0.0209216879925345,-0.00759210404032088
0.0441234470311969,0.0937429167319524,0.0198436910838931,-0.0101974469361426
0.011916392326558,0.0208627876670926,0.0169350984278944,-0.0120625241532438
-0.00573472683826681,-0.0219003248339965,0.0115758701796908,-0.00947357058000666
-0.0226339802434499,-0.0403431953620105,0.00434700008500299,0.00209398148365771
-0.0448853970433051,-0.0510653459758282,0.00273917958598531,0.0202305489169624
-0.0531979393875432,-0.0488393281148423,0.00614508889942089,0.0337717302956601
-0.0397504792063668,-0.0432052567895895,0.00471665235421426,0.0304999328396665
-0.0149231752673319,-0.0531513310674498,-0.0022821241261868,0.00955540653009319
0.0165597244252,-0.0716596132086259,-0.00485167062099245,-0.0145854996623133
0.0501826167722255,-0.078148428468821,0.000687264344472271,-0.0270588507783997
0.0743140604094807,-0.0626368925232016,0.00630004349345096,-0.0265968740988594
0.0971155099808684,-0.0331659154398738,0.00739332988874178,-0.0197495416720421
0.127134317582363,-0.0393329206788542,0.0087751320974119,-0.00888426152473073
0.140860594216739,-0.0831892738592879,0.013122521321518,0.00557188170958611
0.119501895632379,-0.0810325108666266,0.0184070791196894,0.0161168308216279
0.085210514968148,-0.0411858301144035,0.0180124105008809,0.0153699849902773
0.0649571467121286,-0.0635348136248212,0.00749380844610985,0.00615332093539675
0.0503398137341647,-0.105013728270864,-0.0051828614242733,-0.00387984900547967
0.026410680653482,-0.043738233309873,-0.0116877918737147,-0.00891159936779787
-0.00415295029860415,0.0783069914477393,-0.0120315488543647,-0.00756996697886055
-0.0218467370705962,0.143597640085151,-0.00958106901435475,-0.0022501946729085
-0.00718764968194356,0.141649410672415,-0.0063781507530455,0.00571623298890945
0.0231175230008183,0.132459958691534,-0.00125235533120876,0.0144403121884333
0.0304780885264831,0.156222923307643,0.00723015207409083,0.0192226568807962
0.0114738231531356,0.186492894676096,0.0147965695592787,0.0174566694002154
0.00298631628541126,0.161582804451128,0.0150517526416354,0.010483182630701
0.0153838674730366,0.0986260141002641,0.0119999636587255,0.00191101311582772
0.0206595337995082,0.0727558240954517,0.0126098953157037,-0.00381479055902761
0.00971976599771278,0.0810591909480827,0.014052499871387,-0.00368664925446488
-0.00490914494191646,0.0598446590552649,0.0127762812587965,0.000922399563217782
-0.0116765458472091,0.00124938374554492,0.0109971876114643,0.00438037755936562
-0.0164548819182155,-0.0551045243365859,0.00921375915761601,0.00216510916487439
-0.0384440290024057,-0.127444150311827,0.00498300742915049,-0.00437069017507666
-0.065921536878138,-0.243202559106033,-0.000393353581410728,-0.010026731608193
-0.0748782237929986,-0.320546631106649,-0.00543437601086643,-0.0102902107170803
-0.0687947623469618,-0.280725762152374,-0.0127775029981119,-0.00293356257035915
-0.0561753694154333,-0.15866366832131,-0.0201245467996544,0.00918910671175157
-0.0392540420957686,-0.0301197310402406,-0.0202496847177744,0.0179067212011079
-0.0253577427925814,0.0626400711020145,-0.0121900342617303,0.0174106737729849
-0.0145476839160133,0.10676172912949,-0.00435036845205899,0.0098743573059865
-0.00330788589789072,0.0977823860714721,-0.00401268482851776,0.00245375167355925
0.00328494821176651,0.0682885283642888,-0.00826913243944663,0.000401489044144276
0.0139769875134307,0.087066768191586,-0.0115137109063124,0.00298030454055138
0.0260141732052843,0.169344341264409,-0.00839587457022301,0.00549868445552684
0.0166319255832149,0.208030349176683,0.002290883554569,0.0034408697890891
-0.0083666385600398,0.113340499058067,0.0120133227243811,-0.004043224336792
-0.0231764983949747,-0.017953360317616,0.0144005116452024,-0.0128875207533457
-0.0118290234617032,-0.0497821150063764,0.0110587009485211,-0.0181671456916867
0.00898757183248561,-0.0183044290897421,0.00749013879032361,-0.0185069540412204
0.0163281440896451,-0.0164957801826469,0.00825151988769435,-0.0150173808987462
0.027673847942953,-0.035414389032601,0.00920773275791682,-0.00833307409455349
0.0487461738259667,-0.0754377727112482,0.00420128365150386,0.000506758361192464
0.0524501746055107,-0.157513012147533,-0.00489149535912686,0.00913075542895098
0.0395112708181719,-0.200107279041008,-0.0117919005974469,0.0173216486408116
0.0229536776970205,-0.144129956194775,-0.0104454496172183,0.026671844627717
0.00301090139094662,-0.0561524565736101,-0.00320249403121837,0.0332471899809506
-0.0136760523381418,-0.0139295580091115,0.000602397135059793,0.0287458682971866
-0.0236481278538383,-0.0296612626976192,-0.00308538819343589,0.0129151603060266
-0.0263268030381555,-0.0664063325023454,-0.0109608427163056,-0.00449030163948348
-0.0271338745390223,-0.0877385741104259,-0.0159893803740176,-0.0156940337961052
-0.0421630129639666,-0.0848901993611465,-0.0135504143535687,-0.0207377224010216
-0.0712541551112398,-0.0691093440000678,-0.00685827220416195,-0.0227747534498664
-0.0915206046983943,-0.0604313300300688,-0.00109348053064261,-0.0235274074065296
-0.0757054068553036,-0.0703695136757539,0.0026976265339503,-0.0238438340120865
-0.0187355733043215,-0.0790820781948445,0.00450497440637192,-0.0245199020549531
0.0514940061937055,-0.0583148863677615,0.00501176876401138,-0.0237851297590219
0.106377771935262,-0.02042245153809,0.00506814627618797,-0.0192466484480033
0.146452121641327,0.0139162569187149,0.00371874408884339,-0.0119443921383658
0.17609489337302,0.0713162329139744,0.0021746380264256,-0.00190292278791097
0.172830295210713,0.141778567786216,0.00370140678563226,0.0133763288473075
0.127778207624103,0.160581103793923,0.00871039574592538,0.0280895725866595
0.0625581095614363,0.144889354635152,0.0146193560899166,0.0299721816240489
0.00528521153996207,0.128605862502223,0.0173879589829223,0.0198849524285848
-0.026713196891429,0.0739573596865506,0.017282073505909,0.00970011056843303
-0.043800677808102,-0.00220532890645428,0.0165851041771799,0.00266480812734915
-0.0558900854166797,-0.0224602083531502,0.0150265478682728,-0.00561893315366358
-0.0563759485157777,0.0131216951398454,0.0141554389023564,-0.0158280588970816
-0.0414864014576481,0.0400795347210641,0.0134967129653562,-0.0244763721931838
-0.0235212221218558,0.0136854698750098,0.00807445793178889,-0.0273253324583317
-0.0178227904108471,-0.0652512506806001,-0.00474327743381429,-0.019689714412179
-0.0167634147012778,-0.112224151561863,-0.0176178907759086,-0.00152371600231031
-0.000825762153232011,-0.072144158562308,-0.0228448650066686,0.0148013001694782
0.0285522592291759,-0.0369447162562025,-0.0220817884821504,0.0149128125889462
0.0574001434392845,-0.0512099422059538,-0.0199788238165582,-0.000744528845675954
0.0789242263242303,-0.0281093854323078,-0.0210167594871138,-0.0209055116541775
0.0812428221372085,0.0492938562452687,-0.0259163780603549,-0.0361106637053144
0.0591265603962654,0.101662346889813,-0.0275494856124308,-0.0399054928017091
0.0263010280727141,0.104959925414076,-0.0190958200357408,-0.0205077255298823
0.000839047310084023,0.099494351637243,-0.00447072799311925,0.0331831000351873
-0.0126109865705809,0.104989302119397,0.00981848420099369,0.105171300497469
-0.0233333587011996,0.102903296880059,0.0200450763883318,0.150133784692394
-0.0355217293408465,0.0794143139524025,0.0238080491637459,0.13579784764465
-0.0447773644180476,0.0530710868741288,0.0230603103125607,0.0725009384262522
-0.0449307424345853,0.0411972230791788,0.0208342475093286,-0.00684464089844838
-0.0376766697598217,0.0373764506372566,0.0190889284989683,-0.0743346510793179
-0.0302370132980183,0.0226870432584124,0.0154557141551293,-0.113346721635805
-0.0260854683882328,0.000792842210340906,0.00674393795453633,-0.118935125762602
-0.0396588087314391,-0.00345287102266996,-0.000505243674258821,-0.0975717937845823
-0.0824439640727962,0.000307916711920233,-0.00228983457568821,-0.0604028601508437
-0.123779809138833,0.00277261179666002,-0.00557248028908209,-0.0174638137246573
-0.123760644027398,0.0194806007885957,-0.0123320846091169,0.020756477282798
-0.0971149327904183,0.0420394337798673,-0.0187858987135419,0.0447303725609623
-0.0846352005993352,0.0601192607213795,-0.0204143720736712,0.0527129946532741
-0.086974050827243,0.0852054099265435,-0.0140837688682455,0.0503474722008154
-0.089104158004577,0.117908013580043,-0.00579958367376424,0.0439283654835
-0.0808452796649906,0.129107364134365,-0.00153126351424286,0.0368889444478371
-0.0517905087832835,0.0729136430547574,-0.000336843078879726,0.0301168095051245
-0.00882843051257778,-0.0284337760052273,0.000228123565734884,0.0235129970359374
0.0411266681477581,-0.0647621398946003,0.00365631961294311,0.0172391189570769
0.0866591308338923,-0.0507716107221526,0.00897334146015751,0.0112286859839989
0.107461007801729,-0.105591567862617,0.00905531051579597,0.00479038762960145
0.11207071583875,-0.179483013741703,0.00404704172348215,-0.00190222514983713
0.11432063047832,-0.20015363493434,7.60580575518647e-05,-0.00763609969764056
0.100078720976906,-0.200341352126525,0.000297960852552395,-0.0104073612581742
0.0741364534668016,-0.14215736751473,0.00383723803916194,-0.0081803897979032
0.0555075298999669,-0.00619142824172231,0.00782720625479536,-0.00395614322717404
0.0235612922967995,0.113512295204087,0.00916598697348315,-0.00514415165696406
-0.0379603565494206,0.149930507650482,0.00432857763163544,-0.0132614087570352
-0.0922914163686726,0.131857200282328,-0.00121784788403421,-0.0207780157086905
-0.107479545235076,0.115961855420056,-0.00120036783955665,-0.0194407775420967
-0.0959072760540971,0.123879359915921,-0.00102740241666606,-0.00816242567496858
-0.0809209766755668,0.14680886400254,-0.00330398385344873,0.00434944008510747
-0.0678168937203228,0.164312688282344,-0.00420095094780774,0.00585811202703894
-0.0489205662250883,0.156978117717399,-0.00429798136290876,-0.0070741420966574
-0.0256110581764025,0.132584621093363,-0.00420965738795124,-0.0264335099989324
-0.00487551862684815,0.11223695623515,-0.00404596931050819,-0.041379965164079
0.0147335645383786,0.0700189265796725,-0.00559358813371485,-0.0458536344530626
0.033023118081843,-0.0218423398821899,-0.00704478566721919,-0.0388519566319138
0.0418451299917938,-0.1007829922208,-0.0063494673195171,-0.0210333534981807
0.0395486515652528,-0.109519710891804,-0.00358882044563866,0.00406125204681064
0.0383169347614504,-0.122410376422016,0.000428769336269584,0.0260768642854356
0.0412310506957115,-0.17754420606789,0.00281048996038735,0.0326302054928747
0.0348599656123749,-0.180229485947798,0.0032594763182145,0.0211533583089754
0.0214487569432204,-0.100096873444224,0.00594804432426917,0.0019388128764382
0.0180906983212982,-0.0151027227542969,0.0113880470577515,-0.0129118338236657
0.021159233362442,0.0189918335733489,0.0149199386740463,-0.0189227022268123
0.0182987518544232,0.0138390940347724,0.0129412415022225,-0.0174529783214946
0.015251404148279,0.00209877922465433,0.00768438286495876,-0.0121661155670352
0.0226263827655379,-0.00529348882452609,0.00260955231929885,-0.0074000528733653
0.038278595249412,-0.0220360959398791,-0.00227288397297776,-0.00593053515269468
0.052098436256529,-0.0401016788033427,-0.00593761852580706,-0.00705623592021822
0.0622148083148245,-0.0174841325549117,-0.00566700099699626,-0.00754276836228291
0.0674457902351541,0.0357834700887697,-0.00250738067622856,-0.00603164577020499
0.0555240467493872,0.0478585170726449,-0.00184803475305111,-0.00422884345658512
0.0249100047400012,0.00916073881372176,-0.00794964089362442,-0.00325111554823633
-0.00388478788137495,-0.0127471130814229,-0.0190868692925332,-0.00239746453028262
-0.0248785217861876,0.00241806109104324,-0.0265000730466116,-0.000727711405497503
-0.0499449095360721,0.00650774923414871,-0.0225934769957984,0.00225969781290764
-0.0724170806961173,-0.0279870800392879,-0.00904714925778914,0.00593692435710218
-0.0711429392000999,-0.0812725542561357,0.00545887716639728,0.00827296912360528
-0.0395212082200563,-0.101019838812335,0.0129492311583052,0.00751227986093445
-0.0053338945425852,-0.0516188172547461,0.0133118777747951,0.0041748589157108
-0.00366409112935008,0.024210803892787,0.0117052890355923,0.000833829639168983
-0.0318030393114922,0.0639519585359945,0.00961175026869488,-0.000471032658670385
-0.0629053159447101,0.0710166920525383,0.00663268237434501,0.000511480403466765
-0.0828634891961134,0.0593765836955713,0.0050445485334986,0.00309212584687686
-0.0910969824303722,0.0206022909496537,0.0034081132181249,0.00619924243287562
-0.082102397789712,-0.00227817060691912,-0.000429331502511751,0.00876593773619553
-0.0605769502182161,0.00775085943102677,-0.00171789040146808,0.00999434608554967
-0.044666099198722,-0.0384587766747551,0.000457454005405544,0.0096674721021375
-0.0248232632404068,-0.17247150788852,6.83297526759918e-05,0.00833350105430216
0.0198487784892323,-0.248766020606228,-0.0011645631061683,0.00678556710567072
0.0773911398472197,-0.170283013823269,0.00247456466126799,0.00539477144983687
0.116890214615979,-0.0561948999901565,0.00844590398117786,0.00399926200116953
0.122296765665756,-0.0283886787386973,0.0119340774165391,0.00250966191816884
0.0985826695599214,-0.0550215605502811,0.0127333391188162,0.0013386778941019
0.0512602129205554,-0.0686911289774978,0.0121365387146806,0.000902081785364903
-0.00900356600125271,-0.0662317134452904,0.00910429488548708,0.000970071818750467
-0.0563332074016666,-0.0492182882873201,0.0039153239477343,0.00101228733721641
-0.0777384719901298,-0.0114041548809377,0.0015869514900529,0.000607838089505887
-0.0807399753235085,0.0286177977052166,0.00494675231797886,-0.00028380141268361
-0.0789684830728197,0.0559808389610304,0.0115843627582031,-0.001119468189832
-0.0839843373016087,0.064929901849657,0.0150487508028841,-0.00124742057751048
-0.0935914614237985,0.0581894433362964,0.0121025748741333,0.000438429900991032
-0.0956511553012199,0.047671038686716,0.010661368375995,0.0046698145532328
-0.0858905088950519,0.0450225510309471,0.0127845755133081,0.0095128116252474
-0.0653323456172848,0.0506803283658967,0.0106585690323064,0.011929834117645
-0.0304512774851076,0.0535467433558318,0.0021501108270395,0.011650458365438
0.0182883383241113,0.0485687029523196,-0.00879077787715594,0.0107635816273418
0.0656997833653923,0.0223373306199315,-0.0152967357680053,0.00940526054669763
0.0835812386803445,0.000535944847767589,-0.0143779613079923,0.00573714656546641
0.0669927316194817,0.0313275875524395,-0.0129580945107014,0.000465349122060759
0.0431877570901981,0.0573690157335105,-0.0164404491413039,-0.00336577713139541
0.0272800995437666,-0.012509045507588,-0.0186986307668092,-0.00493162198421357
0.0191050644520019,-0.114004051937096,-0.0123892333748345,-0.00628259412993301
0.0133989109646406,-0.118785145993076,-0.000915744516772996,-0.00868883301659222
-0.00248069819982868,-0.0410029945107857,0.00751585376238902,-0.0111964988865559
-0.0250219888178827,0.0272637061654697,0.0126532831306162,-0.0127713160692229
-0.0344160810469895,0.0149358218849145,0.0180422161539437,-0.0134842562603064
-0.0171781221464112,-0.0898841555047803,0.022026294389366,-0.013366245667222
0.015652876798502,-0.188491580276236,0.022286288908192,-0.0117999698656863
0.0376960660805805,-0.184619352642388,0.0195924066883614,-0.00909935975642825
0.0382290301152627,-0.119955294267986,0.0164029625104291,-0.00719270650563303
0.012911310011328,-0.0630782285650398,0.0138953021205053,-0.00688320556848264
-0.0308095510484401,-0.00550226822946456,0.011663840308094,-0.00633181515292549
-0.0679527548101551,0.0244166300990983,0.00893056643987037,-0.00347886106172774
-0.0790449757581231,-0.016070352821644,0.00534858841401799,0.00444568446215994
-0.0593354305260474,-0.0581610161445068,0.00429049134004585,0.0186081258331899
-0.0244981587847794,-0.0412430994613621,0.00578916721107857,0.0284301655945712
0.0106552390026251,-0.0036888779631862,0.00110589856860972,0.0207343553865501
0.0461472779129611,0.0209844226310459,-0.0149493436246004,0.00122688164259595
0.0776629379288186,0.0383292760881496,-0.0317811439684211,-0.0129356355840083
0.0924015454818169,0.0529976103879131,-0.0353031602161381,-0.0130516616031581
0.0946558146001282,0.0799959188478711,-0.0277047525951664,-0.0012631385417937
0.0959017261890796,0.135571322860243,-0.0185660781835957,0.0142726229226481
0.0777580359849404,0.165661565931502,-0.0124300295195237,0.0236143797077801
0.027943821881635,0.113204974681888,-0.0083724689168776,0.0201739385233802
-0.0220937189279237,0.0321763902661324,-0.00355835983232939,0.00501866457515714
-0.0387778985370501,-0.00744623881277989,0.000238734069324779,-0.0121420442538528
-0.0279566849850496,-0.0174384830722771,0.00170702748832769,-0.0197748674725829
-0.0182539500404812,-0.0292578454385371,0.00237704524438309,-0.0146682725436401
-0.0185668606827345,-0.0507027649332147,0.00212780811708917,-0.0042138910241108
-0.0212006859638098,-0.077862284931167,0.00198495589854912,0.00150141035353205
-0.0232195404895459,-0.0928625423699964,0.00412489682677216,0.000806565099656879
-0.0177327525946983,-0.0893275291888514,0.00649387038315219,0.000876030332132031
0.000611330308890736,-0.0706032187990437,0.00700312397239075,0.00630753352602809
0.0251153768437567,-0.0309170794741342,0.00787077141323745,0.0128335218769378
0.0432648778224368,0.0127967219618645,0.00791121238505047,0.0136203798749394
0.0529438844267149,0.0435965408353283,0.00399081536163617,0.00815072791770611
0.054751244077232,0.0798864104790361,-0.00146883213403779,0.00165380119405667
0.034243974659964,0.127955982892114,-0.00378850281183557,-0.00157895323113956
-0.0021966340552964,0.194159296186858,-0.00084553361891077,-0.000921710564236107
-0.0301988427188619,0.284613489839716,0.00382222609201815,0.00168469446138074
-0.0555240328911365,0.345669100152505,0.00494033406218101,0.00364681962579839
-0.0859206089040614,0.330166439936383,0.00353337189307585,0.00404899454125478
-0.100415498031798,0.265666241908492,0.00208811592295905,0.00369860245358175
-0.0867339294574001,0.206066523114815,0.000759096874439591,0.00339184472056573
-0.0598759074077139,0.153304877409956,0.000530439633050668,0.00352852551613404
-0.0288769901376188,0.0641458447083876,0.000897711239891248,0.00409618434468921
0.0177699688126949,-0.0544298836692505,-0.000115024956023564,0.00472266223391748
0.0773560215411329,-0.173791011096827,-0.00435132945081829,0.00516048222657754
0.119980897640461,-0.328739667957455,-0.0134243274600816,0.00535139278949622
0.13446938999437,-0.484953909189685,-0.0230113104150475,0.00491173153197826
0.137638969506457,-0.473054275718036,-0.025920200011987,0.00341632111883158
0.126155753700334,-0.210707825626251,-0.0203624308902015,0.0014696190781129
0.0817556060876642,0.127540697819784,-0.00950893860992027,-0.000163860153398385
0.00986739021283803,0.288438090192777,-0.00159841051765056,-0.00142786480052202
-0.055572139629796,0.258380174843922,-0.000466001363423941,-0.00175462524088071
-0.0847316548065707,0.202635050412684,0.000128148384380649,-0.00156219515040473
-0.0843271801983781,0.179419424860061,0.00333783081680282,-0.00358970725585056
-0.0747644125648302,0.154833583884133,0.00617423090326963,-0.00816915172737602
-0.0613406708865391,0.13081030209496,0.00684060130830694,-0.0114840691685596
-0.0447900386634077,0.119865740243005,0.00703428128833675,-0.0112718115115027
-0.0321140410828046,0.132108950354853,0.00831336347288713,-0.00972233620019175
-0.0261811465282156,0.15903817613818,0.0107851586576351,-0.00949536559990135
-0.0193446459248332,0.146858826668253,0.0137881310774106,-0.00956712041304692
-0.0115542497647539,0.07507348275095,0.0148567836267636,-0.00754207561643706
-0.0190022862203477,0.0124049215244426,0.0137174598248371,-0.0038584455813489
-0.0424685041153329,-0.000621219869268552,0.010153725875574,-0.000695054654389134
-0.061143540788685,-0.0154582819053718,0.00515763828310095,0.00294079221917667
-0.0686794995051604,-0.0547717729649394,0.00307242852832888,0.00943622236979795
-0.0759123438558624,-0.107793854611396,0.0018933826000138,0.0116305074692415
-0.0790528561872203,-0.177527015454706,-0.00231179097472882,-0.000137421239150646
-0.0593978556309427,-0.233654613159441,-0.00572320822339605,-0.0191411231561701
-0.0146778055971595,-0.269420692338332,-0.00437261337196547,-0.0306236073267988
0.0356401794359806,-0.303450098257705,-0.00307194076018034,-0.0306796642488412
0.0767891111639766,-0.293378471551529,-0.00475028150475096,-0.0243969061000533
0.109777968159076,-0.183105417422048,-0.00423013217865296,-0.0142777805284626
0.132409519240267,0.0148932278283202,0.000322178399319185,-0.000973044007709666
0.136356983712351,0.169301806892906,0.00387916167668557,0.00913208928828187
0.126188645866559,0.159895572156729,0.00103952534412317,0.0115783334539917
0.113326017058842,0.0542841800794847,-0.00615643523735628,0.0145194213132344
0.0903434392606647,-0.0612034427448104,-0.0110436971931507,0.0243971581806949
0.0501961757738842,-0.174147763756985,-0.00985594695769647,0.031780383744867
0.00786314577207869,-0.202666479304396,-0.00532325242697606,0.028395456090727
-0.0263788229520589,-0.114124333931232,-0.00294890349344916,0.0201523338689105
-0.0510126640998188,-0.0081106396673041,-0.00491515052151293,0.0135289067704376
-0.0605797949762306,0.0523387109585108,-0.00567119633259546,0.00613015033784185
-0.055561872797107,0.0757527493666153,-8.2170065398967e-06,-0.00631622704873609
-0.0428678888684526,0.0737158437186501,0.0071247061155075,-0.0223133410673003
-0.023286027708497,0.0500926510516235,0.01216969239777,-0.0355270128760214
-0.000634462251625282,0.0126308113778123,0.0161571940980163,-0.0410399191119722
0.0127964066532546,-0.0253050744879659,0.0180737169319745,-0.0388103713751419
0.0162885147518234,-0.0664660386112713,0.0159196661174948,-0.0313356891163508
0.018158415747377,-0.119475198096314,0.0114791432919491,-0.0201887320406173
0.0207909034692683,-0.160457127966817,0.00717872378679951,-0.00681148239770176
0.0229394420525792,-0.161558874726862,0.00173382006895555,0.00655718071147759
0.0313236095504549,-0.136631584599772,-0.00455011492877088,0.0192733631272045
0.0541658905681287,-0.104767725387536,-0.00825183741751049,0.0299756348190635
0.0722636632331641,-0.0590446760643537,-0.00858553163882656,0.034268853876818
0.0557637884678278,-0.0104975845058927,-0.00677641439828415,0.0310659236124272
0.00430862102285208,0.00568653603102554,-0.00252398391246498,0.0252279664741945
-0.0547657070314408,-0.0213638030770007,0.00080558944539413,0.0215332105386818
-0.0891946636417101,-0.0549696537725688,0.00124860795136734,0.0202680998333687
-0.0836251139107167,-0.0493258979555593,0.00361846772027025,0.0178451868087215
-0.0502387371913013,-0.00833545458161383,0.00851405093178428,0.0110747467165593
-0.0154742310801931,0.0349438671086464,0.012383395924096,0.000645137568507266
0.0112492266039523,0.0652052486038988,0.0133535668157114,-0.0099883754821852
0.0323953778070385,0.0697440087992216,0.009341904618861,-0.0169145372076789
0.0362147742687288,0.0443304111325643,0.000235763533610642,-0.0177371357913406
0.0245666077632858,0.00735752326620881,-0.00987628994267281,-0.0132149164762172
0.0241855825074634,-0.0355126137656838,-0.0147709435847812,-0.00664200682204715
0.0493554516922586,-0.0616695946572005,-0.0105835969083821,-0.00062115669897965
0.0804836401877886,-0.0469452212675322,-0.00362035035037933,0.00356079028883242
0.0829142409440251,-0.0362558610001434,-0.00261008787246869,0.00327365368959524
0.0548926355609092,-0.0533373305033933,-0.00719970593568473,-0.00126270398106407
0.0200567039283964,-0.0537435476127715,-0.0128755322309456,-0.00253320503869798
-0.00975844192566193,-0.00428267169581611,-0.012916237983103,0.0041700215146079
-0.0242617357410143,0.0717408373770651,-0.00621726854543678,0.012332471735655
-0.0202981810813381,0.102570511884898,0.00222276009547631,0.0137666724388171
-0.0174831560877801,0.0389962782463709,0.00943339289390525,0.00796961053996306
-0.0318129752101225,-0.0639123968481878,0.0115270242303493,-0.00121381253758439
-0.0487527479271735,-0.0860830513476119,0.00968392717808038,-0.0103504825621602
-0.0455557981342836,-0.0172936470318958,0.00663561127301345,-0.0161821498882794
-0.0319629370295359,0.0340138169992342,0.00137329410337217,-0.0164716558408621
-0.0272405632369342,0.0250436479227487,-0.00486773320576209,-0.0114991535339026
-0.0213912813734752,0.0130516985604915,-0.0118159026113992,-0.00118415765261971
0.00338906990794515,0.0454520431334095,-0.0153580376882652,0.0134400891634665
0.0441337996527516,0.102365063493345,-0.011874788044237,0.0229610948762922
0.0845000835540828,0.124394458410942,-0.00723165593968132,0.0167296055108589
0.0922968238593784,0.0857226473501006,-0.0057025163155254,-0.00123016129129471
0.044497206686622,0.028395177710533,-0.00571112339662843,-0.0161656499121151
-0.0254901515960892,0.0167252026560732,-0.00620176303060196,-0.0189210774752838
-0.0716579636249626,0.0613728944705587,-0.00512133117799472,-0.011904726691433
-0.0787099608293759,0.0787234124955544,-0.00210573609362323,-0.00375814129728601
-0.0511606728797512,0.0128196434501945,-0.00213471844956847,-0.000300761881117299
-0.0112507059880111,-0.0547617519969625,-0.00437244575881906,-0.000722209567610622
0.0172316467466249,-0.0533962343755808,-0.00516356211159728,-0.00235096402658032
0.0264088998678363,-0.0206369076014815,-0.00436982931456903,-0.00515053800425142
0.025012303194973,0.00768488545301085,-0.00148995189378644,-0.00951602594648234
0.0223155931855353,0.0395629021159824,0.000945556074370256,-0.0129499615798139
0.0173397860682429,0.0676199537638407,-0.0014536267535883,-0.0123260695099914
0.00862519003841514,0.0703976069030314,-0.00741440044464963,-0.00733953718850087
0.000229908441284895,0.0468813256049764,-0.00975005527729577,2.93678879941528e-05
-0.00435443386422229,0.0123709464752086,-0.00447722519087499,0.0069750103657404
-0.00993566104135307,-0.017955080440094,0.00336176664379256,0.0113987154431574
-0.0186653496155547,-0.0387265720312781,0.00613210527353041,0.0131696890726302
-0.0211811034599786,-0.0552687043090514,0.000553883206607127,0.0133919401352505
-0.00827795816111236,-0.0831866592665287,-0.00993239645336318,0.0132979430565058
0.00924929519125588,-0.0978416862340387,-0.0158596461690571,0.0128938225021272
0.0145650409461102,-0.0320956027246823,-0.0134501694351713,0.0105728198741381
0.00923733186645773,0.097873879223931,-0.00924105310086077,0.00532850601362115
0.00359950238548869,0.191979570756907,-0.00700819530779777,-0.00177405580257414
0.00484598518275468,0.208874789604472,-0.00839716999706187,-0.00836703834348212
0.00824597227822311,0.182700023080214,-0.0134171064687893,-0.0131600637691668
-0.000974189704035467,0.139389856854762,-0.0158507404656242,-0.01847962273542
-0.023050211961584,0.0778585387738832,-0.0133720951870694,-0.0257703807964036
-0.0382229403041983,0.0111183282561373,-0.00806537909135638,-0.0299431442068586
-0.0389461022516921,-0.0216420295569386,-0.00109050542146025,-0.0257175043259563
-0.0326702744248943,-0.0118966568628005,0.00606630200132552,-0.014134372606746
-0.0205195524893852,0.00077839874631988,0.00972008597376339,0.00154785052505977
-0.0142837803795704,-0.0142715190065166,0.00880763058921251,0.0176913975825613
-0.0293283441966307,-0.0725321873741164,0.00486000165860912,0.0266465278098348
-0.0659323607055823,-0.173456528740557,-0.00330560168258278,0.0215217508316486
-0.130698324045914,-0.221503195593669,-0.0104509975497129,0.00578175611087854
-0.191787982787438,-0.126776614385024,-0.00942342043614993,-0.00921007714688852
-0.181725604338584,0.0106863692469065,-0.00657930788381414,-0.0145926606921679
-0.109786902669368,0.0718832984647845,-0.00918825520374873,-0.00799890045395065
-0.0418149764134255,0.0889520914047293,-0.0121003864429639,0.00540096702699744
-0.00627664266543193,0.119086001611417,-0.00953573729784365,0.0147744666825354
0.0122529126199175,0.154872621301768,-0.00360484580012872,0.0157846367009725
0.0361310130074991,0.163899042069571,0.00113415344466601,0.0158931327806101
0.0661657188746193,0.154026696999948,0.00306247652024764,0.0218567097693256
0.098028018136988,0.162443207151874,0.00288283854831405,0.0325024922727222
0.127458507439806,0.169568116816396,-0.000248218866464566,0.043738638195343
0.135589771169802,0.139741116341285,-0.00509013531534541,0.0469484281664118
0.106998425091496,0.0968373961787933,-0.00856938012160841,0.0309975414135488
0.048558510980318,0.0375539492536832,-0.0109350645999318,-0.00233195286069968
-0.0157443765869962,-0.0429255418819298,-0.0112104755299725,-0.0365667457626878
-0.0585802641414035,-0.110523145483136,-0.00926613492660623,-0.0566868142787803
-0.0607313562733162,-0.183171700015543,-0.00963820593431488,-0.0588590806722803
-0.0353329510688578,-0.230326748569941,-0.011818514894785,-0.0477746843112619
-0.0172674919715811,-0.174118232839564,-0.0101633928571512,-0.0307643553232353
-0.0161906877609818,-0.0648735725630683,-0.00579088832175401,-0.0136631161353078
-0.0192554521582739,0.00378557017629796,-0.00331957869506327,0.000766697610306635
-0.0181148074417266,0.0272485067600104,-0.00305441486533271,0.0122102174581066
-0.012794626028805,0.0356365918045443,-0.00247520438170243,0.0210217979548804
-0.0107411302967427,0.0337041719533312,-8.08970011415954e-05,0.0262432495535188
-0.0149458573167902,0.0337727580036064,0.00179455281329473,0.0271946661335187
-0.0205813687429734,0.0545458157118325,0.00303607566881579,0.0258674654037754
-0.0213233331682906,0.0713129282242993,0.00671374272506248,0.0239340416295367
-0.0130095105344785,0.0626673026655026,0.0104928245599972,0.0205631962073631
-0.00281601566066985,0.0476010497909698,0.0106646599001031,0.0153930273469823
0.00209215921530165,0.0355830868657394,0.0088429926423822,0.0103041254715725
0.00901318431882894,0.0176026190957408,0.00857088071479348,0.00728863832723345
0.0231536694683081,-0.0067401517018243,0.0093731780966503,0.00614103599251143
0.0363202194397622,-0.0437979014406168,0.00899773296898796,0.00397705044367967
0.0458518676258196,-0.108550826091697,0.00721815580979886,-0.00203967543737558
0.0580113632239256,-0.16095773929821,0.00252158670795841,-0.0104611191115545
0.0761770900442418,-0.128942392256031,-0.00385779929943569,-0.014614868781667
0.0939409454029005,-0.0346526859395054,-0.00641576881594035,-0.00929059667058062
0.10310124106792,0.0185272162691096,-0.00330725008564891,-4.16129799675688e-05
0.105802963538437,0.00561174296312954,0.00236610199961992,0.00265237729688377
0.101379578912535,-0.0100738657783391,0.00618748206272111,-0.00216894781848216
0.0849151896796491,0.000306344212920445,0.00822989873413343,-0.00748099538464088
0.048477727193558,0.0276864618389414,0.011097197162349,-0.00933253181689205
-0.00671204350447664,0.0411621303355147,0.0122309463674086,-0.00898151425050173
-0.0552359530003752,0.0141259657112867,0.00751354057081445,-0.00839356021509837
-0.0776695326583112,-0.00860028293422672,0.000722494323292938,-0.00843313893478433
-0.0746766867677994,0.0220555546456065,0.00165575562814269,-0.0101557788031241
-0.0606191572009875,0.0735606506841827,0.00911572646510211,-0.0139169763226868
-0.060165698859473,0.0813443768019111,0.012917678799573,-0.017086860427306
-0.0780103389937422,0.0348932965685642,0.00864116463265924,-0.0158452345430428
-0.082926177464272,-0.0392198799965498,0.000420628989239837,-0.00939933117102554
-0.0575080571983493,-0.112984675604159,-0.00456600087461304,-0.00113567935676113
-0.0223032240918632,-0.146706115957448,-0.00587127467746455,0.00392681265373331
-0.00661066507603236,-0.131203837926097,-0.00706374954123804,0.00355782301273034
-0.0255393246104048,-0.0827772716661902,-0.00649559331061905,-0.000742813130491336
-0.0557123335411921,-0.0166687562490281,-0.00269589669599885,-0.00738419144256878
-0.0584422803417371,0.0363776082348096,9.73414283316348e-05,-0.0145484415914185
-0.0304469860880656,0.0513636151846997,-0.000345084405858403,-0.0183313916642336
0.00286128739923749,0.0440534577149207,-0.000911934312964748,-0.0155818281146763
0.02458174208961,0.0581605307954023,0.00225609893945809,-0.00582056599270101
0.0135236025455884,0.0818968468488398,0.00809084854572677,0.00833491348363143
-0.0385966313396819,0.0468719369369218,0.0136115624234191,0.0208287632126571
-0.0871634008311395,-0.0659441335802733,0.0141379601288534,0.0247923760476505
-0.09786968200868,-0.184851401555659,0.0089371319797637,0.0170128194918595
-0.0798610795766786,-0.20678792948035,0.00689090222742498,0.00220330126555791
-0.0462801095195328,-0.121678756995935,0.00986372188664532,-0.0101569712580068
-0.00743899707366409,-0.0311875267892511,0.0114616316613697,-0.0147012749120852
0.0141696270754458,9.23690206455219e-05,0.00877655125509899,-0.0128822660791541
0.0088231324076865,0.0386996841175174,0.00361853806901032,-0.00962375844628876
-0.00883553164160539,0.154025434208859,0.00133933857489913,-0.00861613245790729
-0.03407846662426,0.292802978940191,0.00492298801166311,-0.00960467725319741
-0.061242651116736,0.346021414115085,0.00978757603447146,-0.0104032500061236
-0.0689980651238366,0.268847793804412,0.0103085692479723,-0.00935763230474085
-0.0420151557423825,0.139028750138243,0.00506087501070225,-0.00559984799028039
0.010612531365898,0.0495900468405366,-0.00347254731887297,0.000224073323501077
0.0568740090750317,-0.00140639418459176,-0.00936783903664374,0.00520709903648984
0.0735045476390869,-0.0431886981495431,-0.0094085786280567,0.00668072545645899
0.0733816109469923,-0.045844909199248,-0.00455697163113508,0.00497441759377514
0.0644578020726739,-0.0497009540402157,0.00228246912817179,0.00131949561635018
0.0369375340950667,-0.221568526487648,0.00324516409523477,-0.00262711930643413
0.0161897698377227,-0.476446202479023,-0.00629719530910871,-0.00262125335052116
0.010008535954584,-0.468827835200168,-0.0175374547488782,0.00377433691393358
-0.012572534852941,-0.166507207800513,-0.0187162458248326,0.0121939914334671
-0.0329255781680551,0.123388657056871,-0.0116543481861903,0.0170654054638186
-0.0287216511597417,0.236364147868423,-0.00225452683554142,0.0185542866749592
-0.0310710865317389,0.242851615754532,0.00959721836358919,0.0179786113795126
-0.0467714185473243,0.218083739393834,0.0177321169386548,0.0134175509675008
-0.0487484934859814,0.164847486090707,0.017499837543061,0.00487697855984051
-0.0283359985107213,0.0863264572545314,0.0149981802395185,-0.00433957766910734
0.009399921768272,0.0138573262115022,0.0140297484123598,-0.0124305415730803
0.0549463004040064,-0.00315432675508504,0.0118844518166652,-0.0189017047555053
0.0928352151783041,0.0269821394031919,0.00849130102365263,-0.0219817471451254
0.110018336880282,-0.00274719350981196,0.00602757400022584,-0.019475380479516
0.104886165667743,-0.106093055678151,0.00395861838844607,-0.00824470011135691
0.0907055004840261,-0.151715056780805,0.00152646471115466,0.0141246486371523
0.0803142985456911,-0.0973049679769444,-0.000852313104714087,0.0398622706480545
0.0643895254461946,-0.0223889148440143,0.000655273262031731,0.0512758956820006
0.0309015068544631,0.0246138508704608,0.00807197738570315,0.0393956218283253
-0.00415474998380931,0.0450176613477867,0.0150226914197395,0.0141511643878088
-0.0141532926238522,0.0466864079274446,0.0141875112366572,-0.00838038660806222
-0.00300903347168001,0.018067720240154,0.00594476797725985,-0.0206980871652049
0.00989201799198063,-0.067033190026127,-0.00371074867355044,-0.0234621691226302
0.0251609584864392,-0.162619262052523,-0.00918661341612255,-0.0179278306672184
0.0418676988595272,-0.16576609207607,-0.0102707283018532,-0.00711727598339168
0.0431575976903075,-0.0928868320666598,-0.0104489528912294,-0.000244809758607835
0.0241603427470307,-0.0591944628943009,-0.0119712281721583,-0.00242466614360272
0.00839244505152663,-0.0838392191577635,-0.0150328677661648,-0.00617058326340801
0.0214420138218118,-0.0981533064489502,-0.0169669950432344,-0.00353328058525424
0.0646464897305917,-0.0832310122672728,-0.0133052853270402,0.00378776790538665
0.0981836816180086,-0.07635303891655,-0.00294410953224654,0.00924695571642226
0.076865526717616,-0.073811019977644,0.00818213397959576,0.00891128485911861
0.0185931944994122,-0.0408965858222162,0.0150272936117903,0.0036812926629736
-0.0259229809115826,-0.005730570832854,0.0172251856021628,-0.00356350018238963
-0.038877928815425,-0.0132559498101605,0.0142834298446303,-0.0102416194160622
-0.0298644055210666,-0.0400557032140039,0.00819362682320368,-0.0132728995102541
-0.00987937596372953,-0.0390680222057225,0.00393767367483506,-0.0105537638652028
-0.00232601969013919,-0.0138118300605599,0.00279157699815568,-0.0033767493916238
-0.0225142749871173,0.00333617273206088,0.00105395781480967,0.00414205949618733
-0.044597066348767,0.00419455253535412,-0.00297839889443765,0.005091585601559
-0.0347253095948442,-0.0183850777700392,-0.00540790616403975,-0.00623683543176664
0.00396970159188498,-0.0372790021446035,-0.00241152119427323,-0.025792352577279
0.0376373784460072,0.00324815922143606,0.00303034328286893,-0.0418554179606848
0.0454533514665645,0.0702949842857447,0.00538171231503837,-0.0449788776817831
0.0406082880156812,0.0843105526913019,0.00380017556937248,-0.033608427717247
0.0412031944586181,0.0328193000517179,4.96178271098668e-06,-0.0151153545924189
0.0417955563316389,-0.0312270736941965,-0.00341051365271123,0.00717139740822424
0.0305628187477663,-0.051772489973271,-0.00109904465617535,0.0453017558053561
0.00894823607993633,-0.0342425080055123,0.0074176464484647,0.102132272006436
-0.0109511616938863,-0.030773722431056,0.0113309285344866,0.145990978795195
-0.022934313665507,-0.051766497502999,0.00494374413757639,0.140971119711034
-0.0279618705395186,-0.0638516509897295,-0.00529322223807649,0.0888860555320393
-0.026076829849735,-0.0540507813099545,-0.0120306766334741,0.017874163546825
-0.0200792358840208,-0.0313001997945274,-0.00993954886369309,-0.0480721079298461
-0.0140881431760923,0.0101965799414612,-0.00215836140471508,-0.0939940199956679
-0.00875523694930265,0.0755064634011137,0.00127460814999649,-0.111164825896011
-0.0018273182901695,0.125795563803091,-0.0050654329647509,-0.100730765930182
0.00313550515453635,0.135228920019623,-0.0176933421435028,-0.073111076555958
0.00608811890392326,0.128488169503571,-0.0275702065951044,-0.0405411813852999
0.0146112110678918,0.121344778279047,-0.02691822530081,-0.0114051168157579
0.026124441610729,0.114412778555245,-0.0150098180731142,0.00908083542827615
0.0303280828437424,0.103382313063902,-0.00162417700359949,0.018842380661038
0.027427444789659,0.0855642675973661,0.00494242666431689,0.0221976421310391
0.0219086492732693,0.0667248255663093,0.00648559812770901,0.0261421326105374
0.0140602801349335,0.0385956001774645,0.00588686608921509,0.0314392813439847
0.0077273136922582,-0.00413400007915583,0.002610715522958,0.0336827020926931
0.00324968346393103,-0.0470216954655983,-0.00245377810635069,0.0315039157712669
-0.00170022504624576,-0.0643238626509142,-0.00527122955460936,0.0284345469077331
-0.00703954884352101,-0.0405761563392123,-0.00574593914691617,0.0278675563135759
-0.0174408998352767,0.00327217844817326,-0.00560341930461283,0.0290545973667234
-0.0316036392605274,0.0403795716158294,-0.0036780836161233,0.0286778651534633
-0.0343051440422415,0.0604459215465152,-0.000655860564120998,0.0245912368673159
-0.0209208050791173,0.0621665690240541,0.000316742036005912,0.0166185502221193
-0.00759920309656614,0.0537794533617869,-0.00137092796508387,0.00613835729558181
-0.00527411531743015,0.041428577225084,-0.00274725172442323,-0.00427893357963787
-0.00508856805011884,0.0330358060809916,-0.00372989426077789,-0.0125446851988218
-0.00202726069260034,0.0399374189078011,-0.00436312154008901,-0.0175366017774775
-0.00391426306047035,0.0553709153424996,-0.00395390936854465,-0.0184384279425729
-0.0106325019094989,0.0584772622973837,-0.0037174313719079,-0.0160589604687997
-0.0174838479215058,0.0364941032389751,-0.00324254824650592,-0.0138636694494198
-0.0229350630763628,-0.00299503520991895,-0.00434404488501105,-0.0143326101308169
-0.0264403498230203,-0.0237372262530106,-0.00731095026149374,-0.0163500236180591
-0.0282269983140548,0.00850242144736899,-0.00759587988976582,-0.0179076498820551
-0.0263298434513926,0.0688419787948602,-0.00277638635384444,-0.0183723427901074
-0.0223647158147985,0.104028079439925,0.00407241286006996,-0.0179795932735359
-0.01878606164915,0.087699754127968,0.00660397542909917,-0.0165028116983518
-0.00985508759188549,0.0185059161301028,0.00287005585475009,-0.0136183786812596
0.00344298190429932,-0.0413484395949075,-0.00219204428845866,-0.0100211184293068
0.0104577694722709,-0.0226738075276512,-0.00233566738523902,-0.00662562850325903
0.00596624611712921,0.0329322304248292,0.00216337324026478,-0.00392588046774104
-0.0120017248845998,0.0541322046548948,0.00553187444421149,-0.00208858567247452
-0.0376688397380857,0.0327574977963527,0.0047151443458882,-0.000783864005041351
-0.0609987135615589,-0.0353325374531958,0.00066549219483668,-0.000414085932027132
-0.078981153083384,-0.162994843669763,-0.00144879747609434,-0.00252645681955639
-0.0807437656815788,-0.273222028972414,0.00125649053378917,-0.0072178499736678
-0.0570298646082763,-0.240681473691447,0.00616428159307926,-0.0116519597205915
-0.0309349035502258,-0.0778666432965938,0.0115817546985635,-0.014329564674314
-0.0331134001399371,0.0595429490737145,0.0131997880373499,-0.0183661715139227
-0.0536719834522004,0.0738480005734934,0.00801439171214902,-0.0231098647558118
-0.0611850350137982,0.0232762542372617,0.000590023791359098,-0.0206408967079339
-0.0456014112811247,-0.0192942143559118,-0.00594205443143759,-0.00812207848037703
-0.0247430103263375,-0.0377548919228566,-0.0105284638422866,0.00783877678126575
-0.0146928095825759,-0.0087050710546847,-0.0076070371517547,0.0173994335935527
0.00496884765335315,0.04974005481566,0.000496643425814118,0.0138541927173234
0.0419746422658073,0.0658033104937819,0.00398659655188765,0.00108635923278431
0.0558197016851025,0.0287052229686043,0.00426740471638226,-0.00979349956359143
0.0287677123228329,-0.019581019985579,0.00560604188346888,-0.0104324342605161
-0.010826145564376,-0.0666142940041732,0.00559204734622826,0.000230430917848613
-0.0331399380339016,-0.0909376507583842,0.00415557211093703,0.0127901017615502
-0.0332746099463717,-0.0622417075416856,0.00366543648476585,0.0139346643746796
-0.0277675388431815,-0.0118690502837759,0.00437499122308726,0.00172320479170902
-0.0251951818151005,0.0180384993439103,0.00419566488098809,-0.0136119478522355
-0.0188901797871152,0.0260115384177708,0.00168406961483037,-0.0225927201660488
-0.00863897627801789,0.0223171227528267,-0.00117934445913558,-0.0229288202267886
0.00269240304434549,0.018679337605093,-0.00189452017045968,-0.017194036065083
0.0190372383406251,0.0177583350501421,0.0008242840067202,-0.00939630843245229
0.0357618800742199,0.0116924848888922,0.00412704669927828,-0.00260924263301446
0.0323583177608742,-0.0018693357875264,0.00462715227075923,0.00233051697062629
-0.00370299769353442,-0.0106805988028721,0.00370522070871252,0.00601450389932602
-0.0549456614550611,-0.00722164653145888,0.00285560826273596,0.00874610951430276
-0.0921796277064423,-0.012513735485885,0.00170038366121239,0.0107421588539673
-0.103403347401026,-0.0559281315361969,-0.00128782293363987,0.0124796243733986
-0.0937644167451935,-0.130069768352016,-0.00629318703934264,0.0140493643229922
-0.0622876943070195,-0.1891019785077,-0.00983142349380993,0.0151612366352142
-0.0169030578299597,-0.191991094666557,-0.00977593924376782,0.0153096206857498
0.0146913572112894,-0.135121105166833,-0.00721056352445852,0.0141456219884727
0.0325210703761719,-0.0544841131704515,-0.00447568465933852,0.0124143281009092
0.0563885297640216,0.0178994705214745,-0.00352664336885564,0.0111374587509779
0.0830108367083445,0.0755247947251184,-0.0040209014862375,0.0102505085189372
0.0986857343770239,0.124280043262805,-0.00443648098278034,0.00954624937506198
0.0978934965916071,0.153869748397408,-0.00293821509444469,0.0086788276038558
0.0730237318687507,0.130095290722118,-0.000338252914242929,0.00590866109875977
0.0216913044543384,0.0845363687332983,0.0027560985578961,0.000631824400704007
-0.0351408203395314,0.0735697403815034,0.00690465683657591,-0.00446123788097031
-0.0703795553663836,0.066284440936374,0.00773840639648671,-0.00638265207345066
-0.0760495570585302,0.0354900954631458,0.0030845728077269,-0.00320476628722067
-0.0722515483910696,0.00664114191582273,-0.00138823144450917,0.00703328681420539
-0.0714664072872985,-0.0284821499226864,-0.00128811340912433,0.0201653023898938
-0.0533116150666888,-0.0928358297575428,0.000424355570719415,0.0239091097551518
-0.011344065353814,-0.143452562362078,-6.46739341468115e-05,0.0142216301009437
0.0349917355958805,-0.136769949288908,-0.00168492087164485,0.00149013616847776
0.0694479290874897,-0.0936415439189157,-0.00298353424179839,-0.00553756040919106
0.0860254366614042,-0.0293655664656981,-0.00356202979317785,-0.00720352032715121
0.0882654360052353,0.0573596183821665,-0.00540132660938804,-0.00597564047641076
0.0745124713092706,0.112546388735996,-0.00862424140702189,-0.00328105177861347
0.052881743539383,0.0783999626721885,-0.00859583241967361,-0.00117262691544804
0.0466603031526812,-0.00197227935858876,-0.00671970501470519,-0.00146679945840784
0.0525876157794826,-0.0440686425562599,-0.00588544815078946,-0.00355454691708835
0.0530610102616316,-0.00260502722582805,-0.00521837867580952,-0.00501872343249527
0.0400235279066839,0.0971001441072123,-0.00319523297011511,-0.00445374407179937
0.00557392450653507,0.150931663256874,0.00139005366376436,-0.00249321225369965
-0.0425154116963781,0.112990603176885,0.00441638412432896,-0.000462297653454201
-0.0669518341178597,0.0481863975539748,0.00312763258448594,0.00101345799201208
-0.0501045311396408,0.0116657389614113,0.000383181362303855,0.00180456475673505
-0.0210162207654592,0.00765141949533195,-0.00203317943625161,0.00173064434362093
-4.16108326775563e-05,0.0183102706044381,-0.00565317585418534,0.000991732617168025
0.0185376123712427,0.0334163736427205,-0.0120701441513267,0.000427579584257431
0.0328301631057849,0.0485356634261779,-0.0166977978719874,0.000761754882877894
0.0362094664416441,0.0623607557833349,-0.0146918004385601,0.00158002782113353
0.033458596054656,0.0886052842798215,-0.00755506956971959,0.00204100958095443
0.0312829204020777,0.124217181385705,0.000899260147043468,0.00178286858603888
0.0295092715235493,0.145126553267062,0.00632282787819885,0.000754212520837205
0.0263866537652079,0.14372243825555,0.00768536478624545,-0.000736935285697677
0.0257947166731426,0.0951023578158827,0.00755209112501353,-0.00207049806470729
0.0311708569431957,-0.0338295307078916,0.00624041651986255,-0.00271414368476499
0.0366098364674904,-0.138865194319024,0.00523596474764855,-0.00278598228758678
0.0334085551224335,-0.0842639200304953,0.00600548577591169,-0.00280419884151999
0.026918574746808,0.0212712354517519,0.00627645465703267,-0.00302783181926433
0.0357273235786062,-0.00807285299648657,0.00558310089792301,-0.00319479333507672
0.0584373337603543,-0.107666022453623,0.0051148307910795,-0.00295546968981965
0.0714075414705655,-0.115835385184122,0.00323330814520147,-0.00300497792775578
0.0635449309699264,-0.0318405242436122,-0.00269262974408084,-0.00427564787640639
0.0427299159338062,0.0663271953829869,-0.00868170959613891,-0.00614796915135334
0.0235180554743086,0.129053123216936,-0.00941433723750801,-0.00739231490206907
0.0183650264404153,0.124605212201179,-0.00719696614053299,-0.00755634027599481
0.0260676223071774,0.0526889060300787,-0.00620268661968801,-0.0063085635442792
0.0301091520042443,-0.0139266762517728,-0.00507354922691856,-0.00319437071564672
0.0168866283831342,-0.0132015358119382,-0.0020443562584286,0.00127471409122627
-0.0104743822049697,0.00468671968928266,5.69601488371093e-06,0.00533981437192191
-0.031464325434564,-0.0135671536912012,0.00234556443893514,0.00786702892535466
-0.0302970399906578,-0.0349671090926622,0.00859556445201803,0.0102897189657212
-0.0149979265642309,-0.0259515717607172,0.0136173430087642,0.0145012793036253
0.00430877294513381,-0.00827652272734583,0.0150824221453274,0.0171782634183596
0.0283194306612626,0.00350811067272938,0.0200147197198156,0.0114257348168412
0.0562130000644489,0.0126159160460268,0.0271532848022732,-0.00265530230697046
0.0802487982257536,6.38270030377461e-05,0.0273684484185894,-0.0169022313996489
0.0908717614861672,-0.0294952578563372,0.0193717480667053,-0.0233319133769791
0.0811779066084009,-0.0258810917229094,0.00791494399047532,-0.0185270767122187
0.0521557563436679,0.0170829218253776,-0.00593832887286898,-0.00578484771937583
0.0224024721224843,0.0524746635729907,-0.0176629363025795,0.00735931859565584
0.00234595752713303,0.058648659881255,-0.018773813676797,0.014386224804297
-0.036346542011025,-0.000132970424959647,-0.0103287644855667,0.012117023290597
-0.105504573408402,-0.124830125635975,-0.00159112705669559,0.0033095319817858
-0.161907029328868,-0.198481003191407,-3.59736647151995e-05,-0.0043679608598004
-0.178220144840231,-0.166929982942318,-0.00379402305166331,-0.00513080263623477
-0.163041995257134,-0.105043705222236,-0.00411092439156972,-1.94885736601027e-05
-0.119660207699654,-0.0652314183127244,0.00165512639186943,0.0048560374606383
-0.0488036797948561,-0.0493394745502324,0.00759090073704455,0.00483252383669667
0.0361690136180334,-0.055011431762203,0.0124474121188415,0.000785495336225146
0.103783905805206,-0.092207355900035,0.0156175689118261,-0.00366877625923935
0.131478602490821,-0.155542423227136,0.0104976852829605,-0.00608945220227082
0.126175429087926,-0.189706239965947,-0.000686192258153922,-0.00585083883926841
0.102227817276752,-0.128791711428505,-0.0115846546369132,-0.00332941678645588
0.072821496298828,0.0323850275569087,-0.0206279453680291,0.000986599259427201
0.0366739977334745,0.175679983557809,-0.0213300857207249,0.00586390669996779
-0.0105177631494947,0.173976604967969,-0.0124323543020885,0.0088404514698273
-0.0402789905818441,0.0741808422936423,-0.00617118997324242,0.00826789391171914
-0.0416714547445052,-0.016728453538045,-0.00588337209011559,0.00524685125294237
-0.0344433521991905,-0.0686138867078538,-0.00376626770909144,0.00194495888286296
-0.0201084072946482,-0.0796733390312387,0.000202435166463431,-0.00197965473238781
0.00244079531879342,-0.0717720150756711,0.00145242246770287,-0.00843157715389642
0.0284472153696035,-0.0604098148940872,0.000415223452864131,-0.0158592645591327
0.0472600831952426,-0.0287587697571213,0.000546580602292853,-0.0201707385373079
0.0385658289675993,0.00453514067923685,0.000563368579254855,-0.0195832351245819
0.00768168133107121,0.0123179655681398,-0.00203678573253768,-0.0124559821151322
-0.0140849194099104,0.00626306036969865,-0.00510250193004293,0.00539354858580611
-0.0128927960251739,-0.000589964166412294,-0.00766559297688983,0.0304763656705801
-0.000708374900691588,-0.00945960181485696,-0.0105599574463914,0.0447744927623689
0.0068751637933941,-0.0124324664029059,-0.0109930380426729,0.0351902496956124
0.00494655439570545,-0.00176194370689668,-0.00612272321928024,0.0114181645332484
-0.0010302165324713,0.000734013630625868,-0.00115550696789964,-0.00737022179376678
-0.00396770660391514,-0.0178444399724162,-0.0015870914772567,-0.0130292938681972
-0.00421660485440119,-0.0321578079899603,-0.00478921874615677,-0.0107438285582162
-0.00475000777756489,-0.0288016026786075,-0.00836691457858919,-0.00871777674476887
-0.0113398516252,-0.0201298483029881,-0.0128790868050466,-0.00971740741153915
-0.0279425132120433,-0.0124354216463962,-0.0154812433068959,-0.0117023399257701
-0.043780551205902,-0.00141889072969902,-0.0128073899245769,-0.012525702924719
-0.0479905871878276,0.0156921915002666,-0.0059138069053916,-0.0115587979475732
-0.028797620240627,0.0265891488241653,0.000946456645136432,-0.00893306922265133
0.0170609579519027,0.025062221305136,0.004819263399138,-0.00529682283137195
0.0564865910264966,0.0240796082622578,0.0065471040555513,-0.00180871457580608
0.0598652534456474,0.031503754633546,0.00708055076147685,0.000917362702192417
0.0392486555219872,0.0414466076034579,0.0041179227872962,0.00306713547206298
0.0210002126044751,0.0361558447088949,-0.00413355943105125,0.00499901139203567
0.0112626428348216,-0.00111945788380179,-0.0128229923480672,0.00731841747931782
-0.005273964672301,-0.0629726025689827,-0.0142568435915459,0.0101821223950473
-0.0333537539226862,-0.102644190399096,-0.00920244587616169,0.0122885853868569
-0.0535353699885027,-0.0822695715532049,-0.00411140441471766,0.0118060609758751
-0.0525886900132172,-0.0353736489095155,-0.00100090121923203,0.00836612509621194
-0.0428977022057341,-0.014146104735804,0.000852724135671075,0.00343414324331022
-0.0335628466523952,-0.0113627813311678,0.0032155304544373,-0.00139838247751222
-0.0205858849748643,0.00541184822789742,0.00724503515072331,-0.00528777170090213
-0.0115262510766263,0.0305066470915709,0.0101136691821894,-0.00761462863406527
-0.0143666605811172,0.0400544390320849,0.0108433808680506,-0.00804624664013761
-0.0179314470183847,0.040505114347786,0.0123170993290238,-0.00671755993069887
-0.00421453316102152,0.0620754423529539,0.0146631705523396,-0.00421175432671689
0.0198993419311189,0.0818800698871881,0.0111296236914386,-0.00119309637573778
0.0262954891322626,0.0453793279940255,0.000331784964189702,0.00195122986440861
0.0141046100798183,-0.0208422068345345,-0.00509019710824624,0.00419982535532061
0.00189125906244214,-0.0440522372973437,-0.00124933714962174,0.00320743665118503
-0.0040798337836366,-0.0123512239741893,0.00343464718613347,-0.00203300281825953
-0.0078578087995709,0.0240196593551891,0.00708367231748001,-0.0086598474748109
-0.0215592735202861,0.0213876659721907,0.0106282953617886,-0.0130653375013976
-0.0416405385693259,-0.0196534409853727,0.00880737981045451,-0.0137153322536934
-0.0475820557871928,-0.0589181710956956,-0.000563563497237587,-0.00939640449533781
-0.0438988573576482,-0.0629909756509607,-0.00761450247702104,0.000899984758537035
-0.0562423550251133,-0.0200413676302529,-0.00369094266436639,0.0142618314318578
-0.0829367590214762,0.0662009710426731,0.00466806298049801,0.0227137300123056
-0.0878257612884824,0.133695692220664,0.00618454979281186,0.0195535197902641
-0.0589831246090204,0.122655097018882,0.00103685152589874,0.00682533225532507
-0.0256174315281153,0.0670348278982233,-0.00428419937193711,-0.00603446575408718
0.00104888275926267,0.027417538704927,-0.00683009522621048,-0.011418900254977
0.0301885710827026,0.00841304483995989,-0.00655472160994232,-0.00943470924826454
0.0519891511225191,-0.0029775376908741,-0.00341925630166302,-0.00508281825918332
0.0539816485441208,-0.00527119369794034,0.00203542150099495,-0.0028380697947652
0.0431403177012136,-0.022230449966157,0.00567769965075817,-0.00361988863569976
0.0305140295838181,-0.0671638251983737,0.00614656275768049,-0.00493656570416668
0.020627726353914,-0.0862793702954507,0.00779801552960927,-0.00420357535380092
0.0150203245789242,-0.0481418168566277,0.0116304168075062,-0.00154600479880442
0.0159891232029394,-0.0067855445741197,0.014105452053435,0.000960104592788395
0.0274437765604421,-0.00298822016902833,0.0131500430028008,0.00165266231145599
0.0429525082498475,-0.0140699931273785,0.0100144178641444,0.000968999129813557
0.040678295216928,-0.0132024184702749,0.0069106843189116,0.000827678462701489
0.0163252966745521,0.00625817208896227,0.00640024648391797,0.00194578580444627
-0.00403376801625015,0.0467342795462908,0.00885286707027831,0.00268844872462687
-0.0162393127633902,0.109500976758258,0.0114135973738833,0.00143579440998057
-0.0360846039380697,0.179746200850061,0.0129055543005722,-0.000400040574663974
-0.0539592761357569,0.234564777281233,0.0133865020039603,-0.000203929884826399
-0.0546757067176443,0.26202989600788,0.0115542607947029,0.000939812607233394
-0.0441325560195237,0.247456095164859,0.00901305521691515,7.29585988563436e-05
-0.0378575688465661,0.18400392206071,0.00757139921060592,-0.00208881508707851
-0.0408444834882126,0.0950774022156475,0.00588500316869842,-0.00262987378164513
-0.0482630900199019,0.0218012217146383,0.00535935805967538,-0.00155506392210872
-0.0528225062571516,-0.0293189448211943,0.00370633466377908,-0.00197709202309287
-0.038979253830529,-0.122305821966518,-0.00118438430997901,-0.0050925248332732
0.0055290400865053,-0.26650687583245,-0.00336118577656326,-0.00767848139056891
0.0678056342152615,-0.358943478338799,-0.00186012301350161,-0.0066371423609339
0.102593681778217,-0.348102817381832,-0.00402289350728426,-0.00249508638821142
0.0632087860287584,-0.263957964768174,-0.0107062410562335,0.0029232860827719
-0.0322654375385745,-0.131327781785418,-0.0157420459351354,0.00839186851502249
-0.118563075787761,0.0112329993507688,-0.0168715708910067,0.0131429009845254
-0.154413121878533,0.0964637967193805,-0.0115241237752163,0.0160970745791392
-0.129719871666866,0.103566285036893,-0.000674983079151523,0.015265737997214
-0.0670073137042325,0.0779434806169625,0.00737850755290906,0.00949076595763081
-0.0129329646198931,0.0492459370540674,0.00866263637798014,0.000702063059036223
0.0178640287069581,0.0285702212127506,0.00651994451655311,-0.00712998023431137
0.0402152194543217,0.0330219961081558,0.00498869401934817,-0.0117109589099343
0.0611240224225397,0.0730726516317431,0.00516539537745222,-0.0137808749629234
0.0786518231560976,0.14435416128346,0.00456200275744915,-0.0125015606819584
0.0767896873189981,0.183515457184995,0.001009084343755,-0.00493473412633207
0.0462062614561095,0.13592984162752,-0.00187492050642667,0.00431115084905326
0.0024989327238493,0.0447822497756075,-0.00129928595203657,0.00610213290614308
-0.0361122539038419,-0.0392259206470899,-0.00103426673822741,0.000862298044913317
-0.0587769668344773,-0.109168961601746,-0.00336504470564595,-0.00372973522480358
-0.0593497211753497,-0.14836636982556,-0.00537620260548598,-0.00354765815761864
-0.046899662529648,-0.137036298787999,-0.00601224724263469,0.000550622480123555
-0.0376324069173236,-0.0933073388537081,-0.00637120557731652,0.00790681350186686
-0.0328440953046152,-0.0587918360879366,-0.00549662220439873,0.0169139997419874
-0.0254236585383743,-0.0476652185035527,-0.00307276462443293,0.0204237909840312
-0.012852402271257,-0.0404057432713214,-0.00112454519979111,0.0139977584181218
0.00114065332467094,-0.0165701309491676,0.00013930113250941,0.00356298867193103
0.0133939233452638,0.0147176670102609,0.00127055181276927,-0.00316405613133811
0.0229630157435697,0.0254893909951535,0.000429235947670718,-0.00494876977522039
0.0257528800424313,0.0213115161433003,-0.00248642130443234,-0.00454837390650156
0.0284296484634102,0.0211858890963969,-0.00520448582156612,-0.00380305859020253
0.0344489991451476,0.0135381633581394,-0.00805624168799061,-0.00278844301853592
0.0308864648566665,-0.0159180583698318,-0.0129704706553522,-0.0012386225735309
0.0209538990515201,-0.0538760295015718,-0.018243578636533,0.000819818515840824
0.0206325630310721,-0.067723142281561,-0.0180962965129759,0.00290303352618894
0.0322398367059789,-0.0468615308508246,-0.010679576158776,0.00391919242333706
0.0427186727074136,-0.0129883485179034,-0.000544163905283628,0.00304488408401981
0.0412918333841468,0.01575096438281,0.00779862357216055,0.000865619513743517
0.035033719776999,0.0378920874277735,0.0121473391085933,-0.00165152309741365
0.0357643478845718,0.0462704519719902,0.0127049413406181,-0.00392219227734181
0.0425654944566479,0.0334977680343335,0.0107910154365651,-0.00481112909967607
0.0444002536782359,0.0272222444729787,0.0070855432929293,-0.00358771665535986
0.0351615547042298,0.0450392259179465,0.00269374690915655,-0.00139895920187656
0.0256387089843676,0.068853981431588,0.00154820025604949,-0.00014784649943288
0.0307754648827284,0.0880699688320322,0.00444137092889065,-0.000786134217306332
0.0489797191078729,0.0971746162160637,0.0056821412453767,-0.00352764540159974
0.0739646009001834,0.0884309522430833,0.00233904951447469,-0.00750799691204902
0.0939171135694871,0.0685744897599454,-0.000630206907075088,-0.00940295573003186
0.0844112976241543,0.055994989314574,-0.00039041223367477,-0.00506914641230203
0.0464378262926832,0.0489747594334653,-0.000858009368442091,0.00521710547661809
0.0155555973742494,0.0259556595654607,-0.00254272295370612,0.0132907578763616
0.00390716345803034,-0.0295728137090942,-0.00397487496271462,0.0100559179688435
-0.0212813663188117,-0.0999778720181604,-0.00473229269550486,-0.00313855830187244
-0.0619207462431878,-0.134070364383724,-0.00364275561057625,-0.0159900674304867
-0.0622680823433442,-0.11279931539882,-0.00049219662543842,-0.020884607237966
-0.00769932818442797,-0.0583706956686649,0.00418898915488252,-0.0163664733276419
0.0421727234705811,0.00380091586985792,0.00600421390176156,-0.00108792270820581
0.0475808972383632,0.0507355231380007,0.00364149890486829,0.0221545201868352
0.0218581738372694,0.0663231077202376,0.00400075974077284,0.0375110998374327
0.000118020931301557,0.0552296527140199,0.00973920974395366,0.0305319705598547
0.00409807551969029,0.0419985469096863,0.016052901902591,0.00696334744746607
0.0194047945165211,0.0454777688458134,0.016941687969939,-0.0161994046995172
0.0398128290466254,0.0715514830063579,0.00895752350031659,-0.0268122477983032
0.0609083524599943,0.126242690394318,-0.00402259464452146,-0.020365604500234
0.0516962606832127,0.178786659898183,-0.0105945001682135,-0.00397233042311271
0.0101312092404012,0.176994519530266,-0.00858342043719957,0.00556512163625515
-0.0212523343706201,0.138492902581053,-0.00589187910531896,0.00152790905032805
-0.0244772359200307,0.112957435610905,-0.00188480516496547,-0.00724364429985369
-0.0251998889533822,0.0919153442153771,0.00399702498005045,-0.011333364688566
-0.0402498227569322,0.0421402242066074,0.00713806975585697,-0.00742887304878362
-0.0547437985255506,-0.0629963754173646,0.00599601902285514,0.00268067486359106
-0.0451848189167773,-0.254166999642284,-0.00154928778916836,0.0124573278234391
-0.00876566297425986,-0.432929217609719,-0.012822164930823,0.0156090272260014
0.0282432823239623,-0.404175049521431,-0.022020159549949,0.0112301552358581
0.0361639003691003,-0.196408089850711,-0.0278875248549434,0.00258915412504802
0.0172640641911585,-0.010372023783576,-0.0283909082053307,-0.00554093448275622
-0.00241035981388626,0.079592383791017,-0.0211704095292275,-0.0089035413534853
-0.00410233302884774,0.106050427294715,-0.00886915585825434,-0.0066235936891066
0.00693286412991946,0.100020244113331,0.000957860117767603,-0.00140287466449201
0.0118696120610101,0.08058984328317,0.0053766823306569,0.00372792374410416
0.00203801422648894,0.0588866158415662,0.00798618562555079,0.00733231494693518
-0.017215313126706,0.0450188055991155,0.00960867898483149,0.00902124720444366
-0.0363356673530182,0.0384909029967829,0.00786804369083384,0.00895904567163354
-0.0491546670257233,0.0250460115006458,0.00240071106955961,0.00797874005599361
-0.0532837676641096,0.00243431521853333,-0.00558406922071058,0.00678100916555646
-0.0538763770788634,-0.00672304627140197,-0.0133169576904501,0.00550428346193343
-0.0621089609489961,0.00376699006672893,-0.0159024556177008,0.00417833784224326
-0.0753711582666058,0.0124474681821102,-0.0127044483944883,0.00257182247018305
-0.0813169450749028,0.00227940610885484,-0.00833200764655188,0.000418453163244585
-0.0881308495325205,-0.0275108545130214,-0.00620841113985165,-0.00205723449039245
-0.103930083704347,-0.0628095326948576,-0.00477438139676871,-0.00400835882585005
-0.109879013305403,-0.0872603639943074,-0.0021347458168622,-0.0045694207921313
-0.0964679738265449,-0.0944758825064925,0.000246982454478444,-0.00396117229007453
-0.0787847453464889,-0.0905470669537347,0.0015478671631027,-0.00338521046298581
-0.0649592070883402,-0.0873624258010839,0.00226785069533061,-0.00360175852435523
-0.047333977596101,-0.0840751311924272,0.00259764350506101,-0.00416707150669705
-0.0235501801308544,-0.0726782829637249,0.00233138974752495,-0.00442281530992421
0.00508693677814609,-0.060719296146553,0.0014997021297477,-0.00433181516974373
0.0427284773968666,-0.0644189548605354,0.00125303906865041,-0.00415747500442658
0.0766502939163822,-0.06171629819208,0.00267428075104179,-0.00435741951118844
0.083033896518373,-0.00371135126459578,0.00581128940063488,-0.00501365116152257
0.0619082671989929,0.0718336524666768,0.0086298706085941,-0.00516661399997515
0.0285227023779155,0.0779608255960127,0.00818781881962489,-0.00406460783862467
-0.00766953254787378,0.0209920404450815,0.00452186043860774,-0.00215568338275301
-0.0323261860155906,-0.0354427979277211,-0.00146935275418414,-0.000291350965392543
-0.0330080361101545,-0.0543060391187168,-0.00775446462864069,0.00109369876468665
-0.0189806438953084,-0.0427712528304027,-0.0100235523805009,0.0018116669083234
-0.00547350949588557,-0.0248184960573284,-0.00812641748472355,0.00150476287318107
-0.00302622814309193,-0.00292957998985455,-0.00396646169046379,0.00017994579271143
-0.02613510126326,0.00760486962457919,0.001779753494368,-0.00129921542485719
-0.0733619069809701,-0.00147204701953551,0.00914865994221311,-0.00210200448402953
-0.105565453588405,0.000677270171148124,0.0199179246658383,-0.00275296068194509
-0.0909442710010853,0.0197423134643771,0.0299203788105675,-0.00453383653275615
-0.0526190515506443,0.0382405715196733,0.0328755036671952,-0.00765457428277115
-0.0216253115682645,0.0545517827152667,0.0307025189025859,-0.0107592898431475
0.00298549082877497,0.0726585114075078,0.0266597738232033,-0.0118920714852233
0.0232235877239094,0.0685416603944755,0.0213423439572885,-0.0102716412815915
0.0334065653605427,0.0175230518124553,0.0160995508727223,-0.00728415965671125
0.0318052019156224,-0.0228407108135847,0.0127277500768513,-0.004926803052091
0.0342234603489667,-0.0129451711110651,0.0108310554400748,-0.00393710277582219
0.0605885798609814,-0.0163731457138111,0.00551224959714817,-0.00436786825651942
0.0913154317552849,-0.0386741467026512,-0.00471446391718221,-0.00444858709108355
0.081761293049995,-0.00580268870357739,-0.0118024405582229,0.00048259426828072
0.0205124725285834,0.0734302962745242,-0.00714091014151485,0.0108070000370889
-0.057615881952037,0.100078239575332,0.00277586700265404,0.0187633503013526
-0.116631589808234,0.0144562141672437,0.00448866263780887,0.0197330586506737
-0.129667914627928,-0.105439102027757,0.00216980215770206,0.0180837082811136
-0.0859950097620832,-0.118264467449452,0.00513003220327733,0.016255809072462
-0.0298739999415022,-0.0298081301882386,0.011947998715679,0.0106935285549588
-0.00528152922792546,0.0535051354675825,0.0200408312421991,0.000346635810833478
0.0132075430722215,0.121256779198149,0.0266424012293539,-0.0107080946207684
0.0480549817415793,0.180760361431436,0.0265231220811671,-0.0183716786054039
0.0704560543283007,0.169181426850315,0.0200525892906831,-0.0211893139211375
0.0646938862480048,0.0586261247813822,0.0101948368587334,-0.0190150519968325
0.0602328069664662,-0.0785116747886499,-0.00450548338452691,-0.0123230755834693
0.085885834156721,-0.101278275406915,-0.0174613319285109,-0.00289351472978981
0.113410835176855,0.0155293333654725,-0.0182819406030457,0.00667317297859642
0.0952081128699699,0.109206745065219,-0.0154245416484868,0.0137375646876017
0.0427487253923073,0.0978171231185013,-0.0163198154858855,0.0158372041679539
-0.00027041108095241,0.0518922561711276,-0.0107024951387886,0.0123489065859325
-0.027544845278143,0.0233561169433475,0.00170296849925192,0.00626733358891381
-0.0477488029846461,0.00527200944984531,0.00938635841523134,0.00214839719837962
-0.050112243338483,-0.0329833582123515,0.00929094066645144,0.00211545506047961
-0.0390837091061111,-0.0796847497347452,0.00617303816587105,0.00536011183803577
-0.0410876218784159,-0.0836299919063359,0.000692655329338161,0.00993242845778591
-0.0661616887254972,-0.0527703689748661,-0.00538583413296055,0.0134253578635545
-0.101689223801684,-0.0230072884726893,-0.00584956315784158,0.0137380473233
-0.128875348559104,0.00532199406463325,-0.00344603379200167,0.0106635687540074
-0.124948968074163,0.0192666319398628,-0.00448942941907363,0.00594197199917688
-0.0813135417695464,0.00806533718926288,-0.00911606015754382,0.00157846241973989
-0.0242845402160959,-0.00325541347897641,-0.0135527259225733,-0.00191413658562606
0.0167037985353472,0.00146206329592239,-0.0134105503171651,-0.00528604364469611
0.0398421933439443,0.0178888654451855,-0.00874460304655082,-0.00848967427151008
0.057426268893812,0.050443586993601,-0.00490751547298404,-0.010561429468631
0.0838703085715372,0.118294051824556,-0.00506893620212882,-0.0108274286913801
0.110287968465495,0.179838771884816,-0.00742792644992625,-0.00856712927534375
0.106554102530283,0.137731733535253,-0.0110279190151262,-0.00217807487292344
0.0755194346685044,0.0121018125899351,-0.0146917375127146,0.00801461568665915
0.0500070809303776,-0.0723309880464093,-0.0148982380950903,0.0163395042577948
0.0347769340800752,-0.0707359613536762,-0.0109238721130659,0.0165794592480405
0.00634905884419656,-0.0290488296244046,-0.00597399189456096,0.00934772986791439
-0.0297690150374808,0.0122811257395959,-0.00193244050447526,0.000760514757728065
-0.0461891679370975,0.0410771199666398,-3.42537514687884e-05,-0.00434288405901645
-0.0407434230764051,0.0573136736086503,-0.000201859046214702,-0.00578154881885153
-0.0312347502164008,0.0641081308330105,0.000369016770827122,-0.00592867108570305
-0.0239458551137744,0.0612612868975148,0.00120743626840346,-0.00644928173386461
-0.0135468052844609,0.0492587590327532,0.000301900451871315,-0.0073249842938478
-0.00696510083568596,0.0389872389364669,-0.00116752047670482,-0.00786145281416888
-0.00930731148543902,0.0329021063385532,-0.000959096219922345,-0.00772473431618444
-0.00834398063546984,0.0122586301093181,-0.000241893275521185,-0.00691958380884146
0.00381055481144493,-0.0129894778642399,-0.000459369521802561,-0.00557250680773445
0.0246811503656071,-0.0061211267646964,-0.00164208315298698,-0.00373799512359925
0.0414788020424353,0.00901092281159086,-0.00464051486324858,-0.00159886382539364
0.0412939870456897,-0.00995743671874386,-0.00701042527510479,0.000609966459528814
0.0329741766414787,-0.0257168649798226,-0.00526952173265776,0.00207064323493745
0.0269485187178111,0.00154840585588342,-0.000753985567313939,0.000732659383664324
0.0207612217920619,0.0359994693389008,0.00107165056156956,-0.00360458628307418
0.0193584164124299,0.0420258582061852,-0.00107417729843131,-0.00742738528708307
0.0283412347298853,0.0295955614941571,-0.00242079747967518,-0.00757840493712896
0.0362396755186567,0.00893222667429483,-0.00249844781976151,-0.00255909373546095
0.0338884960345419,0.00278956514408724,-0.000771346235579965,0.00801567280789653
0.0266744120581474,0.0336699680865652,0.00536730789905313,0.0161446420091235
0.0217293823934221,0.0626474544650009,0.0121708724878134,0.00934342877780414
0.0212702797051313,0.0485958156874202,0.0159140670211799,-0.00978464762812209
0.0242859223314507,0.0198564025442291,0.0163343756304879,-0.0246222691907094
0.0284998356400055,0.0201501169064382,0.0144047595115561,-0.0233341304727936
0.0260989761696898,0.0428818140453928,0.0121831119546442,-0.00628975469955921
0.0115482640554929,0.0544077574167169,0.00929707518242246,0.0155334592941372
-0.00712211125166829,0.0373662026721294,0.00423093165469865,0.0277876350358695
-0.0144817106688784,-0.00292346070536405,-0.0011468263188286,0.0241665067751666
-0.00160993387913633,-0.0487784517641516,-0.0036139945331165,0.00937978414555433
0.0197622344982419,-0.0754114673217133,-0.00522427381974498,-0.00752479593848654
0.0287233342240544,-0.0667046101485786,-0.00873458367065306,-0.0191782943648228
0.0172389268738615,-0.0516604888597165,-0.00859588640927881,-0.0216814865795036
-0.0072090055570514,-0.0583486031766291,-0.00214446391845129,-0.0163210273460433
-0.0242364166979499,-0.054196881111668,0.00542167389025533,-0.00972670686323062
-0.0208668243064744,-0.0179097105422284,0.0106868235510844,-0.00526505980567863
-0.0071179654046753,0.0271290359671339,0.0128361723352479,0.00178126092048144
0.00473802341619776,0.0674210195674814,0.0131892368664343,0.0118006042387457
0.011848951180707,0.0914550759716235,0.0125984958935662,0.0174575925606459
0.0156886166444905,0.0699098626332488,0.00881806617783079,0.0172103631373384
0.0212045193958816,0.00555030608824891,0.00239561759190731,0.0162010748597073
0.0268357413265135,-0.0402558486965524,-0.00136783119878637,0.0159008282186812
0.0224104904832284,-0.0226014098973123,0.00299192045187031,0.0120916162447066
0.0108736016855382,0.0117781034424156,0.0112315634628353,0.00288224895292997
0.00909709205086591,0.0095381963373972,0.0119236022284455,-0.00680831626931774
0.0159080161440626,0.00105968088773295,0.00607852706235902,-0.0119532606060749
0.0180883172153565,0.0188476191277675,0.00148125193740084,-0.0124626462377026
0.0158428499387549,0.049116573994869,-0.000384781829584437,-0.0101747515530928
0.010717665928597,0.0630719672983818,-0.000800820295991608,-0.00610118331837421
-0.0025158016717056,0.048842419714878,-0.00056400161691412,-0.00174320645218343
-0.0275721528887725,0.0229045181364198,0.00156063429041289,0.000748194920984034
-0.0557381963793965,-0.00317653595030157,0.00540736203331657,0.00126683090238852
-0.0601002449583847,-0.0294465492567382,0.00592591309640754,0.00112576301530751
-0.0305050396412718,-0.0520023679093586,0.00190668476158141,-8.61087876404794e-05
-0.000703222090512157,-0.0533483220727034,-0.000167046268229906,-0.0011408052384781
0.00368531599968323,-0.0326342723504155,0.00131756452788778,0.00392146810614902
-0.000317194939474995,-0.0437146450658524,0.00149561230873507,0.0161173542004623
0.000381155776489931,-0.105702655497721,0.000648480169468015,0.0263623665304024
-0.0065094028417348,-0.126469775578147,0.00253932072826729,0.0279543600264135
-0.0269557806682524,-0.0515441045263712,0.00489281284060016,0.0231974743322458
-0.0509071412619107,0.0345636517036437,0.00168596205292162,0.015284705509508
-0.0714250819823027,0.0682592232026996,-0.00477357563516191,0.00585367776216063
-0.0860394517544457,0.0799972159164156,-0.0054571901653468,-0.00167456483305794
-0.107859284603088,0.090931290077224,-0.00205368484963412,-0.00553670666487427
-0.140849569303764,0.0990858276542079,-0.000560980271897705,-0.00834363795038904
-0.151108161159498,0.126708244829699,-5.20794253024027e-05,-0.0126114024990592
-0.128270997238637,0.181801339410533,0.000797362655391042,-0.017304056539516
-0.0947185640000736,0.220401606438106,0.00413223485681719,-0.0197179404116127
-0.0592775013121697,0.212147835909978,0.00968739253227825,-0.01856696672843
-0.014011876560349,0.168102746216436,0.0130571874288422,-0.0145858138044726
0.0473476133199183,0.0914557748623542,0.0120835981914087,-0.0092093174669977
0.115665010467371,0.00178409860170492,0.00693062460852674,-0.00347864369344835
0.155203220706525,-0.063412524847521,-0.00227379622030962,0.00206380674670789
0.135139635627664,-0.111806561542937,-0.0143775111754184,0.00680293176695782
0.0795893205993359,-0.165474956524445,-0.0239379459060498,0.00979043580127511
0.0331089425545808,-0.221168027683077,-0.0258994640325846,0.010620689781893
0.00470276704345987,-0.272232684650401,-0.0211212658361088,0.00979259223555635
-0.0193214744228018,-0.268339962726184,-0.0130603985384611,0.00783701810317769
-0.0419105246430178,-0.145787879189408,-0.00569944021860718,0.00473335047914416
-0.0632211773405868,0.0193884460002845,-0.00334590159861011,0.000363064715858057
-0.0820629140406714,0.110176019405299,-0.00593128453706212,-0.00406996589233161
-0.082674249276443,0.132653735732293,-0.00656443211172861,-0.00665489511081822
-0.0582709522009705,0.126655466886621,-0.00183616240542922,-0.00710316301977351
-0.0223150758972516,0.100378243700849,0.00361630028124975,-0.00649194233861518
0.0106801231474784,0.0801338646476354,0.00666538431113009,-0.00575051006312933
0.0313606015023831,0.0702475401794333,0.00715388666831116,-0.0051028161382068
0.0352732041607584,0.00751851383864654,0.00459736861030665,-0.00440187958680828
0.0267453750131553,-0.0812174595159486,0.000314007549460146,-0.00361797010858798
0.0144140132474181,-0.0808178855908372,-0.00183079082067207,-0.00302762127410401
0.000964714210928766,-0.0234596993918612,-0.00219774110394663,-0.00308963896638897
-0.00293801243029577,-0.0221369223798983,-0.00346115957249675,-0.0035598315716596
0.0148495596478769,-0.0592085481898961,-0.00462332080507334,-0.0041135487507908
0.040746016068745,-0.0663908435205841,-0.00527263827862806,-0.00508160351136506
0.0592633527995565,-0.0648708104139846,-0.00538237861858586,-0.00627248343064708
0.0635820992707663,-0.0872941458922411,-0.00552161346972307,-0.00685420699274571
0.0492193191057122,-0.110202341138217,-0.00669094891006073,-0.00613678297662512
0.0346460784860573,-0.114525425389814,-0.00757958321053641,-0.00407484313140426
0.0407282889272655,-0.11582189993982,-0.00741998866419919,-0.00153321519706528
0.0601316326746589,-0.132273689519348,-0.00660275534873137,0.000369026335253726
0.0779299764848081,-0.141117649342505,-0.00556643201309502,0.00102429345295575
0.0885093089207217,-0.107979488411621,-0.00573103517509285,0.000575523684156531
0.0868930013786111,-0.0444802146008663,-0.00735908520807255,0.000156736286015557
0.069881333986065,0.0062875967654166,-0.0069631763805762,0.000849251308904653
0.050965295553935,0.016780477694035,-0.00359810155142952,0.00206767378568868
0.04098159965817,0.00120571899595569,-0.00121114267049249,0.00215184682303099
0.0332814187877717,-0.00905543605817168,0.000609296654630446,0.000464965103824802
0.0313604846288166,-0.0118788742395281,0.00204640776257013,-0.00192936807988632
0.0371877504932845,-0.0247021933043019,0.00262791979168523,-0.00353867733740656
0.0380516117601989,-0.0369300009782188,0.00420987998078965,-0.00381003319304738
0.0293406748010851,-0.0214135759977515,0.00451967613822325,-0.0032150802411308
0.0113275074605606,0.0134545301527522,0.00185495366716426,-0.00219866265266654
-0.0118730261063435,0.0428106003995064,-0.0041351107063299,-0.000809695819309801
-0.0280600493818065,0.0569149267895824,-0.0115668895416307,0.000839554909831168
-0.0300786919061865,0.0491149099649207,-0.0171820481233318,0.00235848568720266
-0.0209849216364248,0.0196151934139306,-0.0197257282727787,0.00319362277523922
-0.0100489329756152,-0.0107306897429806,-0.0178916854365541,0.00343271276062867
0.00246868235756945,-0.00638408573588231,-0.0130610876221902,0.00368543789853356
0.0197733012901898,0.0251240093606569,-0.00503925995994492,0.00354980176435843
0.032509565237775,-0.000260547236466305,0.0026750868147133,0.00284619997308528
0.0429478567668402,-0.0892783351549155,0.00318866863861921,0.00404094755339829
0.0649711431940741,-0.119198350785035,0.00420149773216898,0.00760637016344724
0.0851465092862229,-0.048914985637325,0.0103023959349309,0.00816023193292189
0.0758667560636519,0.0396567516977302,0.0109748181971508,0.00288476383111491
0.0370863376194847,0.083606518646632,0.00523683181732411,-0.00318014180751487
-0.00666925502949341,0.0919198193271905,0.000317316716656409,-0.00440317039174109
-0.0369126264361125,0.0874723451257045,-0.00376863611974618,-0.000652443931753978
-0.0475909459001028,0.0752653946297702,-0.00791579980457238,0.00374138757856323
-0.0306106315577338,0.052138494742896,-0.00981039222516846,0.00455486386560398
0.009484372742366,0.0153307109800523,-0.00919159629094479,0.00174245853626363
0.040644613722255,-0.000585809791479101,-0.00990941044828058,-0.00150457583439995
0.0422372982348863,0.0326803619233631,-0.0138333377131209,-0.00279352009323563
0.0334828955775425,0.0701220590428399,-0.0169952860317273,-0.00167456736596714
0.029345715451576,0.0162127263742465,-0.0149331479050365,0.00111807290769093
0.0140816943209097,-0.13174739873401,-0.00800183246120777,0.00335036377944313
-0.0200513260305907,-0.224394341277905,-0.00210975072675888,0.00237159529439517
-0.0667821076681576,-0.194118992857087,-0.000735975514868616,-0.00136439528998211
-0.118476788327182,-0.137196106124755,-0.00235512294567185,-0.0037322735830867
-0.150133246812026,-0.119177372524182,-0.00313975383371029,-0.0018342330245721
-0.142076542320042,-0.110675893215514,-0.000815304322617953,0.00289960086925167
-0.10232296861267,-0.0718491230771791,0.00263397545562833,0.00682814077954953
-0.0440500212022271,-0.0118691113999341,0.00645152857120554,0.00733959663367557
0.0134897560271115,0.0273367884244778,0.0100262678596803,0.00433130465446632
0.0457222657336394,0.0350980916175183,0.011805854843017,-0.000458687469439054
0.0662149492449074,0.0655940174917674,0.0125550775106461,-0.00454361347135692
0.0969295803870864,0.121963545028686,0.00891969143483329,-0.0062552824751614
0.118642451529755,0.120773418677366,-0.0033969322386143,-0.00554335155101075
0.118818421483653,0.0683801320165012,-0.0179585873607532,-0.003046001398496
0.101942642707537,0.0329344025878973,-0.0258106675609381,0.00125859741528672
0.0622117861954279,-0.00583000016532256,-0.0224019324605406,0.00759238320151852
0.00868588834252013,-0.0692220175170057,-0.00976255944105742,0.0117137721233565
-0.0283960690622893,-0.112824364319573,0.000977352251971288,0.00736415784679697
-0.0415487917230652,-0.118711326562612,0.00343752521048615,-0.0028489802231029
-0.0480552314518119,-0.10553344147808,0.00124979413176691,-0.00964189096116541
-0.0555122715547659,-0.080062288622544,-0.00236789492763621,-0.00901268235322893
-0.0579624289875179,-0.0506804136402522,-0.00642023383200372,-0.00403748429842725
-0.0445489799113805,-0.0473479839343303,-0.00896468834813961,0.00112930476403605
-0.0173940667183884,-0.0784621585133776,-0.00883872018674192,0.00420743927878995
0.00202088380108283,-0.106147460984816,-0.00609244298818887,0.00407393109678771
-0.0052965214228472,-0.0944934859388088,-0.000691177789795612,0.00075165400194311
-0.0320718949365036,-0.0462652018297964,0.00503589060217632,-0.00373523727094806
-0.0464581490651807,0.0115150940303714,0.00767567521303669,-0.00639157182353851
-0.035005104027507,0.0517649980215803,0.00612195371926805,-0.00597779881173018
-0.0133655302264787,0.0606756026911929,0.00161061278785585,-0.00325561952648352
0.00451984691773332,0.0492855719644872,-0.00331406970447298,0.000529127906442754
0.0172534226686426,0.0398024874135612,-0.0054301891045603,0.003828861116559
0.0265210697516597,0.0427784632268331,-0.00404581150067544,0.00522250413430328
0.0254915785551616,0.0584280187466594,-0.00214707950560987,0.00436342584942215
0.016236492465695,0.0829391478547848,-0.000739936579732511,0.00222506552186833
0.0128354364999841,0.10691496255032,0.000278186397722014,0.000216774102191633
0.0138163909441443,0.120314039622016,4.56802558211448e-06,-0.000706094316266552
0.00893714530875423,0.121983743168467,-0.00107863534691658,-0.000512172281608765
-0.000865806673013668,0.116997876791533,-0.00182608852837445,0.000200165447059853
-0.0119569279211617,0.107087893042637,-0.00272850498517484,0.0010599385985566
-0.0214735312544092,0.0871847842929573,-0.00416548742856031,0.00178299062776929
-0.0254167332249948,0.0600332890659678,-0.00555726425060028,0.00203035924027378
-0.0219298120574966,0.0439987301168588,-0.00741779801218393,0.00118954187196889
-0.00754757534717703,0.0433790375868721,-0.00796194384480768,-0.00098553577487212
0.0137468392977357,0.0422125836456553,-0.00496537867878128,-0.00308737235695598
0.0256343980744126,0.0286410425293258,-0.00163262748372502,-0.00374679144465337
0.0215722050353402,0.017365694728471,-0.000844514276585184,-0.00308987357017542
0.0134044973962881,0.0291768919700975,-0.0010951958147997,-0.00142505148329667
0.012700933997219,0.0488358330440022,-0.00174198067392174,0.0017807769519512
0.0172038965053727,0.0616344861580134,-0.0026713905233826,0.00610963566559977
0.0115287168104331,0.0745950726507021,-0.00270082788712677,0.00788981203206291
-0.0102011896940758,0.0859938286409058,-0.000364067050877754,0.00389265590696602
-0.0284527996203421,0.0919270596997326,0.00389841327623543,-0.0032386333256951
-0.0273591655116129,0.100047618465435,0.00742776283998868,-0.00709127425975067
-0.0132005482206722,0.108718531781459,0.0101065508249866,-0.00390362890881548
0.000119574107788236,0.0949307079591306,0.0119170564691826,0.00363902043608587
0.0023048889750309,0.0450184561056293,0.012825376545785,0.00823624418321575
-0.00756653224616998,-0.0102551303045174,0.0142749930090749,0.00563147282749542
-0.0212824451014682,-0.0500470987664697,0.0155116322596443,-0.00134529409755729
-0.0308597101046557,-0.108411220842586,0.0145910676094603,-0.00760781357538445
-0.0327787979790829,-0.170501203437852,0.0112127031588587,-0.00985643670400659
-0.0272961724068027,-0.176870243440472,0.00469180370201753,-0.00607426670196548
-0.017969050897465,-0.140169026727076,-0.00397893964217729,0.00294274884277619
-0.00672523805537149,-0.100141544405016,-0.00949412514346155,0.0114921298279519
0.00960827514998821,-0.054466595835569,-0.00576226589992196,0.0135409682241791
0.031331952849596,-0.00177961372111246,0.00436632325934108,0.00896904145851678
0.052200044260252,0.0372027890944727,0.00985485636745511,0.00308206311214781
0.067321443716208,0.0514507188392218,0.0101685000587316,0.000120417870635204
0.0698833167095288,0.0467372890058713,0.0118637969437474,-0.000846529068873093
0.0588123699536413,0.0321427270733917,0.0137729459560161,-0.00246705727959379
0.0424911046940483,0.00865748330217928,0.0113511413455716,-0.00488522948066304
0.023580987860269,-0.0144357926478808,0.00670711564333292,-0.00610631836172293
0.000272238182314574,-0.0206912982508642,0.0048352426491144,-0.00507641185913536
-0.02697912125032,-0.0180089147389087,0.00494438450841831,-0.00259900424774056
-0.0560630711647738,-0.014134786215415,0.00293908289075738,0.000266172354224483
-0.077648670481019,-0.0130919399648371,-0.000554969008408073,0.00260079047713289
-0.0789709618291292,-0.0314247600850753,-0.00156135288654265,0.00355141949287942
-0.0644870282572364,-0.05911728212172,-0.000742584500333093,0.00275085693736505
-0.0524407526977471,-0.0652886095384424,0.000832961882180334,0.000571827587198696
-0.0479094409426996,-0.0455122565571951,0.00451652272515045,-0.00174740913806232
-0.0365991231470496,-0.0262974292202151,0.00759744430800051,-0.00296568945280971
-0.00646262529082046,-0.0347430578361133,0.00670696038367516,-0.00270529945758418
0.0392773389795578,-0.0285025505981586,0.00413819211854687,-0.00110267497417881
0.0746641687880167,0.0428602005222594,0.00413752439024742,0.00101974274147234
0.0692638085895102,0.107217347655245,0.00798141210887716,0.00240120369346483
0.0274404459351963,0.0932948748020952,0.011418456470741,0.00277510397096322
-0.0184211292803413,0.0402704571648483,0.010481581188343,0.0029276720486193
-0.0378326668712422,0.00395234484959039,0.00713382068517729,0.00346791361233237
-0.0249230550133065,0.000582288254454791,0.00374978294872394,0.00424229746425699
-0.000751734217636434,0.00405985764347645,-0.000400279250967527,0.00373968431755635
0.0119963848135153,-0.0207754910030946,-0.00638973026248235,0.000651369496890605
0.00865568838122877,-0.0502161693817551,-0.0119586606446662,-0.00349989408883015
-0.00937614735341476,-0.0478461712836042,-0.0138506156228988,-0.00637656652481968
-0.0368737436589992,-0.0607066277499108,-0.0130278043967958,-0.00706435113118673
-0.0484441202499811,-0.116381258758944,-0.0108721290650145,-0.00548971189001106
-0.0282690092827521,-0.126439403059411,-0.00758211964353532,-0.00248837278632039
0.00365083929570428,-0.0592177007499234,-0.00420299120008543,4.82903533595234e-05
0.0216246103885817,-0.00447378198052478,4.48324287835918e-05,0.000703293210236826
