-0.0323877714876523,-0.0585284940355542,-0.00284956642276942,-0.0013091018838659
-0.0159899380068999,-0.0637719277025645,-0.00493669315743014,-0.000570926522929643
-0.0124071978815189,-0.0546021940407146,-0.00327617206572386,-0.000114182543928108
-0.0132358873881622,-0.0365611492672976,-0.00239251558245631,0.000246692053671391
-0.012730352382164,-0.0241004305590103,-0.00214438186512809,0.000835054122234538
-0.00911571267625609,-0.0223862190579028,-0.00185541227241329,0.00150653235295258
0.00775580507548524,-0.0242911985106753,-0.000307191874714421,0.00178557486476437
0.0297420972192379,-0.0220399072364206,0.000156103088702265,0.00126653349552303
0.0336737003590125,-0.017382514901187,-0.00399375882250654,0.00032912727398989
0.028128425600942,-0.0136188277766222,-0.00756768416897851,0.000110850743677433
0.0340917990575023,-0.00459182013272803,-0.00956913769671154,0.000860926611116366
0.04763266290147,0.0139602623652419,-0.0112210535439598,0.00166015840161398
0.0548823892712653,0.0361590015329878,-0.0097777891496966,0.00177957389792342
0.0447488129294323,0.0468240132350677,-0.00587651422021161,0.00154383062130983
0.017822149245874,0.0332700986022058,-0.00372344196295406,0.00146441987115623
-0.00831834064465045,0.0071532517172484,-0.00508285315215492,0.00123395151770765
-0.015883799775314,-0.0194232687414986,-0.00692955508326049,0.000635754719398864
-0.00827199330887991,-0.0449263418460311,-0.00941116534550238,0.000105600131121698
-0.00126774950193473,-0.0565530447989713,-0.0144916411765139,0.000162084543971724
0.00388099749626688,-0.0451534831495058,-0.0190978359175085,0.000637788363338048
0.015136278828677,-0.0220669630449339,-0.0189736739263841,0.000627263953162141
0.0293820803372226,-0.00235623867472842,-0.0163988905722016,-0.000111743671858187
0.0391233306087798,0.0134592144553836,-0.0135803668778987,-0.000665672987204864
0.0476814156451863,0.0245628962146953,-0.0109524717759282,-3.33625114989234e-05
0.0563259277749815,0.0266972824876032,-0.0120193440839255,0.00209960424890389
0.05130947334835,0.0269847053904879,-0.0138748041497972,0.00464360759840658
0.0204697797358012,0.0178054164636881,-0.0160978739557245,0.00596441275367881
-0.0161642377565472,-0.0133094997100651,-0.0191007025744281,0.00543122598796674
-0.0226338247245965,-0.0330008010422184,-0.0173217300508494,0.00355198757458551
-0.0056150188357326,-0.0143715181865143,-0.0132190185549949,0.00161151918191625
0.00431122981321921,0.0128026979724943,-0.0116679302328062,0.000337249709545619
0.00327350915387407,0.0226563125461719,-0.0103498196671511,-0.000474276889020749
2.26767521744609e-05,0.0221226159157424,-0.00503601021792139,-0.00102266103154609
-0.00867914116771891,0.025330468381192,0.000890342614452167,-0.00150480990664937
-0.0153281871257416,0.0323967686203215,0.00250251438303541,-0.00167382007563775
-0.00321708754774107,0.0297847903950728,0.00205778972930852,-0.00107517741490281
0.00781674677327353,0.0156797554229813,0.00255069625180533,-0.000303340501197875
-0.000426523289854944,0.000177100311984785,0.00358644035004859,2.19680302745869e-05
-0.00749036125446663,-0.0148687188307811,0.00161044783410502,4.54161424429348e-05
0.00321810214890912,-0.0269960724378137,-0.00560261457540901,-6.13384831062397e-06
0.0257744886145971,-0.0269255898923793,-0.014280882909614,0.000109165197432114
0.0443897829758378,-0.0155566112244874,-0.0161789152106925,0.000412420976112401
0.0503623165870621,-0.00324902295717769,-0.0138588955404292,0.000913728107568967
0.0456969604728692,0.00476014046955904,-0.013391255364968,0.00190048282736773
0.0415433265611449,0.0081148664393586,-0.0106042473480552,0.00320665169062627
0.0442503834995603,0.00748404722071461,-0.0074897196382559,0.00407599526356024
0.0389569646036728,0.00870408496836948,-0.0051553599852928,0.00395238871913321
0.0171990113605411,0.0167736521739996,-0.00111372357175262,0.00305647275645009
-0.0108063435972518,0.0248346985972981,-0.000174135554443308,0.00213550737772674
-0.0340139417626171,0.0227679969731714,-0.00265431178349402,0.00161217109258855
-0.0479434695462463,0.015229790366259,-0.00491830272224775,0.00124703221210709
-0.0605036336947463,0.0138664931835237,-0.00726725496240245,0.000706911079803644
-0.0736786282683289,0.0145170082969186,-0.00824609470228393,-0.000106100454950088
-0.0747791901557409,0.00926414746383005,-0.00418682633182278,-0.00100842741717357
-0.0614081262610568,-0.000785120457369323,0.000626520658478872,-0.00163609649865655
-0.0499201176142756,-0.0213315883884353,0.000322518627551104,-0.00198168420867333
-0.0504442079366703,-0.0519280240033944,-0.00117687565577439,-0.00224360623374505
-0.0471198326520044,-0.0736686892716549,-0.00125787873683665,-0.00221208386618122
-0.0262443719183581,-0.0781718736343145,-0.00220052568334222,-0.00151537574864581
0.00403893641761396,-0.0783763514790664,-0.00341583102361488,-0.000564590172695769
0.0309987720938328,-0.0782247691998091,-0.00520569994647182,-0.000145275645694741
0.0444331711985019,-0.0724539798481309,-0.0111223282652903,-0.00013021046524143
0.04278507404639,-0.0623660888747641,-0.0155560698696487,0.000321711007752726
0.0360918297248133,-0.0507481328366693,-0.0147511825572565,0.00161625827373778
0.0310083515395688,-0.0422750555158267,-0.0169018036340557,0.00339445697481403
0.0257371889066854,-0.0346032200746392,-0.020088694607692,0.00492011434056343
0.0216027198205855,-0.0236000473693933,-0.0211020457739095,0.00545936908409183
0.0234944553969482,-0.0115944150681457,-0.021891146696713,0.00497390753739352
0.0263822809971853,0.00669135130605229,-0.0211683361773704,0.0039492215400956
0.0228727337977271,0.0277734943056304,-0.0216594587758607,0.00269311233305501
0.014184648224993,0.0297853589989351,-0.0190873519298014,0.00145320372270535
-0.00164543690084597,0.0128004001049929,-0.0085718387320281,0.000366021144521876
-0.0264801873356074,0.00624531037040211,0.00169539613013771,-0.000540849237927951
-0.0478832184589564,0.0362612232311902,0.00574883920791919,-0.0013203595189308
-0.0548605830887523,0.094079293456488,0.00501916545990143,-0.00225332388935819
-0.048512970956958,0.125563573515212,0.00263326291483335,-0.00323791679819099
-0.0312308324253153,0.085084643257377,-0.00209824303262511,-0.0037432141681093
-0.0113636354026202,-0.00161859310015533,-0.00975567797833566,-0.00330627032885719
0.00122986820014322,-0.0676226550335577,-0.0128115811950103,-0.00194832287820608
0.00630631929767259,-0.0839498136200265,-0.00845377307871371,-0.000346456109707721
0.00646186328545566,-0.0730805941698639,-0.00729413156109421,0.000762118333897542
0.0054311204863051,-0.0587535429152668,-0.00989321194054123,0.00112792046385438
0.00868136416571453,-0.0406653324056682,-0.009331405692198,0.00115314179440589
0.022254031386612,-0.0161703457588135,-0.0082338896688639,0.00127985979418993
0.0469604056763112,0.00843656456805173,-0.00613130478065675,0.00136564012490559
0.0725317475441875,0.0274787091298283,-0.00455649791455949,0.00127574554075192
0.0909598990967762,0.0381788779700591,-0.00508186507890217,0.00123335597174044
0.0955709164744808,0.0403523731290851,-0.00516355786980802,0.00134676613617479
0.07906192167401,0.0384211039229254,-0.00730465556062597,0.00173164974019152
0.0475905252083356,0.0353472056787619,-0.011309665976798,0.00217090800629356
0.0219659730430101,0.0300550710863357,-0.0134441304992654,0.00190655117696155
0.0152834579416212,0.0229325187514423,-0.0159182283284417,0.000689406981116011
0.0121036585803832,0.0162282636354917,-0.0197282957312286,-0.000933515606536078
0.00244895260584332,0.0131542485332371,-0.0194761341787182,-0.00216464281204861
-0.0021603687545721,0.0240095119214971,-0.0156530313820832,-0.00239178208003034
-0.000318811114471795,0.0481469944142129,-0.00990719206467284,-0.00215276368877445
0.00197632033436423,0.0717902127312867,-0.00028869257966618,-0.00262934604037852
0.00140248254594164,0.0933967620481059,0.0106366466945518,-0.00397363384701629
-0.00329162712737072,0.0963562563483699,0.0156842033985698,-0.0053686869359689
-0.000926583565159733,0.0625086061748021,0.0106079394009502,-0.00537785590074613
0.011465695526636,0.0318652289371511,0.00276969923372554,-0.00313323808728771
0.0216214676250695,0.0349068810720151,-0.00214131768719459,7.17825545833673e-05
0.0294331783994416,0.0369204216477996,-0.00511616043755396,0.00215303675349634
0.034837263079426,0.0239689830492509,-0.00405543529402148,0.00238360215873152
0.0373177544465449,0.0143111537462574,-0.000830796373312611,0.00148802556515557
0.0380412661584193,0.010399301847295,0.0011759112367802,0.000477731415085619
0.0263761913215096,0.00483880597716148,0.00239272769040308,-0.000358492615510001
0.00107987260199818,-0.00360321782754168,0.00390684535752278,-0.00101572214060732
-0.0234410662052637,-0.00216014007689889,0.00484405282787617,-0.0013160068382979
-0.0378199453325068,0.0177023588643574,0.00263234920981176,-0.00123760213472123
-0.0348140484455623,0.0475980485359626,-0.000959851306457638,-0.00128644549416188
-0.0083722238189062,0.0687043580372321,-0.00398278254174898,-0.00202799297913539
0.0238776192003712,0.0672346696794281,-0.00557735477857633,-0.00286100308864799
0.0344501070443561,0.0490495728812983,-0.00545333630863209,-0.00276913780380438
0.0184750931280354,0.0313735686218524,-0.00374388592410399,-0.00166521256689747
-0.00397496766121441,0.0189286558644586,0.00294669877842013,-0.00014018170934198
-0.016648605599879,0.00600837597300755,0.0140708800439569,0.000543294990237704
-0.0230842057652403,0.00312355174797667,0.0236627202230942,-0.000632027189901811
-0.0271522308246061,0.0196476943575861,0.0262868798254041,-0.00290318315450939
-0.0277617116507193,0.0366366800020264,0.0225683884283687,-0.00457435832087525
-0.021952872499962,0.0367165762035537,0.0184566885974175,-0.00451258243359672
-0.00404449293334549,0.0277401870088481,0.0162243345414293,-0.00302697097906836
0.0157115862973909,0.0213994343142686,0.011571140425851,-0.00131442815141885
0.015319506818695,0.0221383025730896,0.00815324972393251,8.94684498700784e-05
-0.00108404172506943,0.02883158280034,0.0120264504035261,0.00115062095018
-0.0180252073814823,0.0357898271418272,0.0145963884478936,0.00168585325162726
-0.0422968860698783,0.0401784535574818,0.0116905904652259,0.00139547452038833
-0.0750582546825025,0.0417101232554042,0.00815195729188252,0.000469962044521268
-0.0943247189428181,0.0430483571864267,0.00479293205607139,-0.000167545713333828
-0.0875830302340092,0.046987781941271,0.00338849585630491,-7.01659366284791e-05
-0.0673975701699778,0.0480867667252869,0.00497189749965152,0.000262976762555517
-0.0465151219859034,0.0410727742381918,0.00749819232846313,0.000222945353943174
-0.0382593084249328,0.0303581068974669,0.0120403335466931,-0.000549414416686533
-0.0493791275209735,0.0202398477923359,0.0190155552872642,-0.00182964960724303
-0.0544306725833277,0.013751692169908,0.0241305331750523,-0.00288471905865492
-0.0422100037591202,0.0131215402159477,0.0260429176401753,-0.0034435883684248
-0.0384121938665552,0.0183054933193475,0.0264254572062081,-0.0034612021911394
-0.0450559302635151,0.0306989268686111,0.0237705044343426,-0.00276397756440437
-0.039936992739811,0.0458990669224618,0.0184042447304971,-0.00167022873199877
-0.0241062167168071,0.0502662208819107,0.0156091716131461,-0.000632402632820331
-0.00762745783693306,0.0358880267375958,0.0175456867258013,0.000218367165919353
0.000471201088710439,0.0178335481069943,0.0182612247056003,0.000726937262620975
-0.000389255898154265,0.0167610726050945,0.0193237968217626,0.000643865966470797
0.00782246792502648,0.0292509797611961,0.0246084390564171,-6.37507995823583e-05
0.0270068096579226,0.0333173970103086,0.0244304727123826,-0.000663322278663404
0.0378813316255733,0.0189194583772705,0.0169247068152987,-0.000246377354701427
0.0338673997884328,-0.0130375327490567,0.0105500147569391,0.000829209826082071
0.024739129980118,-0.0471766187376963,0.00735340082595129,0.00114795554274772
0.0128455628968694,-0.0458637086397294,0.00722138286081381,0.000132555392239553
-0.00791359679236606,-0.0152484574103196,0.0104904157475309,-0.00119299051542874
-0.0283260113534781,0.0050488074971538,0.015039316502296,-0.00183264500832806
-0.0306339059781456,0.0163265931594258,0.0195199666388924,-0.00162714822196881
-0.02093411345787,0.0277250182625458,0.0211839700227478,-0.000717465469539418
-0.0154516943643453,0.0266308053019818,0.0149780538715743,0.00031882067505966
-0.0161150709425874,0.0141611266586236,0.00517484795290809,0.000966346292053921
-0.0199870694471063,0.00746788461209964,0.00162671216805229,0.00120540261206516
-0.030042837783023,0.00648384132937669,0.00229933656399711,0.000946761193577582
-0.0423320011699696,-0.000992540854691703,-0.000117638132860938,0.000457671473323869
-0.0422329953330449,-0.00956678776538196,-0.00333566109615473,0.000383851393949947
-0.0307274578382701,-0.00659958673045935,-0.00121052362372049,0.000794308636876458
-0.0220601549882297,0.00805728283699018,0.000181118478217056,0.00118092203952885
-0.0242606111877239,0.0366545011412157,-0.00208805283589342,0.000954252693821699
-0.0342061024866568,0.0620671903250389,-0.000251511379975446,-0.00027989911411524
-0.0393309983439689,0.0514427905344453,0.00262496562108593,-0.00208469087418424
-0.0290944493163866,0.0195058908913503,0.00584562196087609,-0.00337779850695632
-0.0121362167149615,-0.000941996288963569,0.00925200416455766,-0.00347558466219465
-0.00350040862358168,-0.00892652393920117,0.0077373202331677,-0.00242910556789693
0.00192416090556025,-0.0121721651767575,0.0064972574580936,-0.000902787374035182
0.0106488426917214,-0.0112815475380827,0.00761648856923909,0.000328465342679055
0.024077782168151,-0.0107547693396225,0.00514916158954643,0.0009751269473543
0.0460914014646951,-0.0152123606849967,-0.00113008662892481,0.00149494858287184
0.0673211618666992,-0.0198870976019864,-0.00730369115416281,0.00221337341773202
0.0784993958282054,-0.0198526375662532,-0.0103538355993296,0.00279369136026497
0.0697946876087433,-0.0161091840266284,-0.00906022756217254,0.0029679361490222
0.0283892232117337,-0.0128666667274504,-0.00705057863810195,0.00270178503974953
-0.0171229339790665,-0.012924515437406,-0.00623152849183482,0.00213009021378457
-0.0233549731711228,-0.0145858793746624,-0.0052597510507183,0.00141487995631259
-0.00276883444229654,-0.0149081634523508,-0.005330334738451,0.000251644150992128
0.00294054142195231,-0.0131885729281639,-0.00637884478078235,-0.0016252822172177
-0.0105111173615311,-0.0109000218439974,-0.0080309863755704,-0.00338298096420184
-0.0193056563406587,-0.00895795702147534,-0.00949951056324654,-0.00383936251613346
-0.0236226682033786,-0.00644178499689522,-0.00805319034455308,-0.00285253129397917
-0.0361009852242894,-0.0035161602053295,-0.00338353148945651,-0.0010486759024341
-0.044822294448059,-0.000254369048514863,0.00137940208520124,0.000784493126437847
-0.0386003741150536,0.000764491583223365,0.00110434468865884,0.00195806973094482
-0.0266227050178638,-0.00480761093726172,-0.00280906619818174,0.00260570058461898
-0.0155736308833849,-0.0104693686914515,-0.00457039250566651,0.00342499742969616
-0.00128587112697709,-0.00573919312687984,-0.00319716876188819,0.00447163895388343
0.0176163483104669,0.0108115775579664,-0.000968159576216764,0.00495779746970244
0.0323021976501652,0.0295975447314892,-0.000604745951791824,0.00440243819834388
0.0394476258573864,0.0322787205553796,-0.00122174374784691,0.00328802264096259
0.0406975638141821,0.0107146267670231,-0.00177573757301136,0.00215065120225303
0.0358985257106516,-0.0155582895308287,-0.00431895333401378,0.00120060694111096
0.0308529865231381,-0.0243630746741692,-0.0100490900103131,0.000667140829647962
0.0299514848451709,-0.021225457880432,-0.0138194575872671,0.000694569230291612
0.0342938872873539,-0.0203670559610107,-0.011362896040485,0.00114336060541724
0.0453002332830213,-0.0219451620682894,-0.00880347975064486,0.00149229332862557
0.06331338805276,-0.0223267437915474,-0.00978004745317678,0.00143205897678903
0.0821085259829134,-0.0222244407276655,-0.0127963635422836,0.00110190880283711
0.0883502123750659,-0.0228093089894405,-0.0157907844658408,0.00067800676101865
0.0811336615177353,-0.0225411201940439,-0.0170075429540387,0.000155822802877625
0.0714939892130731,-0.0191436117582102,-0.0154590311739683,-0.000644662200739429
0.0627186717523245,-0.0165666898189942,-0.0136952186085084,-0.0012761288349773
0.0530442163742047,-0.0177006539260139,-0.0118742346696498,-0.00092796805517572
0.0426272596900715,-0.019274125724337,-0.00585079307364599,0.000397313430204977
0.0298578809503411,-0.0194448253839187,-0.00241017506469631,0.00196661878366462
0.0237082242556129,-0.0219160326859918,-0.00317061245790889,0.00328832266106473
0.0378768630230294,-0.0325780568675616,-0.00458501532535783,0.0043299383460466
0.0484316017771512,-0.0460225300987206,-0.0089633004954317,0.0049689405964649
0.0258755762496283,-0.0493239457101186,-0.0120165977328414,0.00504488139685166
-0.0141443113953819,-0.0490793547711296,-0.0127903759300622,0.00460938173298624
-0.0469023417838918,-0.0670150623597841,-0.0137750742914076,0.00380049767370699
-0.0552750368033943,-0.0872906025557781,-0.011190647520542,0.00270217956972716
-0.0357341828174978,-0.0758090105756814,-0.00402404105509893,0.00153050121780704
-0.0144287231511884,-0.0459785946335605,0.00150647479578727,0.000713609268425152
-0.0102680651548548,-0.02559407906241,0.00101107207467047,0.00057916550376162
-0.0157730477043437,-0.0167205255133121,-0.000885322786959378,0.000943848884487278
-0.013659451226563,-0.0167196823386634,-0.00151277596227361,0.00116528435790768
0.00195097703926474,-0.0224895541078567,-0.00211465861185572,0.00078535021839232
0.0229549938067412,-0.0177004381824022,-0.00311945598779005,-8.39052706586663e-05
0.039453353685154,-0.00180776125963478,-0.00388618171358707,-0.000952913171276041
0.0416692772242826,0.00634101620979863,-0.0020259969220552,-0.00150014677473375
0.0352129152821936,-0.00545586655678384,-7.19881084614588e-05,-0.00202025782766137
0.0317497505085067,-0.0481177415439165,-0.00546302870808546,-0.00225502981046273
0.0320530273946829,-0.093241532727343,-0.0144518229345117,-0.000910694709671511
0.0334599512145379,-0.104308914966691,-0.0126035669280936,0.00169324805018281
0.0257970520555159,-0.102126272342719,-0.00683092039188497,0.00346853850828737
0.00345991168064511,-0.0975250844407059,-0.00904550683399194,0.00406839052388731
-0.014973241145194,-0.078585924799791,-0.0106880655960719,0.004426910362461
-0.0183913702098804,-0.0379695414741665,-0.00766679197234984,0.00410686119462262
-0.0155159326589673,0.0260709868838131,-0.00458860697532769,0.00220938445940599
-0.00807954304540262,0.0557858378039407,-0.00526910967068058,-0.00106809687576774
-0.00175160307612679,0.0186011183351115,-0.00970862132129797,-0.00358767475628814
-0.00663142452982239,-0.00708031587180151,-0.0104518605770831,-0.00332766825805823
-0.0189263820622719,0.00639538440325079,-0.00503099259299749,-0.00173809946902609
-0.0275862664916085,-0.00505568598361961,-0.00128224109415109,-0.00105911251922251
-0.0289664174034349,-0.0456931313117043,-0.00492916772644894,-0.000734932986703476
-0.0229839567348396,-0.0671255147067041,-0.0105905117084923,0.000452197373565609
-0.0083203471710939,-0.0630473955692387,-0.0121080579108064,0.00187556204684892
0.00268610413874901,-0.0534866478627669,-0.0111773239809075,0.00198501331825752
-0.00078006504712717,-0.0444757556576408,-0.00860426530932697,0.000348001037820648
-0.0142557624215146,-0.0387876797313696,-0.00159063803777197,-0.00198721747894995
-0.0342502214777103,-0.0389274897968366,0.00587635649257015,-0.00363969135734825
-0.0499535323415282,-0.0411341944690476,0.00924498354148495,-0.00362340380454878
-0.0375384287947042,-0.0432207960725989,0.011248074979821,-0.00219353370407989
-0.00134564841445017,-0.0342098458223881,0.00768452979507434,-0.000849829077434973
0.0226841104631549,-0.0129029134719774,-0.00047550186633351,-0.000574901914881231
0.0285442849663189,-0.00575908186816967,-0.0060585472099859,-0.000651205437937693
0.0401497597208849,-0.0132631883358839,-0.00960028674310379,0.000133797004357028
0.0624221815421674,-0.0171102649140084,-0.0129071740463316,0.00154651397767996
0.0810266955407666,-0.0204619753298448,-0.0179438085892184,0.00246960177152668
0.0906595012090076,-0.0241578939075728,-0.0251479655966982,0.00259884762333701
0.0934023740646645,-0.0210568843296429,-0.0306425398704318,0.00225324416850775
0.0901382929793735,-0.0127982202032671,-0.0315851180161959,0.00159381298286187
0.0838578256631352,-0.0080577770610261,-0.02930549183974,0.00057467463777201
0.07594813138484,-0.0130566982118635,-0.0265788376820006,-0.000826615660781951
0.0581923557627838,-0.0173392714089982,-0.0266399130881326,-0.00211011604354442
0.0139348641259326,-0.0122472011575086,-0.0245928647285934,-0.00245735927009557
-0.0532266265946617,-0.00470589617759872,-0.0140506854804149,-0.00185475912920841
-0.10524582569365,0.0102789081487374,0.00173158871257075,-0.00134834445206664
-0.111906002796288,0.0454878278797594,0.0199219839036652,-0.00202547640366104
-0.0864017151266345,0.0957756898399309,0.0326359150401327,-0.00420173534454036
-0.0476674129548121,0.134161937057256,0.0316634123717604,-0.00687505618690875
-0.00303025603235567,0.131003701524434,0.0215771119742754,-0.00775849282911538
0.0286885587368041,0.0847996098885741,0.0057624303411144,-0.0054153907615837
0.0362573427920497,0.0344354923569202,-0.00935887097231702,-0.00111559408186053
0.0238309127980261,0.00933416678932072,-0.0163603463425177,0.0025252760893571
0.000648023826887029,-0.00756539243842114,-0.0161303215475894,0.00384269718434864
-0.0187341846689987,-0.0276502314287361,-0.0105667898928093,0.00287886434414284
-0.0227430780558124,-0.0363224888019838,-0.00163510136018226,0.000822460246019484
-0.0057004022115873,-0.0294222896284157,0.010356998563812,-0.000919717348438525
0.0168290856872789,-0.0119166409678835,0.0227655854596982,-0.00186616110899626
0.0175310207102487,0.00401246947504184,0.0253904099796762,-0.00283966439669363
-0.00195672198045767,0.000291278730120324,0.0119634635285056,-0.00383922108351942
-0.0188531429236236,-0.00938084874141337,-0.00201339987714888,-0.00326441480959272
-0.0199473245112374,-0.000739519590876217,-0.00139761478646429,-0.000967244571557249
-0.013473720521621,0.0164089690874552,0.00372777576051892,0.00085132502036373
-0.0142400008035016,0.0262647408623531,0.00526551089044608,0.000809434844596168
-0.0261014393550534,0.0321536312350703,0.00862244927698642,-0.000364219671146232
-0.0491612962080126,0.0390333343095488,0.0139888600852097,-0.00164366973387309
-0.0738992812757494,0.0414571847426562,0.0127166255244734,-0.00266065960798731
-0.0800844239369544,0.0398058216382765,0.005227515523847,-0.00326585361569519
-0.066748174090712,0.0421549308177343,0.00248741981584313,-0.00317407927163009
-0.0542715379539861,0.0493518183562187,0.00617359112795344,-0.00237053484563877
-0.0534102556237117,0.057613984571193,0.0100296449939866,-0.0015284880192207
-0.0620972845175108,0.062716982023229,0.00872677808626755,-0.00100702096529533
-0.0772876783541484,0.0627068964942589,0.00611706426584277,-0.000412186758921553
-0.0905675345123828,0.058328706247881,0.00610355966724792,0.000142140013988274
-0.0931493560852571,0.0560461220310014,0.00675641420135827,0.000115892798147288
-0.0826328121988902,0.0551310701287004,0.00783333177650813,-0.000618074198561495
-0.0560604413369417,0.0434127168986738,0.00692254182808854,-0.00184327752275787
-0.0235751727347995,0.0245857319448086,0.00581363777371773,-0.0028627963897002
-0.00876223811972399,0.0122309266627434,0.00943082801072808,-0.00307287655692422
-0.0117533912547159,0.0100131770088418,0.0132950878372115,-0.00247338101982235
-0.0160565162324829,0.0101207075548708,0.0120386084157164,-0.0015634574715264
-0.0169063726271268,0.000515753729778108,0.0103099996209875,-0.0012476582010043
-0.0181203166479632,-0.0188770429489263,0.0128638460887002,-0.00145544565493897
-0.0231821914381121,-0.0301433084322039,0.0193273093440091,-0.00130443059999228
-0.0356708844311555,-0.0255886075968105,0.0264677156545982,-0.000937092582602215
-0.0537345266109059,-0.0188997895080992,0.0300626006970716,-0.000941080926543545
-0.062255419380736,-0.0187122732561131,0.0292528224803182,-0.00140893326479387
-0.0536388399300213,-0.0240944999208595,0.0246735324685787,-0.00217260231886574
-0.0410093204027785,-0.0234169331190818,0.0196024284798928,-0.00258654674984083
-0.0394098426384958,-0.00689263467244547,0.0177598869274548,-0.00207375789082279
-0.0468960310640385,0.0114579984841239,0.0140467015425728,-0.000978748438632432
-0.0461308623880698,0.0166838687475112,0.00565079443935414,0.00024118406257778
-0.023833982414461,0.0122365682455299,-0.000445588629639171,0.00192346840913867
0.0109123468638837,0.00611827925603424,-0.00190389948635009,0.00381012726581781
0.0311044169683947,0.000981096512049584,-0.00276508544434885,0.00450347503169875
0.0248272816224062,-0.00225856253130552,-0.00370884472675112,0.00375723243732037
0.00525986577776588,-0.000361292864423502,-0.00454884913844937,0.00288591098714041
-0.018698036572546,0.00531567446778041,-0.00520521633282956,0.00266524010626888
-0.0424574350831072,0.00861510868216168,-0.00551468120352924,0.00265912144463836
-0.0446774392417985,0.00723183038591167,-0.00427917258624032,0.00206362086567132
-0.0123912207597135,-0.000135050335906901,0.00102921122219904,0.000473038630160523
0.022169648388557,-0.0121110850855845,0.00831488797921472,-0.00172343346277505
0.0196359943184634,-0.0232554332205697,0.017952273142835,-0.00400696840819191
-0.00901527612754008,-0.033514970997329,0.0282917794206998,-0.00583290030087874
-0.030763163009239,-0.0451971480729997,0.027543571431268,-0.0063810277238232
-0.0382170796508291,-0.0537761289358577,0.0147745379431951,-0.00548821272579863
-0.0428953370897127,-0.0534886091763207,0.000198843132025939,-0.00357955708560959
-0.0483764287257599,-0.0446968545113954,-0.00952965396496446,-0.00124920012130778
-0.0467676636420641,-0.033311970834189,-0.0104562573818026,0.000780169026684753
-0.0342524866979981,-0.0250858475967576,-0.00211508450577121,0.00228322360959644
-0.00893306139484244,-0.0153692980506055,0.00933592600706527,0.0032849217981492
0.0214507142033079,0.00048271646304579,0.0132791837917111,0.00358664246820022
0.0338563104895615,0.0155990599458943,0.0142393211679672,0.00299362471630448
0.0269213430612166,0.0255783322913121,0.0186161699524721,0.00171383471747268
0.0274507140347524,0.0267834463201569,0.0212056226587886,0.000501145321688822
0.0478886249056095,0.0150345737984715,0.0210160182870087,-8.08433578042493e-05
0.0707059802811475,0.003765430108991,0.0181543838080949,7.02942861089632e-06
0.0799711804530894,0.012329242140889,0.0122352775256285,0.000559676359097167
0.0721487077793322,0.0367238833886044,0.00524244342132425,0.00115094827557439
0.0480673831953588,0.0504821772112254,-0.00191493952212191,0.00138511564150246
0.0247524028983208,0.0365802268359985,-0.00856456723729894,0.00114184843409731
0.0150068618218277,0.0117237664842801,-0.0114187655649491,0.00073927840343773
0.00902819169305624,0.00209312064984131,-0.0111067977393929,0.000735016935267679
-0.00428470239756806,0.0108736294294569,-0.0101984415277112,0.000947566081362888
-0.0302121351713039,0.0187825630807882,-0.00903731402389083,0.000436428769619727
-0.0670257988648389,0.00698858299494362,-0.00903471606660529,-0.0010628076998379
-0.0877823212398689,-0.0126947588223034,-0.0092958885053131,-0.0025712237148358
-0.0617879381255953,-0.0150569900440365,-0.00740258702664809,-0.00303771846547029
-0.00729955775224502,0.00138242749154959,-0.00374097902978633,-0.00237100483618314
0.0323728129982578,0.0213070542050157,-0.00293309953505696,-0.00111359407099526
0.0433287374060176,0.0353666607871771,-0.00398680069287167,0.000415743521270633
0.0308467591276397,0.0474907606674436,0.00049131084260843,0.00197790353945501
0.0103204052801792,0.0529581758071244,0.00411607815302943,0.00294563169060355
0.00502727885845507,0.0414332164619679,0.00134097077102213,0.00312504291969865
0.0157671724520835,0.0220036217391004,-0.00160844898116628,0.00300691579544304
0.0194361224656302,-0.00339087045480643,-0.00278102819054752,0.00270113383269994
0.0110548690916337,-0.0308222476689273,-0.00496429333644914,0.00202400700468672
0.0190508537368057,-0.029822613877171,-0.00895725169343491,0.00111852716051989
0.0595660345771502,-0.000640170572302746,-0.0109126001563849,0.000476540176297637
0.104874044271212,0.0199088426117855,-0.00929428915712543,0.000371707469557996
0.115893205095658,0.0231800110310501,-0.00574362819989485,0.000554499720966538
0.0832580082206168,0.0241555673011342,-0.00258027006381957,0.00108326003016519
0.0335142888123672,0.0224404582633951,-0.00353088280919508,0.00184141264604808
0.00426357332966365,0.0135345124270361,-0.00964868979808425,0.0021942971646565
0.00447728680880335,0.00707444656035445,-0.0169125526669303,0.00205210506260315
0.0136855773528216,0.00944838121045646,-0.0190538508800721,0.00167943593517694
0.0164452018579119,0.00844318953895287,-0.0179367769641595,0.00122172285062023
0.0131805869001138,-0.00271452432099642,-0.0185857493182183,0.00098681091776052
0.00200350138199551,-0.00778628485237316,-0.0176675481770705,0.00148848978036892
-0.018411271701507,0.000295467450299666,-0.0117215213768782,0.00287581242991174
-0.0375893165285815,0.0117887522715213,-0.00594791123025326,0.0044913439093777
-0.045592932039459,0.0215111534954616,-0.00683105746283538,0.00550965772161369
-0.040713279098792,0.0241889199491458,-0.00778928438571875,0.00538143494916722
-0.0268816906310489,0.0167826529654739,-0.00720519056672979,0.00411073244347232
-0.00643892380254785,0.00606622035350115,-0.0101201843578992,0.00258086338400289
0.0205030823456904,-0.00310281641246093,-0.0144911933982096,0.00136533222507538
0.0441571056075542,-0.0145989277702468,-0.0197261243099238,0.000376529276411807
0.0430960490779961,-0.0262221279731846,-0.0212421193477162,-0.000272581744397545
0.0135801445745805,-0.0323594170670012,-0.0141314101269234,-0.000395920234748662
-0.0105935481250541,-0.0384898613893868,-0.0077936719341741,0.000289843515516562
-0.00361372996544415,-0.0474978510763016,-0.0113078975226435,0.00192147708107453
0.0159373333454729,-0.0538515033591701,-0.0171176757744993,0.00377237483075569
0.0254578549281921,-0.0526065142137733,-0.0189391218070294,0.00484814785433379
0.0289779995070149,-0.0429196924244304,-0.0199517560359048,0.00479846432015473
0.0307057435021873,-0.0358009517688252,-0.0248631123544575,0.00406021082741218
0.0266420506486286,-0.0376472686369765,-0.0318991571541181,0.00365721910982487
0.0263477400114054,-0.0397090031540776,-0.0330082718233469,0.00382706202859716
0.0333389112091279,-0.0410530663012814,-0.0293568996533839,0.00350608257922094
0.0320064305004302,-0.0424973076047779,-0.0242077967742265,0.00215817381589055
0.0167297643758492,-0.0396992519771185,-0.0145840558966747,4.37967284009039e-05
-0.00285734178939392,-0.0231898973323934,-0.00120146074063324,-0.00210920337726297
-0.0166668536177876,0.00866583957381575,0.0129998736254748,-0.00316529546013875
-0.0229093705005753,0.0214283639345507,0.0177150428975977,-0.00309223414770755
-0.0201071035937492,0.000395661272374908,0.00758493760038252,-0.00220587120346845
-0.00577725253681394,-0.01702777010933,-0.00375869596991747,-0.000286988987825709
0.00525155318155047,-0.0120444399950216,-0.00821418325599326,0.00217043225091882
-0.000889836505955394,0.0043334347779334,-0.00659858288904482,0.00418599887159815
-0.0165089165729343,0.0355877882391933,0.000922538486555026,0.00465783324433173
-0.0233450184670859,0.0816756819506406,0.0053167333769176,0.00277454650897875
-0.011446336338833,0.100695690462144,-0.00047443298934189,-0.000773391834704062
0.00921239716962489,0.0577390224840295,-0.00433732930090715,-0.00387090853566128
0.0223894236274244,-0.00920140705467018,-0.000939067919364905,-0.00491378702311036
0.022008800412752,-0.0407851771518659,0.000720155029462266,-0.00439635453332276
0.0155150073940705,-0.037512276329516,0.000814988023099136,-0.00385925098148801
0.0124875849390686,-0.0349332129350988,0.00186732468232235,-0.00386558593950056
0.017567114745156,-0.0399135286321656,0.00120647535712921,-0.00370606887336907
0.02438468698055,-0.0395892851589047,-0.00283153228848123,-0.00274644021846849
0.0220738101378529,-0.0295571733830613,-0.00541787742538601,-0.0013130927920487
0.0113087082022769,-0.0116549037999425,-0.00214707634659611,-0.000337349211791949
-0.000311042522179821,0.00605124861306925,0.0039969740235867,-0.000279388982131802
-0.00689958358952268,0.0181481745169378,0.010537598069363,-0.000666017518793621
-0.00970821839424935,0.0272113781648463,0.0152524163220557,-0.00115272310025521
-0.0100691903237093,0.0354802274099919,0.0178668279329483,-0.00200765411876409
-0.00634407693780127,0.0415374252011445,0.0222221804133555,-0.00320048327069574
-0.00303692483158988,0.0394863445924503,0.024389429127332,-0.00403889043959351
-0.00430145397199784,0.0310860723073222,0.0214806575560478,-0.00382862991637003
-0.00980893314422269,0.0304478713378025,0.0204467863373653,-0.00284670128477885
-0.0181596846001642,0.0412368541121535,0.0205531872009987,-0.00224792597944586
-0.0242697254202732,0.0501645886070523,0.01843696259744,-0.00268397730233282
-0.0248660547525241,0.0456806834306133,0.0152059394568918,-0.00363644411960827
-0.0220295063506989,0.0295235016421827,0.00906165900839204,-0.0040705678432432
-0.0197359649216489,0.0158701088930253,0.00487969916008118,-0.00371784347926279
-0.00991365906089043,0.0105608791476366,0.00775894046318528,-0.00311663359829625
0.0194742173239581,0.0100126230056227,0.00887926420256256,-0.0026975918573342
0.0500561678558614,0.0156725871089862,0.00472370119506105,-0.00268898999416475
0.0718090738281339,0.0164129014792984,0.00354677637592991,-0.00295577048364123
0.100776124012379,0.00121190060553535,0.00395485265099419,-0.00291580225659348
0.12149423897127,-0.0191275850339512,0.00147188318534632,-0.00222227093044093
0.11688807707208,-0.0301509011734418,0.0025598962777495,-0.00132329487675737
0.100529129857439,-0.0257437952168859,0.00850830951669744,-0.000978493301298036
0.0823382603234129,-0.0122030331779101,0.00963129883931743,-0.0014474232222442
0.0639572034136389,-0.0021389206023231,0.00627473225917179,-0.00222321993833403
0.0433681783643357,-0.00146334240577686,0.00444310657596883,-0.00237401542949815
0.018344859243637,-0.00978026472161105,0.00631009780222663,-0.00165896774693027
-0.0100640605225064,-0.0207103479020867,0.0141811250624827,-0.00103261502935254
-0.0324280357130469,-0.0242653014232939,0.0198929509480435,-0.00111754230711095
-0.0334971819498034,-0.0218569176437199,0.0177139354899076,-0.00157788432792724
-0.0259297626630944,-0.0240045338441844,0.0110901311047148,-0.00175286823320069
-0.0412307035249351,-0.0287919096542306,0.00443850483660966,-0.000911038132230147
-0.0817609873681851,-0.018171282503779,0.00427887261677547,0.000589567994503065
-0.120754821683809,0.0284622061982694,0.00862531409158148,0.00160029580014823
-0.127358265432651,0.0995202562372628,0.00899951571380867,0.0014144695025307
-0.0867658343105056,0.14129519664532,0.00713677169476663,-0.000325520187495435
-0.0176378466562705,0.117734485059784,0.00950408131304592,-0.00289385956317995
0.041851350083923,0.0480826423780271,0.0116134957692659,-0.00425236625985338
0.0709322387016839,-0.0209222933095278,0.00606431485744885,-0.0032937635723139
0.077638454787071,-0.0587400305731836,-0.00269119776585304,-0.00098706445895454
0.0769003903661113,-0.0675613803008782,-0.00393328025075233,0.00105736492071633
0.0716968036845883,-0.0637609543728399,0.000901236791111867,0.00198943026604151
0.0628182945857556,-0.0541232154298846,0.00405746827548157,0.00214718094021278
0.0610710397461677,-0.0401673014886275,0.00485830106878392,0.00222668215144351
0.0612925991106223,-0.0326365527972451,0.00534579855093793,0.00222290867694021
0.0404935114639596,-0.0311006620428824,0.00746597299253904,0.00206225460161915
0.00383499584933954,-0.0241172599343501,0.0090389558479477,0.00194821756911058
-0.0236550059356047,-0.0151254040374143,0.00862156239074768,0.00165217270058183
-0.0366833828194158,-0.00665729490438127,0.00960666878563115,0.000773028823698407
-0.0475535129567027,0.00554022350305408,0.0105051135499281,-0.000957066854298577
-0.0621654558151832,0.0187753404141681,0.00945740689459501,-0.00323678942782494
-0.0731572005995202,0.0322287946296505,0.0108273497371528,-0.00484822278895223
-0.0769485526011702,0.0457836599127999,0.0141059758910181,-0.00470954064360485
-0.07520827605182,0.0490882524337446,0.0122883569113099,-0.00282981636662971
-0.0655998135176509,0.0385644520629705,0.00771693145255158,-0.000133464131718509
-0.0509153537680744,0.0280398603761302,0.00733761470941598,0.00227553792503411
-0.0427505702804257,0.021304927360939,0.00898118413366155,0.00355973883449863
-0.0467606431021334,0.0118920959787864,0.00891481603893063,0.0032519334843706
-0.0570445906669093,0.00242656208933592,0.00761023412246319,0.00177644220072053
-0.0629876943347071,-0.00123451902074773,0.00702794074179628,0.000435202393659127
-0.0548104521792163,-0.00193175852667651,0.00704463389248386,0.000255246598466384
-0.0339021720873786,-0.00548195399590466,0.00688096745042432,0.000942790569281249
-0.0115149330959723,-0.00854391569800673,0.00742083031852403,0.00135800510806928
0.00906315882770064,-0.00652391435330264,0.00435570276642956,0.00132102409197033
0.0241844468118047,-0.000125304650150337,-0.00125111653456837,0.00157431853047193
0.0246741319864193,0.00466752710727974,-0.00223973987328371,0.00227778076289465
0.0172028049266405,0.0022567476388963,-0.00115516757339866,0.00283824474510484
0.0121928707742194,-0.00477288368227519,-0.00120866572214023,0.00267689560624688
0.00792273225174554,-0.0117788108231653,-0.0027193785929086,0.00209271669866526
0.00758916363785115,-0.0157366882815091,-0.00486578884411184,0.00175944433556195
0.0154540155869743,-0.0138365057034543,-0.00737043836208611,0.00161116977728584
0.0237639831205241,-0.00877433838237084,-0.0124904571917262,0.00127140266588067
0.0231535557340408,-0.00195313106898151,-0.0167198880881917,0.000695187005462902
0.0104694135012209,0.0114160044735112,-0.0154915109793887,6.15161807236181e-05
-0.00854884254272827,0.0259454399293655,-0.0123298376149534,-0.000201676336595938
-0.0192848658187701,0.0300943279864858,-0.0112005462369547,-2.39226443305045e-05
-0.0143214481766258,0.0273758857306809,-0.0118512308339698,2.90674675290726e-05
-0.00823767435577193,0.027627124856849,-0.00773656296153385,-0.000138965859131393
-0.0181411538696157,0.0299263742775087,0.00255829045762501,-0.000173691198288618
-0.0301423543549294,0.0278915248115266,0.00463069579849272,0.00023767860538964
-0.0168080591625644,0.0189910849403005,-0.00190889128571944,0.00119950913313681
0.0117768361292933,0.00460648684406667,-0.00460255008808688,0.00205930262873925
0.0208037218211407,-0.0111769392846732,-0.00587052464189566,0.00213867084273218
0.00467392798726538,-0.0213420798448478,-0.00624524368118136,0.00182244825231961
-0.00945783029558903,-0.0227389703713238,-0.0026679362618818,0.00186771067421231
-0.00564218564850356,-0.0193257118628559,-0.00219121791757681,0.00258039096865967
0.00427329004136367,-0.0201284560412514,-0.00621312487029503,0.00389605197820874
0.009257552765383,-0.027952793535319,-0.0113778914420449,0.00540936396145102
0.00920960231028227,-0.0348145677861268,-0.0153339642584895,0.00651362109475503
0.00715228949366925,-0.0400402449548831,-0.0137967327031335,0.00685090946866156
0.00989674593441583,-0.0496125059223246,-0.00633053398258545,0.00609230646640952
0.019575956068439,-0.0583281118414142,0.00259438060666701,0.00410515618789081
0.0220017350687474,-0.0586062169337277,0.00684686490967685,0.00168505351742981
0.00958163803998727,-0.0551470588041706,0.00446160449142182,-0.000206187913168645
0.00284641033260251,-0.0429106625189824,0.00128351859361557,-0.00150472613273362
0.0218746861422287,-0.00969995813663332,0.0020633583554227,-0.00271032374515055
0.0567292220586514,0.0265475706116244,0.00455215554592957,-0.0037938944164762
0.082641711288327,0.0344520267201699,0.00631179632462331,-0.00447935406230108
0.0877835549101788,0.0168383847764462,0.00481329362407892,-0.00461862814121891
0.0710248368752755,0.00630345119865775,0.000747196428248054,-0.00380746730856188
0.0368379110875305,0.0173982231707997,-0.00285506504817221,-0.00210589975842919
0.00201008943314013,0.0406696138273355,-0.00428955008363148,-0.000265979948830156
-0.0167317972728295,0.0545917413988311,-0.00323336818875047,0.00099512992652398
-0.0196453429415493,0.0382436644159716,-0.000441696092834363,0.00170016705410748
-0.0195356655619493,0.00485127397572606,0.00625718121199062,0.00238427615452226
-0.029178043569794,-0.01577097136822,0.0119644962107501,0.00323084930558848
-0.0522137985008797,-0.00738787712748164,0.0126979184503675,0.00390062921434692
-0.0777700598386304,0.0178206573108087,0.0142560854051338,0.0035876051340537
-0.0912561095768489,0.0189670851313794,0.0160592119484112,0.00220067216799367
-0.0965101440836857,-0.0210264139909253,0.0158994972204927,0.000903772619463101
-0.097020611091888,-0.0711393666151651,0.0142618439089168,0.000402874876036227
-0.0648649644806195,-0.0869580083378131,0.0097969292788726,0.000250530025802996
0.00856020313932038,-0.0579932503016209,0.00695817792364013,-0.000130605612784119
0.0738461420666253,-0.0196626554946705,0.0104043941247516,-0.000800773393238305
0.0870386893683097,0.00513426614310262,0.01477026681258,-0.00136739786099875
0.061734530486195,0.0180559611342547,0.0139390666966228,-0.00149604338105865
0.0393238675594867,0.0132116638256703,0.0106342430684039,-0.00147871631085243
0.0395656595573255,0.000478256380408121,0.00897253992656364,-0.00189069112664384
0.0518121602497527,-0.00218940498791005,0.00858216372952527,-0.00286973583346216
0.0553653045396199,0.00319878291422812,0.00530445452623003,-0.00382009002156999
0.0387949690973722,0.00843575018790324,7.65504171968898e-06,-0.00406088323943361
0.0097155685491148,0.0122113643382876,-0.00117494076317395,-0.00347808333692521
-0.0152172801765204,0.0162927260669386,0.000789489298169587,-0.00217499378231085
-0.0328282110401924,0.0178684275627473,0.00415888392926889,-0.000487943205818387
-0.0465206248577143,0.016097631885234,0.00787274652658914,0.000929737437069025
-0.0533786827672171,0.016696063611979,0.009336367582766,0.00166353927510502
-0.0519844115286148,0.0187813256638779,0.0104375829855697,0.00176588838137713
-0.0403200822296219,0.0140563126310347,0.00830992735121673,0.00175502680506677
-0.0242669919545749,0.00240893062804178,0.00291533554496254,0.00199766325691863
-0.0208405176660277,-0.0098634329925699,0.000566503478691969,0.00189941480297526
-0.0261012025890869,-0.0171278363012751,-0.00182903931917782,0.000730025459799798
-0.0231833868874827,-0.0137557767064485,-0.00630628013614746,-0.00106400986054671
-0.0121991755126168,-0.00366123457501961,-0.0106734512400661,-0.002335208302896
0.00122198493648535,0.00219580718114952,-0.0133664752003226,-0.00255928374182426
0.0110567670869268,0.00241678700594847,-0.0117075941012305,-0.00209420407226884
0.00948755558748833,0.00171127986973031,-0.00908028798243532,-0.00157855039439554
-0.00663515826897897,0.00353538124290145,-0.0100151575191934,-0.00116385978038634
-0.0280602565817136,0.00978790229853551,-0.0111673305951677,-0.000917330512901885
-0.0347367347694608,0.0140392205656268,-0.010262232093172,-0.000958816430495337
-0.0191839719989647,0.0103013223699564,-0.0112913021163734,-0.000659135476386804
0.000685866277751013,-0.000264806524072232,-0.0138002014020068,0.000272632649902265
0.00740704741442703,-0.0140340502151577,-0.0122133351300625,0.00121749765323211
0.00887357349234021,-0.0229106871518292,-0.00925003031444781,0.00178388933629244
0.0155065908984241,-0.0251493818369734,-0.00864072479183916,0.00196076995191163
0.0233131137748671,-0.0255411582559189,-0.00550055825011658,0.00180299983215481
0.0291398905174868,-0.0216833677314953,0.0018829400035331,0.00130442025413442
0.0341933785419557,-0.0113382076775262,0.0120195778960164,0.000449525847331425
0.0322555863663728,-0.00185641124418547,0.0173691383071512,-0.000602768817312977
0.0215947794432798,-0.00267416277720337,0.00946515585967973,-0.0012288444740739
0.0179090768993372,-0.011859782355786,-0.00322429851131175,-0.000695756465833184
0.0282651203839641,-0.0194386869076323,-0.012695270112103,0.000618485941409995
0.0382065544738013,-0.0250237216713009,-0.0176818931074028,0.00154133433108444
0.0317855105000853,-0.0323888382395794,-0.0145549166894601,0.00126672538168193
0.00969981814953182,-0.0370484700917508,-0.00784712035335876,9.25401774201713e-05
-0.0173775903839563,-0.0381213840574614,-0.00598637537716592,-0.000695139166619556
-0.0492286093241714,-0.039740790293506,-0.00962599249295411,-0.000519784489522797
-0.073888387323587,-0.043819282992024,-0.0135121406131754,1.63964566796041e-05
-0.063113042626871,-0.0444071128253447,-0.015514855940499,0.000412335868478245
-0.0311269107925348,-0.0227958777909919,-0.0165941976936315,0.000272218090711101
-0.0142726058431526,0.0125379474263653,-0.0165285998017307,-0.000733198392405655
-0.0128674152262822,0.0300761916873848,-0.0128745077017464,-0.00206220075025688
-0.00975233562379862,0.0249763211177459,-0.00615321672208008,-0.00293693311663344
-0.00231744555429762,0.0151242540303856,-0.0017733566077903,-0.00318031643300073
0.00458820036019728,0.0129582333104275,-0.000674604750610829,-0.00270446699048497
0.0225982678999435,0.007301310238004,-0.000960996211617902,-0.00152118788340076
0.051624880577794,-0.00822136101147446,-0.000334563599723989,-0.000285238331759557
0.0679235715770526,-0.0229565261228487,0.00218102344457127,0.000557391070600368
0.070780513738317,-0.0310264809136845,0.003679453278325,0.00124270721180785
0.0695939336027145,-0.0282779930332299,0.00699267114402462,0.00171005390345262
0.0538294116648869,-0.0130759882288786,0.012759143840796,0.00139938317355851
0.0252199896044042,0.0175267843785494,0.0143967049226162,0.000137262942146592
0.000629641358607311,0.0619006775125168,0.0128812147549258,-0.00155826945768365
-0.0112935748762391,0.0944744617750669,0.00780766766140505,-0.00289738348166532
-0.00937871613324562,0.0880258293953099,-0.00111676612099263,-0.00342151848366164
-0.00157925479184177,0.0506115627159668,-0.00803233688038466,-0.00265096526761913
0.00660500546490123,0.0166569398234239,-0.0102126745607235,-0.000236867216608453
0.0143038886606768,-0.00178292989551372,-0.00842679749852256,0.00253766239634141
0.0134561506048921,-0.0205342702456584,-0.00444098100661842,0.00346871024543277
0.0129258845607307,-0.0338503156118575,0.000132262714376868,0.00173461490062728
0.0318428446447,-0.0202371539268624,0.00349269914855479,-0.00118106455050616
0.0534605296726047,0.00693539972610799,0.00450561828194845,-0.003231635688703
0.0526137832928945,0.0243520449195978,0.00526948390001405,-0.00374513601958318
0.03641342075623,0.0307611184930649,0.0069084655541745,-0.0031293488250757
0.0232126784902752,0.0294009125702691,0.00525208775222218,-0.00188165745628656
0.0148452771744392,0.0288322032594622,0.00480133876228308,-0.000253088377161243
-0.00108953753192573,0.0358074654612934,0.0102674349142973,0.00108388745482339
-0.0240104926626629,0.0431516310888914,0.0146147428580951,0.00138067277828689
-0.0345609850221398,0.0479894123220989,0.0176335660995337,0.000671131715683807
-0.0295416908905544,0.0529304664856124,0.0219424137157592,-0.000735321111593708
-0.0236937332632205,0.0481663722649338,0.0240902434131737,-0.00236618991022774
-0.0176052524705684,0.0316448857445861,0.0212177424851946,-0.00379762591527515
-0.0106441926891182,0.0185519796230703,0.0116629622189527,-0.00480108074811765
-0.0154796702036463,0.0158834300870417,-0.00064707932782359,-0.00470581446742511
-0.0262571811450845,0.0180859897351256,-0.00472335655865288,-0.0028542790575902
-0.0174177554145058,0.0182735964671741,-0.00170532955501744,0.000397729826089354
0.0138337372194208,0.0156852643086664,-0.00194484076923207,0.00342827968207472
0.0460072944076078,0.012705327392187,-0.00257517659330694,0.00472091964300423
0.0595576362362076,0.0107227268585815,-0.000420339846391397,0.00431589092895283
0.0515327513400087,0.0118603309478308,0.00363159985892546,0.00294042013050872
0.0350613794584593,0.0107045112699116,0.00698419901211461,0.00114512030916538
0.0213463089344109,0.00209706025176418,0.00776008904139472,-0.000403587403441453
0.0145341009291962,-0.00463631590013448,0.0076774769131095,-0.00106382922493127
0.0111405939691463,0.00184314454995526,0.00600194167894467,-0.000670544467333656
0.00126553608037384,0.0172609185564427,0.00714083955787169,0.000155894137773368
-0.0154456259436364,0.0241816316811007,0.0109680440724538,0.000385342179386883
-0.0283512175064709,0.0163738233904918,0.00947532493722073,-5.51622874722466e-05
-0.0321031076370172,0.00280107707815476,0.00501245860363797,-0.000153812574350404
-0.0286786839131294,-0.0139836989984246,0.00353283272922023,0.000306221303462038
-0.031049874364883,-0.0338831193161282,0.00542373446808231,0.000582908756331592
-0.0538720319052785,-0.0465005816156549,0.00770204133047832,0.000820598718308513
-0.0854773312727932,-0.0454930068417168,0.00695329189004657,0.00162663447611548
-0.10012076088612,-0.0373900000133722,0.00656905869848613,0.00239377950011227
-0.075528033458784,-0.033978104195945,0.00414139536638918,0.00212369956344896
-0.0176003263702954,-0.0407468448873204,-0.00479317814185553,0.000996729940294158
0.0254780327371536,-0.0504998336041297,-0.0152682612257944,-9.58390406345685e-05
0.0240591316722541,-0.056325306208538,-0.0219934566538121,-0.000504657595647044
-0.000636871569625691,-0.0594039861742977,-0.0264989430147186,9.88226508414032e-05
-0.0200032218324075,-0.060314907115205,-0.0309397191252009,0.00126372826902837
-0.0282485476424809,-0.0541727807057375,-0.0324225973768871,0.00174818733480003
-0.028396096318184,-0.0308169253765438,-0.0276564011624986,0.00105281080688794
-0.0225686367604025,0.00733377104024298,-0.0135543773864955,-0.000595840029565185
-0.0229626670475111,0.0298238866103966,0.00412691002352231,-0.00293670133714405
-0.0298424897033439,0.0203662579505719,0.00901197046483421,-0.00398036227047245
-0.0268172514311314,0.00898157142342632,-0.000817572706717892,-0.00118421405701342
-0.0125161679509306,0.0282941668483624,-0.00901929735095778,0.0040665572481801
0.0002666997277365,0.0649835670758411,-0.0122436392523009,0.0076808006210929
0.00281589777191071,0.0795858161432189,-0.0154666729898596,0.00784461889779386
0.000939566744604853,0.0594712984848745,-0.0149484178706388,0.00561465000824088
0.00679158790333782,0.0251679457947686,-0.0120738195705068,0.00275558944581127
0.0239236217700693,-0.00258885443570506,-0.013462052380164,0.000298194016676924
0.0396202589020979,-0.0249181567988759,-0.0183720271221693,-0.00138511354681716
0.0427941537967294,-0.0441230062455484,-0.024925725760576,-0.0018366302384533
0.0396386314377902,-0.0492193533454497,-0.0330589453845417,-0.0010923844241651
0.0364978060642862,-0.0407201368670976,-0.0386186170964341,0.00013041756390545
0.0352757424826642,-0.0303197533644192,-0.0400504820340531,0.00130371967614954
0.0353723016160997,-0.020272061547283,-0.0409778890583558,0.0021072065823366
0.029302915847348,-0.00980421551154553,-0.0420710132403558,0.0022656054604551
0.00871796418896117,0.000774174171874352,-0.0411733859533762,0.00169642438037005
-0.018081100598032,0.0165894370346048,-0.0339465091173274,0.000662286388925123
-0.0302625969543931,0.0329316328753905,-0.021007991159926,-0.000643355677262087
-0.033328314011841,0.0404871116121409,-0.0070629837760286,-0.00228276163458487
-0.046471261346849,0.048503527002733,0.00907448982881819,-0.00398012224393775
-0.059937049720425,0.0600228315275242,0.0198227755233482,-0.00506287301462669
-0.0498368885979415,0.0572539430920559,0.0156658516786643,-0.00470450805776746
-0.0167607976250868,0.034572857896508,0.00601305118440168,-0.00278818287701971
0.0144710276232902,0.00540219156464223,0.0025615523346381,-0.000328537744025136
0.032836726212462,-0.0113969713563318,0.00256680508656274,0.00176716438149833
0.0462516394137291,-0.00449076941710735,-6.34693033938864e-05,0.00327030172748237
0.0527503458336387,0.0157564576432521,-0.00148328846671938,0.00392964717595393
0.0450865604221422,0.0273499374434479,-0.000802340523138712,0.00353687378027137
0.0331159704974342,0.0323745677169733,-0.00251878538677713,0.00250947910858239
0.02827525732461,0.0540498314891768,0.000817134530751957,0.00119860269838213
0.0260635554061219,0.0614297734269881,0.00917122909271978,-0.000205101353628091
0.0272459413259661,0.0201835022297317,0.00918737416172291,-0.000726851865742153
0.0406843165238488,-0.0103459743149179,0.000390137294002398,4.92415223918537e-05
0.0531596850182963,0.0179223118545628,-0.00524831915585661,0.00068649500616263
0.037746063193327,0.0647537032192643,-0.00525142223714361,-0.000192421396190433
-0.0010875400029462,0.0753542625901489,-0.00520309848746483,-0.00228199758008177
-0.0371469406170543,0.0460307073176088,-0.00374421319218932,-0.00423235247087522
-0.0664221235276241,0.00901122569352571,-8.26643970159718e-05,-0.00500861435685822
-0.0917918830476875,-0.015374666729588,0.0043379529730361,-0.00459912794467292
-0.100949908872042,-0.0270640917681005,0.00862164800520845,-0.00355882515806944
-0.0905701557342304,-0.0322993376946542,0.00780295362866016,-0.00245292472272041
-0.0687734976661956,-0.0330769617990269,0.00393212322847926,-0.00157263659070617
-0.0436233483592419,-0.0265197103170143,0.00592894109931075,-0.000811685296333544
-0.0336187432818921,-0.0149918150906093,0.012465392766169,-2.60382973053929e-05
-0.0405999174109084,-0.00608667718185146,0.016609016948668,0.000766671996008997
-0.0389927866123031,-0.00981025691873901,0.0167226737292783,0.00130019198123901
-0.0212264538479123,-0.029992834472772,0.0136940689056024,0.00129777753419116
0.00865483301051508,-0.0498476450557129,0.0108491412094025,0.0011486077800416
0.0551112277190095,-0.0537260389692324,0.00918851841551854,0.00110629566791807
0.0987490291525926,-0.0463342671959857,0.00508538920066449,0.000702245650710072
0.11360048549408,-0.0380773320424886,0.00237477583857192,-0.00027899264324003
0.0987113767828355,-0.0327061098825019,0.00501750625098995,-0.00165613837267092
0.0562411191108055,-0.0298324701469657,0.00849633035455228,-0.00306551343992512
0.00117875087697353,-0.0323178254183733,0.00703245743564656,-0.00386098686754999
-0.0390900551313814,-0.0319693442852701,0.00134299197096432,-0.0034641291594674
-0.054839240222004,-0.0125281561120247,-0.00524094191202421,-0.00203018720542591
-0.0545829949969989,0.0117902802400031,-0.00999200155209301,-0.00068107046476684
-0.0515395586575713,0.019367676040675,-0.0127571699551514,-0.000323000564204218
-0.0505359011304309,0.0171932043479618,-0.0129234482397192,-0.000881242859219992
-0.0474623126210027,0.00473469922336796,-0.00487045758294866,-0.00196690871509631
-0.0492405525274721,-0.0236935510141237,0.00707201004173625,-0.0026594598650116
-0.0571508154066316,-0.0432263937358912,0.0126146313235067,-0.00241276132309142
-0.0500829447758786,-0.0477797542333681,0.00951551844386194,-0.00210565302567667
-0.0290848903548017,-0.0526100269950447,0.0019248678888961,-0.00153219053209638
-0.00866870024199089,-0.0413458215391339,-0.00375116230751979,0.000447461702612801
0.0185470641311439,-0.0117094449753094,-0.00731031987073853,0.0027403218874663
0.0581177118683764,0.00812846199681848,-0.0111604504352469,0.00353640500036872
0.088168912694116,0.0103740393646862,-0.0125144302053654,0.00307836242794877
0.0860317550381086,0.00917968128388526,-0.0102634982583115,0.00238527532141812
0.0643805920054606,0.00403180624303346,-0.0060409555169983,0.00151701655567373
0.0430716228205201,-0.0107550109632062,-0.00387344772153809,0.000464071898645822
0.0229082880784749,-0.017171787071321,-0.000116925160193699,-0.000157462663734384
0.00437390607318825,-0.00827790836002717,0.0107838739437919,-0.000565924962119686
-0.00697284982222103,-0.000769247574084635,0.02038544283795,-0.0017110801471646
-0.0169665891797314,0.00032981656547152,0.0204969358697757,-0.00344393430103758
-0.0338164138893947,-0.00015133397623282,0.0150021714381636,-0.00485752889086994
-0.049932766218245,-0.00242262426419467,0.00776099554125053,-0.00519943345216347
-0.0530676646335241,-0.00740386956407842,0.000141722146155585,-0.00390118053175486
-0.0403040591832526,-0.0126198246345788,-0.00340917394674974,-0.00139400693520527
-0.0217421567533264,-0.0132894273448658,-0.0026760811859086,0.000825445435481172
-0.00946339089825496,-0.00519932183119488,0.00101555879865152,0.00199813819136639
-0.00732208485649283,0.00893147146776086,0.00369398969734019,0.00267864390483959
-0.0117697823607466,0.0176915358020753,0.00196822838144255,0.0034174759394653
-0.0102864473533934,0.0174083015908363,0.000714166852444728,0.00390174761290872
0.00537355004304493,0.0181764670546621,0.00236781602725005,0.00361336088289824
0.019813184234401,0.0226745864581275,0.00549834939834073,0.00274713121078421
0.0240568856393232,0.022766451861199,0.0100072940521721,0.00183809245632781
0.0276244496550782,0.0172457632620119,0.013705309434248,0.00114085211100169
0.0163722727176443,0.0115613536710433,0.0123761645739512,0.000390100755620626
-0.0169227399708805,0.00822578428660425,0.00673146216650457,-0.000688928606084144
-0.0470381225147655,0.00632355298338522,0.00704515162734631,-0.00183803169544555
-0.0674766482580332,0.00681674813164914,0.0150902739562116,-0.00234571148882586
-0.0820595113306412,0.0119993934467503,0.0195321343962664,-0.00170734702491875
-0.081742971316032,0.0188180444439196,0.0190644672015411,-0.000492953525908339
-0.0714075078831111,0.0243224807433681,0.0195749887018682,0.000508351146897941
-0.0622543586649038,0.02562271348355,0.0188548452590372,0.00113866682001338
-0.0477859857688603,0.0160665241985092,0.0145291901219861,0.00148805568923318
-0.0207357736487936,-0.000696656855511618,0.00854858677164615,0.0020414637959772
0.00140501257549611,-0.0115486472852877,0.00287309522809881,0.00325033850796535
0.00382710999969958,-0.0140400458414556,0.00148291079459379,0.00443999584713273
0.00054331609687544,-0.0136309345726747,0.00450935836463768,0.00455149685799678
0.00499447256197984,-0.00737024093564752,0.00591104347704264,0.00354219098783313
0.0211932628595845,0.00300380336521767,0.00513395344357414,0.00195623797831119
0.0502367321315315,0.00945136296983845,0.00483171416246726,0.00034823838084774
0.0748013993169698,0.00742609084968318,0.00293175883920402,-0.00043131322424953
0.0749883032362442,-0.0042094993999737,-0.00028264602304501,5.75661802201613e-05
0.0537986066048962,-0.0103498637196304,-0.00137816314972059,0.00112626768248155
0.0255987799556857,-0.00114491641498886,-0.00160923934052889,0.00175274174154199
0.000999561989722092,0.00606619743401577,-0.00388448010518245,0.00192281689759579
-0.0174104356873692,-0.00277957105057733,-0.00254407314111476,0.00244192024061009
-0.0257532288716215,-0.0179484220117731,0.0014700962637518,0.00334818924913925
-0.0304451267824206,-0.0255624095387825,0.00221865075721669,0.00371518823638235
-0.0482428848552081,-0.025133724027596,0.00351975004142125,0.00263531177113646
-0.0685308694912977,-0.026214929083883,0.00420998478756697,0.000173565313986092
-0.0692003135458294,-0.0320227223694334,0.000184045219179114,-0.00236437275157654
-0.0516286731991237,-0.0268162513686159,-0.00516322601785205,-0.00370853036453383
-0.0337392708125454,-0.00247020419577675,-0.00821908097127739,-0.00359704923836276
-0.0229056195206172,0.0122551438105015,-0.00854729772470634,-0.00250604854871247
-0.0126795145209419,-0.0032687260267218,-0.00740874912810468,-0.00102699307194988
-0.00375603440259045,-0.0188586617932303,-0.00566814323330859,0.000631727022013889
0.00807370901537935,-0.0129388505421244,-0.00122847842894748,0.00184338109987291
0.0358744612602503,-0.00732788836688091,0.000745235474618439,0.0017159547732322
0.0721764678616749,-0.0104567201046118,-0.00403815541804351,0.000738261025070606
0.0889733421580664,-0.00761077651992417,-0.00509267661707532,0.0002059772409432
0.0777630504891678,0.00171783800626986,0.000747948762900571,0.000825534059901642
0.0565576885750548,0.0152792460047036,0.0039469592590331,0.00221378720840211
0.0400269279670547,0.0371587070951013,0.00275526232571255,0.00305107216029378
0.0350228981446978,0.0482958416851279,0.00141902551572948,0.00248952258521474
0.0399013478156459,0.0260747136892205,-0.00135439593152756,0.00106383426175394
0.0489352211303785,-0.00988443237145348,-0.0064817760135075,-1.83904736657898e-06
0.057132012512568,-0.0270924025417022,-0.0091569309823958,-0.000147657827207399
0.0556045016500573,-0.023687698260154,-0.00722172687581099,0.000135900781901474
0.0459403163034331,-0.0134641255001343,-0.0042782384124595,0.000351704508105711
0.0377444676568302,-0.00292773343572273,-0.00499042681048893,0.000166102614011901
0.0261491624964475,0.00642588591986493,-0.00764858949519737,-0.000520565292804016
0.00472562945614072,0.0119348790982065,-0.009311798595577,-0.00147836858764041
-0.0126880371003879,0.0115519912500883,-0.01046103763698,-0.00271259468372943
-0.015372695852031,-0.000836354042361011,-0.0143067727543605,-0.00395754501498142
-0.0194153896568229,-0.0233831913192602,-0.0185216821281854,-0.00447114004251902
-0.0313581964677036,-0.0302028600737048,-0.0136405417021045,-0.00376830297910335
-0.0362578849284487,-0.0100451858179866,-0.00230869235011488,-0.00219369096514155
-0.0336931139197966,0.0151204376699004,0.00550582829439579,-0.000750262150267356
-0.0268486048171275,0.0258134145956194,0.00726215250798654,-0.000142694197212158
-0.0135363311389912,0.0246074934108005,0.00565577084497963,-0.00017466929228105
0.00344860809721025,0.0236892208674427,0.00271212081439713,-0.000208324725609405
0.0182045478585558,0.0223429216067558,0.000455851613263766,0.000156635860291552
0.0233131794436063,0.0144241400188826,-0.00127004906496946,0.00109213874230994
0.0209036235086942,0.00185490512610337,-0.00274016686205477,0.0023558336102236
0.0203780284034085,-0.00912040885174731,-0.000920177107778025,0.00320235613250427
0.0272891725004595,-0.0103401378885921,0.0040372038525548,0.00308034609415272
0.0375244573525601,-0.0026225596761101,0.00349500286512419,0.00195502475969689
0.0408627905487612,0.00537178085416583,-0.00485408006248864,0.00036076347982599
0.0393384905969813,0.00995812815838725,-0.0108932493877035,-0.00100380882601826
0.0397040857508674,0.00914063741096728,-0.012528774505353,-0.00198580169014016
0.0318619108355556,0.00560190530747119,-0.0115802386776471,-0.00250766385810225
0.00775311781228616,0.00797499118021424,-0.00521629130920148,-0.00235499500262698
-0.0184662207764578,0.0133759873312923,0.00116829740911392,-0.00159073301912532
-0.0308492904772947,0.015682534133285,0.0015154254781023,-0.000377096640921137
-0.0287894552758325,0.0157107207109298,-0.000501208221178174,0.000864855189461769
-0.022004382257823,0.0100349162994867,-0.0027675019605356,0.00139587799884981
-0.0205651081867841,0.00461816021142143,-0.00616633948965568,0.000816592684779627
-0.029402728506955,0.00938564549175549,-0.00677173295202297,-0.000152374240589952
-0.0420414854302141,0.0120559573933533,-0.00381948240265016,-0.000290666411616694
-0.0442588470736006,-0.00324025248260893,-0.00223838560197166,0.000499189775088025
-0.0355472133431566,-0.0255683650489786,-0.00103881309158815,0.00145261842387937
-0.0261178299111379,-0.0360298789872798,0.00180879345388327,0.00184439250874742
-0.0157241681273644,-0.0412033173440769,0.00540369364779947,0.0012992189150823
0.000982921123918824,-0.0553841951334476,0.00616991830084425,0.000177269509415684
0.0178345636769682,-0.0695075014247913,0.000265688754888393,-0.000850332816416425
0.0280519169578087,-0.0632411989607793,-0.00797524671686685,-0.0012597980188983
0.0264896899997168,-0.0345096201263111,-0.00684920318824057,-0.00109147343956348
0.00871141858857021,-0.00714903589234003,0.00249787067958739,-0.00103167976165453
-0.00551088912283713,0.00386515894019705,0.00573746991738191,-0.00140820584132717
-0.0013978140653872,0.00701229211693152,0.00279854200992616,-0.0019725166008525
0.00356393212668384,9.58607208964533e-05,0.00183558919561509,-0.00206757009314947
0.00275923368072248,-0.0211052775908409,0.000648625876165828,-0.000825705132646255
0.00160473061194927,-0.0412845667622693,-0.00302714998295207,0.00149786733482026
-0.0015870526831137,-0.0461401516646721,-0.00773843303744731,0.00324471026601096
-0.00264966008455553,-0.0322690312832204,-0.0125371446834632,0.00320624384563959
-0.00550340506143167,-0.00155213032273775,-0.00967863154212825,0.0016141860739254
-0.014150491773604,0.0334703637842221,0.00372138412849173,-0.000625606177348297
-0.0151085620208791,0.0562711542549261,0.0140370473332963,-0.00272534782393723
-0.0136799780597138,0.0591795406471403,0.0134943928145897,-0.00358220844596625
-0.0226165138053804,0.0534424016040289,0.0115186830059198,-0.00220758515683083
-0.0268639666299826,0.0555820471790639,0.0162859450936961,0.00017336309880067
-0.0149200515409129,0.0478401259731174,0.02320641370706,0.00129691146673651
0.00156934367369685,-0.00215006363695794,0.0211935892732829,0.00045162591401558
0.00610615549232165,-0.0642109843193503,0.0111722659182412,-0.00150702004172541
0.000660463707003635,-0.0788910893830746,0.0027083141336848,-0.00291780761786879
-0.00151340996715778,-0.0544990625865781,0.00103357414771999,-0.00264705830263229
-0.000247172479543498,-0.0309995159693747,0.00331335759876399,-0.00122878422478324
-0.00248171166865749,-0.0210299395198103,0.00328276088964033,-0.000133708617581298
-0.00419041849628421,-0.0180379846933393,0.000382357300480222,7.68251478589224e-05
0.00518268589788723,-0.0121139154905314,-0.00404279195269819,1.62263346176798e-05
0.0208708130059054,-0.00076851094823929,-0.00886144506657107,3.05973598061551e-06
0.0286624078034996,0.0107694425893834,-0.00894854601882803,-0.000209270110743871
0.0247308813418987,0.0144812331749526,-0.00242714156484048,-0.000875215891493112
0.0156366564982317,0.00890006025897017,0.0037515432340217,-0.00195589182504066
0.0109842494276014,0.00140704781073399,0.00510913435778452,-0.00283862965088689
0.0135738055395526,-0.000522654985256412,0.00193270997864734,-0.00289492191885823
0.0148438284739429,0.0076869885237886,-0.002222982696789,-0.00235974102605163
0.0077149352267059,0.022888220533029,-0.00171789839122057,-0.00177955526414555
-0.00217881102096984,0.0343859645805553,0.00216756624304461,-0.00107000575900405
-0.00417858432897179,0.0362949368861953,0.00249310922748839,-0.000344751271106172
0.00351441772275877,0.0303036338451775,-0.00139663276247418,-0.000116569418156259
0.0160250385457288,0.0195447979137337,-0.00288205780742103,-0.00028678560027107
0.0287836434261872,0.00935410291130699,0.00161408616383669,-0.00037120291915038
0.0364782061196268,0.00476303704022443,0.00843484043524255,-0.000219368600518126
0.0350528886087828,0.00856194031537687,0.0171685035910863,-0.000102637454166754
0.0205177031385479,0.0190952386761475,0.0269136127411825,-0.00028577546462642
-0.00542557171053167,0.0271002420453102,0.0291210325875582,-0.000593431350485433
-0.0291502585510968,0.0276850500945533,0.017940029442011,-0.000627078253397924
-0.0314551840693824,0.0225800967854197,-0.000638788468669237,-0.00028714477421235
-0.0129385875183107,0.013664857949278,-0.0135702229572096,0.000137366402594668
0.00113375938273144,0.00290230233748837,-0.0185276889084209,0.000445311235350384
0.00476017346872941,-0.00759278958983184,-0.0209157453239968,0.000943397145135676
0.0127280201441557,-0.0175531337895964,-0.0207884812425864,0.00163567007860187
0.0255695660185229,-0.0252385001302389,-0.0199905604896514,0.00170742833330418
0.034635252577944,-0.0252897931043311,-0.0192789444386726,0.000687642824305796
0.0355220615659819,-0.0107392163125029,-0.0121727581368639,-0.00101993367786378
0.0313307807976241,0.0108416526385755,-0.00126355818861116,-0.00270674271670526
0.0323121831970118,0.0174938573462284,0.00516689541834951,-0.00343207719863516
0.0366814294388742,0.0133522480916688,0.00604526423280811,-0.00256401686306852
0.0349942106282312,0.0160965374970312,0.00402398871650377,-0.000788691746666255
0.0360705779035047,0.0217387984085403,0.00107733744275291,0.000772674565003734
0.0491262605377539,0.0221549092438387,-0.00437069325911435,0.00188839012870328
0.0603725798493547,0.0169232412920064,-0.0102354346622026,0.00254730949313571
0.0571829065101491,0.00899370318905738,-0.010137577498412,0.00229728992853037
0.047572406409414,0.00293499524836652,-0.00460219394323827,0.0013080070471468
0.0418653790398096,-0.000238261335386888,0.00397962597895663,0.000454414500228612
0.0426719395489893,-0.00514856440736201,0.00929664620667298,0.000125169655219774
0.0464981767293248,-0.0132271742302949,0.0070169376458909,0.000433626980564684
0.0406821734255878,-0.0186035561737508,0.00421244637188794,0.0013664510189056
0.0161823249317085,-0.0242849081933855,0.00253381813863501,0.00245622416223542
-0.0179872655831309,-0.03533405756068,-0.00143254324180409,0.00308734886994113
-0.0451367122879567,-0.0403829664100009,-0.00694768407852003,0.00290990494568838
-0.0579145828465908,-0.0293802056082824,-0.0102947268122122,0.00200171913566967
-0.048614048352416,-0.0117279786023093,-0.0088475139787792,0.000646590666707786
-0.012312810888036,-0.00445937285881862,-0.0035109843521337,-0.000902101487772712
0.0320997999165097,-0.0100781885096631,0.00224231772458127,-0.00239304785355238
0.056171562539395,-0.0124058526555398,0.0081814550434662,-0.00346158154489853
0.0505176745266616,0.00391901943800785,0.0141019773629525,-0.00389880605085932
0.0312872470001705,0.0346449476136853,0.0159505969138701,-0.00372653224757518
0.0141687929676471,0.059377523607758,0.0130711198135914,-0.00294991839733254
0.0059325551241718,0.056405745965365,0.00772377841847672,-0.00145812554716933
0.00780201477682204,0.0253596642030744,0.00205877290236672,0.00067765485559161
0.00243112667174551,-0.0103486719626578,-0.00197617736486124,0.00297405172634716
-0.0239689833181091,-0.0328097387033166,-0.00299359062687885,0.00490055634613435
-0.0556373857801916,-0.0393926337973242,-0.0016113748105627,0.00609776940117075
-0.0679285159026515,-0.0345589308662306,-0.00086501211434451,0.00637995293319929
-0.0640446667591686,-0.0216477793511879,0.000534153374069854,0.00566801207181018
-0.0715526887986184,-0.00553557384413105,0.0067968467071711,0.00404489635368797
-0.0959285883084745,-0.00116610255819113,0.0132407898178808,0.00205879813796526
-0.106627802067483,-0.0142132163709997,0.014287066903814,0.000219133284088216
-0.0882335918894908,-0.0289022439778618,0.0122018068078819,-0.00138493635649015
-0.0606415056749171,-0.0322631961195402,0.00835896790910731,-0.00245115642848204
-0.0409628576550205,-0.0277737707008869,0.0028849819695006,-0.0026787473378214
-0.0255170910683349,-0.0271879055775114,-0.00231131256091317,-0.00235534780464647
-0.00985889077606962,-0.0241703714436167,-0.00375546555462556,-0.00189815925878818
-0.00512084710513769,-0.00157378494919398,0.000715010845876692,-0.00156485235548075
-0.00973242041585355,0.0282254653443702,0.00642365671175014,-0.00145803004388645
0.00852210444723002,0.058751704169588,0.013210029756146,-0.00143206806279232
0.0447697486833446,0.102161014347473,0.0234685419833521,-0.00162992052415025
0.0477928191189436,0.125767220852692,0.029240851534933,-0.0022099940429557
0.0122788772127748,0.0900972825316837,0.0250510435785017,-0.00252111068823473
-0.0338874968907921,0.026259811780614,0.0168468249370305,-0.00152195827474154
-0.0791871899230309,-0.012540923606296,0.0117802298103101,0.000947673711723673
-0.107441897622297,-0.0189758132904302,0.00973741877686174,0.00370892975109432
-0.104356008015824,-0.0159130970396134,0.00784811575716664,0.00549744303240275
-0.0838589599013651,-0.0195750302429771,0.00539895843920893,0.0059043770072768
-0.0652246216898728,-0.0271953863176852,0.00151998292048667,0.00522109313351445
-0.0452227728328934,-0.0271579350861033,-0.00227422816587393,0.00407816045519291
-0.018857772228255,-0.0203124916877607,-0.00329439243668481,0.00281254278386374
0.00302734550228118,-0.0166984214689523,-0.00346921436710277,0.0014722364111936
0.0112823024919224,-0.0119000778824638,-0.00474689881914279,0.000370602534123379
0.00983340895170758,0.00142897099359903,-0.00525596141682818,-0.000361140556532683
0.00667067863937128,0.0135533366758302,-0.0048567102330093,-0.000994709359428751
0.000396814874534718,0.0175669655081994,-0.00428102535215467,-0.00157606117435467
-0.00140942529468484,0.0177813598424876,-0.00176306861850304,-0.00200083769193004
0.0243203808333953,0.0204183302214669,-0.00199201559051243,-0.00246296609747119
0.054710473551607,0.0312658016242739,-0.00706547843010203,-0.00307009580400035
0.0442064037959059,0.0414473650565064,-0.00791284130214242,-0.00296488117554599
0.00923213668621513,0.0392308800906397,-0.00195273908713538,-0.00119791078167867
-0.0153887272133035,0.0352631213583824,0.00463336106739787,0.00162987049105744
-0.0274760226275791,0.0486255547004243,0.0125580031628167,0.00391476247797074
-0.0293518166025668,0.0695232451125719,0.0240367640652922,0.00456636392495324
-0.0195727222822714,0.0666629807302574,0.0305181644849397,0.00385805694015067
-0.00306347849445329,0.043733872444395,0.0250419405045849,0.00280250437763972
0.00927685411767132,0.0283842024572293,0.012393882608628,0.00171574005317532
0.0158678750061855,0.0202462295244409,-9.52242273969013e-05,0.000560922563117753
0.0270534086862855,0.0077549985765646,-0.0057784454517273,-0.00027791172264384
0.0439445590695448,-0.00273545226055338,-0.00440441868510338,-0.000351473467811773
0.0595680027958634,-0.00496043592971987,-0.00532589374223227,0.000311725463333313
0.0685937292236263,-0.00388007249474901,-0.0080011500948108,0.00084361108026532
0.0622155442310263,-0.00375988747732068,-0.00575932121773092,0.000507438728093057
0.0396515995232144,-0.00274401809868394,-0.00382492492678249,-0.000509137266730245
0.0109643132815445,0.00121941251904914,-0.00500659823269047,-0.00180098990613909
-0.0123298787879183,0.00251665749892395,-0.00602468512345046,-0.00292376218784907
-0.0138370061816356,0.0021240736112927,-0.00646042104976233,-0.00338920603078174
0.0070452073720929,0.00663396263586754,-0.00513022886246026,-0.00314033241659545
0.0214957343335293,0.00484612102263056,-0.00294779098073258,-0.00215249439005167
0.0161037001983064,-0.0092947012535137,-0.001309207724471,-0.000345023510693767
0.0100221600633512,-0.0166460372573785,-0.00137403965152756,0.00161870415207055
0.0112058524429732,-0.00763222345329005,-0.00145041770444758,0.00293550989718212
0.00919440254641886,0.00525529252264774,-0.000120435639841454,0.00347919286019168
-0.0013226492510475,0.0123826071554412,-0.000423068352792382,0.00335943223859323
-0.012018991789426,0.0128862986197441,-0.00119885544429837,0.0028260597247426
-0.00640262797310557,0.00793793965517129,0.00138186257473117,0.00229915470657835
0.0142603480875616,0.000443426954226691,0.00365437384877201,0.0017739233118682
0.0290505558862386,-0.00501699849613832,0.00142307110947686,0.000962262580843056
0.0285237618610897,-0.00806595872803759,-0.00155677280339186,0.000173934536088442
0.0208716978899169,-0.0124518542599659,-0.00203340446530519,-0.000369497124935306
0.0159923984939033,-0.0194009978840714,-1.69522284183213e-05,-0.0014016747121384
0.0153421759864727,-0.0263716602154919,0.00224839628655043,-0.00320472931976706
0.0121875578229552,-0.0276423255187992,0.000738533711594417,-0.00479568560959575
0.00605247783435183,-0.0216869989321504,-0.00365868006992592,-0.00533587515282975
0.00540492021642583,-0.0150692215444337,-0.00745249086638468,-0.00507993002528492
0.00810253771397012,-0.0103156834094556,-0.010105881115569,-0.00433084244044226
0.00399379455088589,-0.00422630020575361,-0.00731103926429336,-0.00301556213872079
-0.00678579030312274,0.00162124346791264,-0.00335828847569402,-0.00138407244502838
-0.0164020824252626,0.00461787065232159,-0.00642592371866328,5.76081729374255e-05
-0.0190987167927772,0.0101447053556327,-0.00926905575703137,0.000947287664286164
-0.0221012584929639,0.015879227550652,-0.0065279616635905,0.00112318666299864
-0.0341232144166581,0.0162210691077061,-0.00566092381129728,0.000446453342400566
-0.0435814694510364,0.0162011425573621,-0.00834674171487251,-0.000644885474559375
-0.0435688374474255,-0.00321487389540624,-0.00901729508924576,-0.00104590433577231
-0.0383811936612406,-0.0528713259723813,-0.00815432087377996,6.85974405980276e-05
-0.0194837523745657,-0.0884619205609201,-0.00752399021223594,0.00235680022605752
0.011842953606108,-0.0822312620403117,-0.00854086835762937,0.0043220318727944
0.0340895735577185,-0.0642928104464949,-0.010264545735239,0.00465242382914109
0.0380186693961282,-0.0628771013168247,-0.00593699952486188,0.0033707482870037
0.0354807129626661,-0.0702678913703823,0.0014330088532876,0.00141321353168402
0.0371900498826479,-0.0720177920356545,0.000609504450849457,-0.00046811023112316
0.0342007940616476,-0.0648000333165736,-0.00537716780812319,-0.00205548627156288
0.0179652338181137,-0.0477890371191506,-0.00912968650182436,-0.00333515212643559
0.0064970307264177,-0.0187760105989717,-0.0107119805400969,-0.00423450066973958
0.0195907313163258,0.0289057552236612,-0.0103732482932235,-0.00483633472217343
0.0486770240324301,0.0800927656276339,-0.00923228726325094,-0.00506293735162128
0.0653834942802945,0.0945067336184199,-0.00606391697346061,-0.0044198643422798
0.0553248464114324,0.0714088209765209,-0.000837052425451243,-0.00293255558068634
0.0381646198749937,0.0440126760208734,-0.00339855411713397,-0.00110573407678198
0.0375766230878835,0.0271189880197891,-0.013664341340989,0.000882382046892849
0.0446227211480347,0.022448322481342,-0.0197830606689151,0.00264485421931779
0.040205249567811,0.0245409845152501,-0.0197046776542877,0.00341569373171814
0.0232709131104478,0.021492898749835,-0.0180300323760722,0.00301519687601211
-0.00601577411201588,0.0110693800396429,-0.0163655240919079,0.00203176599584111
-0.0473737898386342,0.00385906304830387,-0.0115257828789093,0.000961986355780435
-0.0985912530469892,0.000925245719514411,-0.00286776774836434,-0.000481568595925294
-0.144755011550918,-0.00888378735608725,0.00266345380789309,-0.00237915719815082
-0.162019387108913,-0.0283509397182832,0.0033372977124733,-0.00337070805819241
-0.161076931341779,-0.0583702704464208,0.00476287884367379,-0.00235535260637153
-0.150586564518574,-0.0771199703673229,0.010368521276351,-0.000550493710910771
-0.110040175548686,-0.0583925077414904,0.0193569095997509,-0.00019642367341166
-0.0489063517531677,-0.0316849187891984,0.0243251965022894,-0.00164395728126422
0.00118813193602221,-0.0262817441973639,0.020815008731046,-0.0031681131296519
0.0321831220965881,-0.0267539156560503,0.0137444455447223,-0.00342665235566811
0.0476076899814315,-0.0171454114555723,0.00815189093304824,-0.0026333332102007
0.0516113469893026,0.00127464498786818,0.00509603973638343,-0.00152634508010891
0.0533838700852557,0.0157398801167702,0.00616777626294098,-0.000409860763030929
0.0532187215558968,0.00867120772883145,0.008037410830208,0.000480306091188797
0.046364802882988,-0.0145453368790065,0.00819342159801858,0.000981158463654461
0.0466587809758738,-0.0261214679353815,0.0103270556154766,0.00136869411009069
0.059562415198776,-0.0195178731283335,0.0132795896318348,0.00178946252789687
0.0668385666899522,-0.0130535546469826,0.0127864860215217,0.00180601998939145
0.0525430362358093,-0.0156164722347162,0.00822469494330053,0.00106982215358511
0.00444137593316789,-0.0181198290619514,0.00569706218807467,-3.92704101067573e-05
-0.0560178143157132,-0.0167455795886291,0.00682071752018653,-0.000962825798266038
-0.0824851207216987,-0.0200474768378817,0.00662138707039488,-0.00143595445052489
-0.0656420485569657,-0.0268659067976273,0.00341629621189374,-0.00144797938634217
-0.0321561442257155,-0.0296915107493817,0.000648601953333331,-0.00128774992898241
-0.0120439136543324,-0.0284331605921539,0.003297826290511,-0.00124502366364892
-0.0122922285406141,-0.0248746530599983,0.00737930255931629,-0.00143007111079374
-0.0242344527212041,-0.0278815796779813,0.00297638052169662,-0.00176372348309399
-0.0400398709033912,-0.0366483173761333,-0.00669278698533509,-0.00195801665117286
-0.0432468764903269,-0.0301322089946319,-0.0082158142206847,-0.00164005602218374
-0.0289114876879249,-0.00490742005309609,-0.00107554025882472,-0.000620625947752555
-0.00853559992983941,0.0213332816400356,0.0056068940466456,0.000660955702231381
0.0191204785369416,0.0337544344426422,0.00902381387892577,0.00145088265662365
0.0497709132007942,0.0247253833472424,0.0116245448152837,0.00114437048307492
0.0607544914967514,-0.00746273204097961,0.0113066003593992,-0.000365171221779168
0.0479449264393573,-0.0487469790359734,0.00634798614539103,-0.00169406063954748
0.0364933039353455,-0.073782453701009,0.00186965937550341,-0.00134903372071098
0.0363233158741712,-0.0739223406024962,-0.00137494305648807,1.87868049772407e-05
0.0299435925066658,-0.0487201934061341,-0.00101075754289722,0.00114998971487549
0.0225735443218581,-0.00945460502291022,0.00472947189794698,0.00189531070346084
0.0297595349987779,0.0114318085268788,0.00858513598933246,0.00250338648983543
0.0389848174209992,0.0027972300769231,0.0117715267929629,0.00311322704493358
0.0445163047508929,-0.0125018991924458,0.0222395185767784,0.00369830364530978
0.0590778221971076,-0.016390051515773,0.0343330907936478,0.00384122627361338
0.0784841846360251,-0.0122176077062262,0.0361923463585915,0.00297468915880673
0.0867721628753898,-0.00684083968339511,0.0241714529977265,0.00143218728753013
0.0860959857054859,-0.00358092355513715,0.00623255127725245,0.00018377232256304
0.0839713906998192,-0.0042687314222655,-0.00363001942118293,-0.000924209708717638
0.0619851939170632,-0.0108372959885734,-0.00626447702155804,-0.0020627491400927
0.00649590925403715,-0.0208777401459419,-0.00993872619849211,-0.00206749705114456
-0.0486240279869304,-0.0212547134814244,-0.0136334000500758,-0.000456962647501002
-0.0709621255422321,0.00139335236182717,-0.0147491896778555,0.00154977462845197
-0.0726729923222972,0.0399022563902105,-0.0133314754371308,0.00244785735748665
-0.0710758675243514,0.0676025923902187,-0.0104847141125059,0.00183964792739638
-0.0623989246063997,0.0738671840676083,-0.00955633408414892,0.000630505485395028
-0.0357814445870849,0.0717175203922824,-0.00816435080412588,-0.000159549814956392
0.0057501155930901,0.0685605987117756,-0.00186102735107123,-0.000221514981109944
0.0399375962782089,0.059728712330896,0.0068450753566615,0.000490082594075431
0.0520245430572521,0.0448772352488348,0.0128240217047463,0.00169476510948914
0.0479641263127574,0.0290832052459305,0.0128850757578685,0.00262229895738789
0.0419064667408294,0.0156787383176149,0.0104867587179807,0.00285241281612983
0.0382750865861555,0.00653876309793851,0.00817784638664086,0.00254090223853338
0.0263619817393378,0.00232866977281666,0.0071994474443456,0.00202870972612281
0.00311601421972181,0.00156630696824158,0.00691799326363046,0.00151432772716561
-0.0178478874914724,0.00132189750542633,0.0043291676988684,0.000798375691304526
-0.0291716894602689,0.00332792562983074,0.00254069300567591,-0.000190608169751988
-0.0355882454342123,0.00643803516161005,0.00120771816283436,-0.0011242887595529
-0.0365655045437892,0.0010244787449763,-0.00510339819021101,-0.00166649504223066
-0.0245066470558858,-0.0102480673215781,-0.0105846396480361,-0.00160714472977965
-0.00222522884210482,-0.014736949642015,-0.00943159352280408,-0.000948658887112098
0.00884446617661067,-0.0110481033366588,-0.00891511585538861,-0.000174047480471148
0.000389106267106636,-0.00310511499407987,-0.0105913962930384,9.94515277385037e-05
-0.0124345627877492,0.008951018192876,-0.0125207596582809,-0.000229858746938282
-0.0233002235423043,0.0166425416712108,-0.0147484996442285,-0.000715549609163352
-0.046594143516449,0.00642651112523678,-0.0125289622152994,-0.000809064352935261
-0.0714211449849369,-0.0130622366726143,-0.00931344686299486,1.97824962308571e-05
-0.0536933874383887,-0.0220946963950427,-0.0114086842365266,0.00169112520285584
-2.42899012543804e-05,-0.0197876180951208,-0.016057997227005,0.00298016035420204
0.0385840000705457,-0.0158618688574324,-0.0179772072933163,0.00312348340659414
0.0369400474107835,-0.0167395329932268,-0.0160937606770425,0.00259050555443099
0.00736901171486883,-0.0158775582942295,-0.0119055471875159,0.00189605398074335
-0.0179289823497396,0.0054468728816431,-0.00452013535337252,0.00103414213129632
-0.025652970845153,0.0403468378192096,0.00174679746573342,-0.000105496171758683
-0.0271901420868353,0.0550422604803801,-0.00138680848688951,-0.00105191887993351
-0.0232550634779924,0.0438529657612578,-0.0109129346655564,-0.000907097685334707
-0.00810581226638429,0.0313831021467826,-0.0180959156757193,0.000320790469153318
-0.00307838894410423,0.0271989524688697,-0.0200711456549765,0.00114174147267785
-0.0303271564841712,0.0273353883143891,-0.0184166681696562,0.000279319857422886
-0.0658778109632634,0.0266374934441343,-0.0165029498394476,-0.00176315072828277
-0.0761502546249298,0.017821559362216,-0.0122120071137312,-0.0034130117544141
-0.0650217167843058,0.00567265277970484,-0.00547953712729986,-0.00379638580639155
-0.0522318170295502,-0.00313837173892052,-0.00185213159247797,-0.00329070231331063
-0.0413992186992566,-0.0167007668812639,-0.00164116853967082,-0.00230437612040606
-0.0260134319288002,-0.037625830699819,-0.00405878777676348,-0.000907139068777377
-0.0022726645516644,-0.0455839004468616,-0.0106703092154726,0.000533599815400239
0.0203942818868922,-0.0290950356552404,-0.0156849687950196,0.00175200786219698
0.024853142219871,-0.00703779880420149,-0.0131044056840662,0.00274994426136969
0.015831934105433,0.00493809291694152,-0.00721515666089875,0.00328275453983541
0.00913763081455554,0.0112389834882273,-0.00313144114391307,0.00311391749662887
0.0108116765106629,0.0189344947824831,-0.00263188795899805,0.00250266580577507
0.0193712707270505,0.0286680798678101,-0.00398583330641848,0.00183677433431469
0.0299908498537605,0.0371452498221021,-0.00363974223198767,0.00103298610888975
0.0394737113561833,0.0401742952545583,-0.00197957754977722,-9.74154621219978e-06
0.043030056149169,0.0351132839226519,-0.0035545644892005,-0.000899205771134074
0.0360748910286001,0.0235544606217734,-0.00560837028173093,-0.00114293040199571
0.0182866605063648,0.0157799288286806,0.000286408282101567,-0.000908003892642923
-0.00510652429615863,0.0210035299474707,0.00969810991653613,-0.000939142244987955
-0.0268833921485459,0.0284572662954228,0.011652575567634,-0.00151380853327698
-0.0470691988488873,0.0271557179453879,0.00914997185001809,-0.00226831076723344
-0.0632688303402456,0.0215296594678329,0.00850558612903951,-0.0024677424301718
-0.0654427410467415,0.0142408053343451,0.00750036793244739,-0.00160342338729188
-0.0509940230260196,0.00615979284918987,0.00404138370536149,-0.000228417418345173
-0.0322521156412832,6.26344733562609e-05,0.000538403211490917,0.000559024382829887
-0.0235367201261838,-0.00103101627597858,0.00199285066922402,0.000506176505003253
-0.0232192734271479,0.00273400921017451,0.00915562832068631,7.78162286991607e-06
-0.0209425085720561,0.00553822554277347,0.0164070626784008,-0.000800086784036489
-0.0162076259306237,0.00349095424185428,0.0197510827300229,-0.00133374202853642
-0.00973481104555435,-0.000403532112839802,0.0199936459778392,-0.000910655989502847
0.00263614020779652,0.00220118587294535,0.0167364488410066,5.4284127819274e-05
0.0176985072297543,0.0134379270065313,0.0106785853046208,0.000935420057986163
0.0287126846200582,0.0241844607219646,0.00603566848022137,0.00162806051929972
0.0339561997742119,0.0267992935533953,0.00269614609338969,0.00209648955945017
0.041840035983544,0.0183087283119163,0.000421050168840207,0.0023248392433559
0.0550619993188179,0.00251030359143036,0.00150587493057647,0.00237570696630114
0.0626569374676559,-0.0128379057328954,0.00222463382746035,0.00238244503488393
0.0626516860833766,-0.0264681863218982,-0.0012894020201396,0.00219774254376698
0.061031615670722,-0.0366025142042192,-0.00678324873656347,0.00152030998020071
0.0592774979683327,-0.0416556774027865,-0.00848037177160793,0.000387644945898776
0.0568992273935692,-0.045147531735404,-0.00530222439297658,-0.00105934887497762
0.0512858922523848,-0.0480128390770653,-0.00276803899242631,-0.00259358531463398
0.0414322416490816,-0.0515279243265342,-0.00361082428287162,-0.00364100979690236
0.0226619897820823,-0.0574360973530335,-0.00588624817177011,-0.00333889576439976
0.00115180882427562,-0.0555511289784484,-0.00763312571512171,-0.00177768755359276
0.00370836414767351,-0.038410133500214,-0.0113038579537656,-0.000495258489203906
0.0284158926632033,-0.014481562907504,-0.0171234935825117,-0.000551715901792
0.0551522980310355,0.000541733086548306,-0.0167187233836728,-0.0015103632525623
0.0775507444440603,-0.00226745735564138,-0.0138430903074312,-0.00214037357523142
0.0800295641029127,-0.011573623081969,-0.0161390631124609,-0.00139578406296948
0.0405127733327011,-0.0137508771550661,-0.0169051511285769,0.000462325307807805
-0.0312905475801286,0.00221636696720598,-0.0141181087720258,0.00231226801068311
-0.0891368868710021,0.0446291636185773,-0.00956227648571515,0.00333616368624879
-0.10175298697854,0.0909029192773981,-0.00394160923500236,0.00326057942791801
-0.0860544194374166,0.102684196208948,0.000146421560067011,0.0023361766788127
-0.0721751085549124,0.0717863718880775,0.000259949946645497,0.00111571204873357
-0.0578833087627131,0.0299022124903872,0.00219022034328,0.000224086693870496
-0.0424298048520519,0.00983732615790356,0.010666846632921,-4.31737199791584e-05
-0.0438780277019389,0.00145575962416396,0.0135468304006501,0.000118813107924673
-0.0402569987047797,-0.023489363007761,0.00655620153191203,9.15473818226748e-05
-0.000987895615486456,-0.0593144361268775,0.00431822462019492,-0.000730100001361507
0.0538340399729841,-0.074495551454253,0.00834797575303551,-0.00236330240030436
0.0962388846921603,-0.0571007267322588,0.00258880477147058,-0.0041531208995858
0.106855333939449,-0.0279019592521366,-0.0111689456506483,-0.00498548387233825
0.0703799995178975,-0.0100983274826471,-0.0199522978472434,-0.00437990592780523
0.0149336463615114,-0.00265382933152213,-0.0220633414863982,-0.00310367200212903
-0.00901694075214977,0.00505815881239499,-0.0185975677596337,-0.00204875473860731
0.0019348799884996,0.0117359621004612,-0.0139397576868777,-0.00134577120231761
0.0124104103123425,0.014989035937456,-0.0128881835517405,-0.000563497246817787
0.00832158704612598,0.0141977653265646,-0.0136003815610501,0.000885522082329769
0.00503754948158756,0.0101708221763388,-0.0119604541553994,0.00282968307436396
0.0114001005187474,0.010261524453903,-0.00848737698090802,0.00419079877250344
0.0194310736906808,0.0158885444856757,-0.00757854010415525,0.00410821756688483
0.0264759278836413,0.0241621995377392,-0.0081159130424491,0.00276899737539401
0.0310339695177208,0.0346695983606372,-0.00560672893154544,0.00106352526902427
0.0217025833650432,0.0404455713819176,-0.00187135696834102,-0.000504679451132361
0.000111820175796057,0.0355705293470156,-0.00157010617406344,-0.00181156854703237
-0.0203881147526683,0.0229484161221831,-0.00614345932639696,-0.00263840422610684
-0.0406175174719583,0.00538814544315529,-0.0100100695826388,-0.00275968867946123
-0.0697823025732526,-0.0256999593927608,-0.00778373618665917,-0.00242349202119887
-0.0952221924510177,-0.059295750871062,-0.00499323926107465,-0.0022583181138483
-0.0951570177077127,-0.0527529235414851,-0.00317601993688959,-0.00230569699150994
-0.0748177268547527,-0.00444543172082665,0.00156125263823148,-0.00244673536370258
-0.0528006585747485,0.0491605219948419,0.00752834983004789,-0.00307571610486724
-0.0383922820104549,0.0842245746141624,0.0115458633169487,-0.00430299802828686
-0.0239624710800046,0.0740947165441129,0.0113422952249999,-0.00540004517853672
0.000546765129534471,0.0164159147416084,0.00657895256204099,-0.00498009327893075
0.0203272098594615,-0.0442852476284144,0.00282175697587889,-0.00252246534659185
0.030464410795891,-0.074362509170763,-0.000887087067491571,0.000797501394288523
0.0470423488415068,-0.0764692822723242,-0.00694044380560421,0.00378638477446888
0.0619145621517858,-0.0720031653372611,-0.00835996645395034,0.00581838557446578
0.070270852090695,-0.0720132972483978,-0.00735524873804671,0.00650373027249929
0.084216375703323,-0.0681983204573601,-0.00815114629442008,0.00595781501803992
0.0906618728284078,-0.0584960554804035,-0.0080696331429893,0.00426194615785315
0.0676575171733488,-0.0490222792546153,-0.00841197343419788,0.00182034419941038
0.0243108583272101,-0.0402484116524793,-0.0118282324157698,-4.69860301027568e-05
-0.0166016287507744,-0.0286434735661298,-0.014028186353809,-0.000632507427469211
-0.0527570367459251,-0.017259469858178,-0.0097831924468932,-0.000671736757537218
-0.0882409150637103,-0.014841448169224,-0.00389407704867848,-0.00112791748787081
-0.108091930993935,-0.0136686506227062,-0.00343778699168676,-0.00192571578386151
-0.10033091438499,-0.00193713047825803,-0.00199528331460276,-0.0022898609877365
-0.0802740657803847,0.00370645480519533,0.00460469374837767,-0.00205611920320447
-0.0566238714183815,0.00241656425297816,0.0104388096241092,-0.00170502086046107
-0.0320827790909106,0.0363442886726817,0.0148006235110243,-0.00188430007146714
-0.0254920157189848,0.103671933731455,0.0160303612355541,-0.00311056100778996
-0.0226576906453605,0.129268116505572,0.0151513539401294,-0.0049529634502926
-0.0011751565851199,0.0759676406505428,0.0164920048381532,-0.00599281453135472
0.0122405729988736,-0.00356361386485174,0.0115290739807089,-0.00495319096908878
-0.00742674014114685,-0.0466224220425053,0.00165276102413265,-0.00193842319437641
-0.0455633251394317,-0.0487801727725547,0.000831552712715719,0.00171967957834186
-0.0696728013003335,-0.0377085205202373,0.00668861826816904,0.00470923516440483
-0.0654632032659439,-0.0245194310266401,0.0138714715147988,0.00608149730338341
-0.0497786283439349,-0.00997589452898475,0.0199103625407539,0.00550458951617605
-0.0453593678180102,0.0111728174615124,0.0221080283216456,0.00359011122083741
-0.048864239434699,0.0369498122366026,0.0215807277877285,0.00118427166801018
-0.0449351558021148,0.0426894047092876,0.0176608517482724,-0.000669671773533376
-0.0422187988226228,0.0265151484537717,0.0110185762872849,-0.00100204437065861
-0.0485393510187945,0.0107785627236471,0.00419703479559896,-5.37359626973913e-05
-0.0508485817754407,0.00467454576292829,0.000722567551690298,0.000967947931918209
-0.0447389417218687,0.00614452755063577,0.00300228804632653,0.000906961761309266
-0.0355792354597388,0.0105397975190914,0.00736735578302448,-0.000452955292190067
-0.0201927485590293,0.0171939818468246,0.00895361593636503,-0.00220032819659665
-0.00273246592750376,0.0284450513678369,0.0105036032171611,-0.00321434925677072
0.000409676672683241,0.0385132116273583,0.0184781289342281,-0.00308154200399048
-0.010034304231833,0.0340181385571609,0.0238307621889387,-0.00234499721232775
-0.0213756982487045,0.017236650683111,0.0165974435158394,-0.00128992780478763
-0.0256862268210147,0.0102681105422366,0.00867441740845122,0.000653762327678307
-0.0200326642084565,0.0205546736538848,0.0119622118308694,0.00319760329431558
-0.0121363769295495,0.0340273127401153,0.0181497359130665,0.00514784903374888
-0.00807723053539158,0.0452096687757483,0.0188935527677142,0.00556572645312465
-0.00437793086281334,0.0548808814818814,0.0166069092178073,0.00433158680228892
-0.00360336003730471,0.0523635146701566,0.0118383983222257,0.00265207617258991
-0.0114870256062701,0.036182389775498,0.00704898488788886,0.00174677775980722
-0.0199891751868898,0.0219298998047174,0.00330698764414767,0.00158352175520816
-0.01491904874553,0.0196110211898783,-0.000165013806399822,0.001682578918746
0.00906823532717182,0.0228461734820625,-0.00386002039316183,0.00165518457464854
0.0368578936066487,0.0198342744631896,-0.00488120029120409,0.00116994221691775
0.0354389173399761,0.022516771180692,0.00718595680775681,0.000438269074411016
-0.00100459869502054,0.0399983271394331,0.0239011504271072,4.51118914419403e-05
-0.0341781751070942,0.0485932845314016,0.0215458099770677,0.00022740552047538
-0.0350060382057064,0.0369133882419656,0.00660489181296175,0.000781682312904594
-0.0114972162599629,0.0150375661586977,-0.000320029911824836,0.000923995580686949
0.0158295616832361,-0.00728979272913359,-0.00279405149007486,6.96425766205268e-05
0.0359901028400965,-0.0197119552865937,-0.00544357810311997,-0.000523215426942516
0.0486774408313609,-0.0234272434570134,-0.00580068803218701,0.000674552998822766
0.0598179585176814,-0.0290928719711554,-0.00645400336251053,0.00291643928207688
0.0706264571425081,-0.0338933732044958,-0.00589887938440582,0.00443383435356154
0.0806288446861866,-0.0354258845913879,-0.00823089281177563,0.00476087926770262
0.0911869314149808,-0.0395504406514145,-0.0137223572401405,0.00461555785594984
0.087911497763232,-0.0393831676190273,-0.0152882765566402,0.00426569123295422
0.0659868297465756,-0.0297318792180113,-0.0132223215076906,0.00358388854483387
0.0520113954816732,-0.0185345424808103,-0.00739193948940022,0.00268550105377843
0.0651600619156422,-0.0135229440605201,-0.00538969876052863,0.00172612106986173
0.0923169866936417,-0.0125162235293062,-0.0118764522526646,0.00112324658778791
0.105715986731986,-0.00886200906398302,-0.0181698727350681,0.00121202964593985
0.096959240457038,-0.00107257964193021,-0.0181326824924774,0.00172817199497133
0.0840040740176526,0.0113040801620881,-0.0137332373597986,0.00220645030736085
0.0707477846927265,0.0305393977529832,-0.0112673853103586,0.00227096893137877
0.0458368786118468,0.0569254726299803,-0.0118938129630088,0.00132401131465972
0.0190631512693969,0.0614463970033107,-0.0125687377462063,-0.00105203549279535
0.000484525467339611,0.0123212212970212,-0.0123470566547829,-0.00425648874745051
-0.00716949030180343,-0.0530971500619901,-0.00858265200311851,-0.00674218931303221
-0.00633756690670672,-0.0771555535719287,-0.000922085691275373,-0.00722708604066892
-0.0162076371621306,-0.0598651691396948,0.00602985663511319,-0.0055691479055788
-0.0280028919932521,-0.0252929922717195,0.0101642617090285,-0.00263782402594709
-0.0323036396215508,0.00558993599629896,0.00985054748907223,-0.000226946252431215
-0.0480719247706002,0.00800441157592244,0.00509048621484639,9.97535543491822e-05
-0.0581273266914413,-0.00959886361774363,0.00144317936858464,-0.00129134816868218
-0.0366465181149696,-0.01105311001816,-0.00129138349795173,-0.00243471363613353
-0.000850574052872366,0.00881521245268513,-0.00401180930697028,-0.00213854617334196
0.0265352857850483,0.0252859452059973,-0.00379441793724635,-0.000923820761647113
0.0424778559012792,0.0221265826206457,-0.00465852883165413,0.000278444234143034
0.042071271043276,0.00787327521348232,-0.00921532504067508,0.000873478066828712
0.0151549629544411,0.00161687513273275,-0.0136352090507215,0.000865936555071844
-0.025625571675642,0.00439594420561769,-0.0154490889336297,0.000889398320918274
-0.0458350421173933,0.000953877707238787,-0.0192313872089786,0.00138934013778828
-0.0276889194336533,-0.0134279177576826,-0.0222229577749386,0.00189265595174867
0.0123880831524244,-0.0300353755706481,-0.0160874374970885,0.00152786269667865
0.045243410270359,-0.042784444027275,-0.0101009675965996,0.000287363092702876
0.0629710770332609,-0.0525372951342721,-0.0127100352648813,-0.00109884163426282
0.0782871636881851,-0.0574297464043819,-0.0134041391230276,-0.00247773051458924
0.0901186159568954,-0.0537244862329076,-0.00877563280076227,-0.0044290696447402
0.0836241179165411,-0.0412508383705664,-0.00554758433729959,-0.00695694869428713
0.0492277596361599,-0.024187472185303,-0.00159039782446898,-0.00905157619987867
-0.00391414273488211,-0.0189315956784698,0.000469576683657803,-0.00955450879937004
-0.0486653737893554,-0.0277872459617282,-0.00122192922791252,-0.00776651464444462
-0.0722596585610656,-0.0241711875915232,0.000109765359634816,-0.00439558610859444
-0.0739583843451084,-0.000210090310090887,0.00122122924111193,-0.00121618364760526
-0.051677858297747,0.0231729189073869,0.00192752900134117,0.000766785286521249
-0.0204157551044291,0.0312114182876339,0.00681366015983783,0.00150410100688778
-0.00365995501410692,0.0305892980610285,0.0155166255095015,0.00137639643357744
-0.0109176840741921,0.0368387350586848,0.0242366978588991,0.000901417772533729
-0.0434735543488044,0.0430671036832209,0.0219472343614522,0.000442231690427451
-0.0849922655341439,0.0284887501987648,0.0089386519007837,0.000595737490301727
-0.09589635242907,-0.000799729639215874,-0.00227948700461935,0.00170687512765021
-0.069784619111484,-0.0213227677196929,-0.00742917464284564,0.00302896080135572
-0.04543334019083,-0.0253771905664536,-0.00992634188745084,0.00372141536568156
-0.0367269079481197,-0.02257431816681,-0.0124242063962622,0.00367424699470826
-0.0148419218989065,-0.0248628560230101,-0.0141632766338698,0.00308236432518869
0.0286180367132616,-0.0325208745611561,-0.0125977492050964,0.00200794130989474
0.0655237859640716,-0.0388927429126258,-0.0108854436958564,0.000697774693356885
0.08515170785755,-0.043803295407174,-0.0130638907134891,-0.000219518018286186
0.0959858821538716,-0.0477460589320247,-0.0152041487707761,-0.000751009234816146
0.0943763480819281,-0.0376962016612312,-0.0138761431671464,-0.00147336601660145
0.0786557478684874,0.00213908450898956,-0.0105138524346495,-0.00253588676900212
0.0587575779586195,0.0309971218780766,-0.0105256167779567,-0.00364203796647194
0.0477337605249128,-0.00212162166610087,-0.0142396793537495,-0.00354067602477046
0.0530968089019175,-0.0466979912693597,-0.0114478330812556,-0.00118326969611569
0.0630391935760277,-0.0435593374468374,-0.00427407346471817,0.00208086997987303
0.0574602018489797,-0.0173676007502667,2.39610281283064e-05,0.00422728566114005
0.0321435659899177,0.00322645069905697,0.00928553504510027,0.00477820847453767
0.00239324506651184,0.019260100603837,0.0222444877741518,0.00415591170814991
-0.0210555852003709,0.0324832768715671,0.0260647387007603,0.00275801444792637
-0.0402707880882609,0.0465490706453606,0.0196176938010552,0.00118737153417843
-0.0460691062043003,0.0513858183449196,0.0120494679738249,0.000100739092860902
-0.0255361256378967,0.0342519690328627,0.00631507325004157,-0.000579285180907257
0.00207077546123698,0.0208187161255395,0.00288037918350361,-0.00119469894806668
-0.0010870116538809,0.0255152550564684,0.00544741363137572,-0.00168143519847182
-0.0310802231574739,0.0177719093377748,0.00840350705278757,-0.00169519222694465
-0.0509839672321774,-0.00987517829461944,0.00205749714053823,-0.000764470360277236
-0.051668296179659,-0.0314674058099498,-0.00879106349536776,0.000962139107674554
-0.0425655369599641,-0.0347628691746892,-0.0139649327926907,0.00259384948617825
-0.027593711642606,-0.0256734467169047,-0.0155803523422539,0.0034863434873868
-0.0140290616237036,-0.0116098870088945,-0.017153178429873,0.00348708841857054
-0.00731633491602536,0.00111959537828895,-0.0185078177182282,0.0027042940505579
-0.00425266560690386,0.0143386746620308,-0.0206858196293799,0.0015756530542401
-0.00301436874565783,0.0334042405286525,-0.0203413679812913,0.00058995228441232
-0.00499045276141197,0.04350450684811,-0.0161219781490165,-7.1292270790609e-05
-0.00910524302249404,0.038000572698763,-0.0099144639959827,-0.000445681571170331
-0.0160722729958259,0.0344765587748963,-0.00352125824646336,-0.000611357697680428
-0.0228500869411265,0.0363137260469714,-0.00126011613697823,-0.000521814937136487
-0.0221297617119734,0.0333446721473561,-0.00198455658662884,-0.000131946510312451
-0.0190379448767037,0.037384636657153,0.00299160340313687,0.000412058698500258
-0.0250031768817925,0.052974300905177,0.017581985487418,0.000577671080674202
-0.0375630872165921,0.0354998932725866,0.0267823945183045,-4.66043773410594e-05
-0.0458378741321891,-0.0158232108728338,0.0218086649712841,-0.000421044526747712
-0.0466318541488423,-0.0368732672178615,0.0176186801395404,0.000397326236797805
-0.0436092552071508,-0.0230604538896876,0.0185308825215333,0.001070761870162
-0.0415720990407145,-0.0108914608740265,0.0143193987263476,0.000388424860168639
-0.0419137573018735,-0.0060699089382291,0.00555214443601548,-0.000818174964238318
-0.0382230736984553,-0.00222124164632919,-0.000675971998550136,-0.00151147732738288
-0.0297207343550212,0.00316468075145303,-0.0022509228718465,-0.00155484211998405
-0.0233035209061382,0.00687245921596642,-0.0014511682018803,-0.00114283814132206
-0.0206651457926161,0.00420299542770648,0.00118308917785558,-0.000560757419338207
-0.0228216371168673,-0.000598035455789889,0.00628542539468233,-0.000157607434047337
-0.0319747690200172,-0.00172829542095595,0.00668125288744893,-3.78740150900279e-05
-0.0394692854605608,-0.000897719251848103,0.000460059758036771,0.000224285953976942
-0.0370659735679855,0.0036182406219846,-0.00363792782067189,0.000953789988501799
-0.0290779434375019,0.0173538907325891,-0.00248476070171433,0.00151544114958125
-0.019300529816089,0.0294147141864783,0.00152955047737851,0.00114089692887778
-0.0144665470859697,0.0278465311761135,0.00636756484238022,-0.00016088996013574
-0.0172629931942409,0.0211373538329558,0.0105256393653951,-0.00184885775267595
-0.0201907154738746,0.0135339370277009,0.0126795476435996,-0.00284767052192731
-0.0219087348502516,0.0036900750365136,0.010060160842756,-0.00211070035964691
-0.0231313682406397,-0.00241358629405638,0.00594988904222193,-0.000188175893084777
-0.0205762838366604,-0.00423326117497976,0.00615615664547151,0.00112272382288605
-0.0140541544137128,-0.00995302511292329,0.00832100984898865,0.000898996325861321
-0.0103687792126067,-0.0214900420293151,0.011580889813714,-8.21779669061922e-05
-0.0130071569777238,-0.0299784372540593,0.0139109726912593,-0.000202260079033989
-0.0102052092694229,-0.0291579822089101,0.010408769918894,0.000967397184904123
0.00831951815534099,-0.0206541187927093,0.00615586722161099,0.00205934487413686
0.0311907439111569,-0.0104980633938923,0.00529086107800378,0.00192851514337771
0.0364307346570961,-0.00615741167893412,0.00780190098211231,0.000738792524746941
0.024130130661451,-0.0110753146606627,0.014677921994517,-0.000550838987383758
0.00935832789108549,-0.0211317558616525,0.0193137018352093,-0.00117033740023146
-0.00748628025807607,-0.0295198275785396,0.0185103862397641,-0.00103277866045715
-0.023930067060297,-0.036544558962892,0.0174618220114375,-0.000474783277084551
-0.0303935964394221,-0.0493897753724812,0.0169271825774812,-9.4090720339694e-05
-0.0216228672622869,-0.0642052902858931,0.0139053897322061,-0.000319285428611892
0.00730271008802931,-0.0663835582177633,0.0105288614938339,-0.000960909746412321
0.0442199153645659,-0.055555277828933,0.0113320858262439,-0.00138119301065958
0.0613126403100811,-0.0400302492078488,0.012986038896122,-0.00147151067477523
0.0615473072644032,-0.0234598962317345,0.00937134971773221,-0.00155366379467113
0.0747840622449681,-0.0169390975807862,0.00333081110667618,-0.00157905357007951
0.0937696372277192,-0.0197087270422405,0.00149759435171233,-0.00135516754931186
0.0848144523099043,-0.0159053639659374,0.000323684380206229,-0.000776017164655345
0.0505180799828696,-0.00945820258446052,-0.00496029133312626,0.00013939307840838
0.0166215607536835,-0.0117942739688947,-0.0117824275899291,0.001386453787064
-0.00217361004499761,-0.0174898317855133,-0.0163055168806424,0.00257318022799181
-0.00305857825509889,-0.0185413306922414,-0.0140946904511932,0.0028014320730575
0.00124884842205948,-0.0182867295848445,-0.00823509752398211,0.00196746291288645
-0.00293320885046421,-0.0235449836522861,-0.00217218088529681,0.000905834681627506
-0.016946467182962,-0.0218843139948935,0.00436595006905416,0.000283842642754306
-0.0389639349246044,0.0204656891896751,0.00850215702703277,5.35197638502688e-06
-0.055636483805375,0.0875045219394122,0.00822776400597852,-0.000746148743560068
-0.0425536638879262,0.108251992575211,0.00431133857278663,-0.00229667775520845
0.0041238530584029,0.0655088848892625,0.0029151102301459,-0.00356519807959802
0.055482778670459,0.0136483001529625,0.00695577504510414,-0.00355146246478324
0.0887977623289119,-0.00781674171407801,0.0100428722842989,-0.00264213571056328
0.108941107347815,-0.0140406261431805,0.00747435729664661,-0.00142541649733588
0.118143864435532,-0.0258699536292461,0.00398057092324878,0.000146487999775669
0.111558668803253,-0.0356112827087781,0.00528344156529324,0.00191719078347555
0.0968837705565612,-0.0330915173576866,0.0111343898533977,0.00334207195930129
0.0861726875937092,-0.0233261975453424,0.0143714547660002,0.00400786285929952
0.0786940689565834,-0.0151479484526126,0.00652220385851516,0.00348405987293756
0.0609596656953113,-0.00708247117520959,-0.00861077881448052,0.001737421615905
0.027062454751278,0.00682353771290438,-0.0181797748533981,-0.000342155272037416
-0.0119119368903327,0.0255954435731405,-0.0169027387861475,-0.00174393606374647
-0.0421536586895729,0.041318267962314,-0.011431352683131,-0.00211722832201092
-0.0618286016760424,0.0482878897070539,-0.00903555785995902,-0.00155090296879108
-0.0864760760046296,0.0467884342463692,-0.00618000658767249,-0.000449497631086253
-0.111029439438161,0.0324346295788579,0.000224342034650539,0.000585669128821493
-0.115305855841441,-0.00485849884177779,0.0043967331698063,0.00119344048855872
-0.0968692036288643,-0.0487191459387021,0.00470675052953146,0.00103915033430849
-0.0582575860993413,-0.0569295596955193,0.00239762203619633,-1.36219695859835e-05
-0.0194756004468475,-0.0251318070281885,-0.000387418197716451,-0.00133424012851479
-0.000547841006182603,0.011305235911612,-0.000909256887877204,-0.00234117812512807
0.00557880060253764,0.0334580062289028,-2.60022722757911e-05,-0.00292733834729652
0.0101305423333825,0.0483546304826852,0.00285809382849178,-0.00285367531737787
0.0121303870836462,0.0636409737356537,0.0059154789280762,-0.00210539316594898
0.00870601604892726,0.0700294005950649,0.0054412349050089,-0.00094307442944256
0.00667634701675206,0.0573680018911246,0.0039245501585008,0.000613064805639734
0.0117101522374035,0.0348836747452247,0.00317259752226292,0.00243313477097556
0.0275490927243112,0.017771245661983,0.0016091770099924,0.00397118153657583
0.055126085471284,0.0120422318403858,-0.00129456606894797,0.00447075322073402
0.0738688360416372,0.0103962103804799,-0.00258167351170957,0.00371122849883445
0.06033373457156,0.0059700335469789,-0.00123564750220599,0.00246697197743104
0.017620709689374,0.00489667431813692,-0.00101224012420202,0.00131430322496217
-0.0298861025102844,0.0111098333920431,-0.00020361729739363,0.000156562946896499
-0.0601291754626407,0.0112638074656074,0.00398294460879979,-0.00107994549032982
-0.0726821547662417,-0.00605310937975321,0.00559154936687187,-0.00211737130498145
-0.0791826955939855,-0.0306136852038962,0.00196998974742222,-0.00223919459987433
-0.0710181321310105,-0.0469832076458033,-0.00184271150244767,-0.00115734055422163
-0.03996914271957,-0.0459114992158131,-0.00441994404049722,0.000380188553512941
-0.0147688793989275,-0.0356209170901728,-0.00582844473044558,0.00122905128020786
-0.0262791338937481,-0.0384622510167959,-0.00820343268321149,0.000771776356095442
-0.0515467477359072,-0.0490340469262841,-0.0126316524845412,-0.00034774900840683
-0.0390900871650246,-0.0461498211321311,-0.0113136316193829,-0.00123904320542538
0.00479281363651833,-0.0434123553921927,-0.00755025579978248,-0.00193399367236059
0.0291785103905057,-0.0492223172222227,-0.00904096262678455,-0.00252331467334895
0.0284648684617419,-0.0381634819003084,-0.00699676615714421,-0.00270707414690933
0.0321530969915058,-0.00445624546665382,-0.000366274945793598,-0.00189864014224815
0.0403101852435109,0.0298668273511002,0.00649763841092564,7.99676144131881e-05
0.0369136503501502,0.0578452276133652,0.0117941670071731,0.00192770883333476
0.0119367453939716,0.0892275381272081,0.00756349488935015,0.00261835995040574
-0.0274247681480801,0.102689787163164,-0.00443762368213133,0.0029460721177699
-0.0670065674411364,0.0754328786321564,-0.0104835016616307,0.00365178860016934
-0.10480917339454,0.0294728378739384,-0.00772154031523357,0.00425488590326711
-0.116837916559271,-0.00681490278729682,-0.00754888881358363,0.00393427858789565
-0.0814330985418145,-0.0158789389373345,-0.0116191975924347,0.00244205839665987
-0.0294258849151218,0.00018104218797789,-0.0124755263338594,0.000217732330465226
0.00857730298367734,0.00969489448431383,-0.0104985309747264,-0.00220464152073185
0.0435824926722186,-0.00611049701371675,-0.00810267565510836,-0.00425199530041128
0.0858446331729535,-0.0285143651455853,-0.00444645447787411,-0.00523896158395896
0.11910471356572,-0.0383395223409374,-0.00264020462467766,-0.00495360390871504
0.127461769026869,-0.0373811930766682,-0.00411515998379811,-0.00399997566599237
0.103913290959266,-0.0296374916321096,-0.00513425929147291,-0.00298724827639232
0.0499509057449521,-0.017406440176588,-0.00441208678450874,-0.00187847360233862
-0.00284786436577313,-0.00685397515859014,-0.00467151062394303,-0.000456936451364709
-0.0296020268484105,-0.00073014092710599,-0.00589891896599162,0.00136985453905174
-0.0396373773633064,0.00436781429982303,-0.00414876818027623,0.00332568803998352
-0.0437064327252367,0.0106728197180706,-0.00160207468850844,0.00479317762964052
-0.0499316477292028,0.0205946673769104,-0.00337168802426387,0.00516258696678719
-0.0652397803614143,0.0356443197672196,-0.00711826963336875,0.00424542034684345
-0.0734072802416469,0.041557899266475,-0.00843550542332254,0.00247926914596436
-0.0530802595205897,0.0280748120464438,-0.00626139612793934,0.000502142615956339
-0.0166876191367271,0.00863428724620643,-0.00333459310352293,-0.00126051046942069
0.00830772154005679,-0.0076104721018238,-0.00403175320419309,-0.00283628857658127
0.017363432841216,-0.0214083678917618,-0.00604627327165841,-0.00415666532848817
0.0208592084066662,-0.0266734410053659,-0.0060247891110182,-0.00461538049326341
0.0234587675475674,-0.02151444829645,-0.00883495993063538,-0.0039756191375168
0.0263145248144611,-0.0127332836960532,-0.0133768173661632,-0.00271273528562168
0.0291048705614003,0.00128397732229641,-0.0128345534900851,-0.0013420829954966
0.0256272751920357,0.0248456316874413,-0.00971745547603992,-0.000175368281286561
0.0150130399247447,0.0393793453254493,-0.00836975749046466,0.000716762437573539
0.00876177906756957,0.0223358342929503,-0.0100240978996078,0.00142474306625517
0.0107646004102529,-0.00677576812710561,-0.00916949343499338,0.00191477571499544
0.0103153452953384,-0.0156120854387871,0.000595004297949952,0.00180949425867082
0.00385483889446057,-0.00153021602279223,0.0118474204504568,0.000898114513023198
0.0010347991170815,0.0170638919100954,0.0179398657714798,-0.000195974345791296
0.000189817001860638,0.0211905133225045,0.0205501049021943,-0.00080771811300579
-0.0107832564675857,0.0130117108077162,0.0157762299600025,-0.00068654499009129
-0.0250800804912648,0.00424131200262768,0.00250076519575161,0.000184549126345172
-0.0195489809941664,-0.00246954562730747,-0.0115182530466327,0.00121469754133694
0.00473217502747823,-0.0100191199820283,-0.0196394911047105,0.00153518138087273
0.0273066429876257,-0.020893107637617,-0.022871639347757,0.000937905325054163
0.0439354433686035,-0.0332378198986687,-0.0195980615433762,-2.80927391898538e-05
0.0568388760421904,-0.0382706673609506,-0.00238189722092879,-0.000911677376565802
0.0621701845844621,-0.0322027667619035,0.0171698313174994,-0.00146323891455876
0.0655831296479522,-0.0243287625899604,0.0186848594261643,-0.00155919841143812
0.081943100772843,-0.0211724535070088,0.00656293238608553,-0.00140613175546773
0.100703448013048,-0.0231742331551886,-0.00315811349734242,-0.00124598177089837
0.100724962264448,-0.0264013200210188,-0.00676053607384134,-0.0011461589123686
0.0859223648848368,-0.0238451990956052,-0.00649430163127902,-0.000986804394095284
0.0647504041277284,-0.018851406103199,-0.00572231413696407,-0.000772449459025926
0.0419360422219683,-0.0128847354586136,-0.00511549817298688,-0.000782289347955262
0.0258685440964208,-0.0100012637237705,-0.00211047933747464,-0.00147627420278018
0.0228572512898351,-0.0217364735308244,0.00105295173015492,-0.00237039055929228
0.025328454058682,-0.0303102186193391,0.000505698382007225,-0.00171087955034601
0.0157735012346068,-0.017926618293301,-0.000720685625295278,0.000749002778410428
-0.00620802348945766,0.00071290205054253,0.00165163054342167,0.00309844667859049
-0.0327680834622231,0.0124538986756718,0.00315580642373631,0.00387574610662407
-0.0688149108639688,0.0222036747366227,2.05462227716707e-05,0.00329919892794381
-0.109383908180936,0.0352761728183374,-0.00180380106735124,0.00219097548368206
-0.135715853162983,0.0344375080495298,0.000937880726070785,0.000582517231694172
-0.140260465311448,0.0113203416643604,0.00259643958524758,-0.00144808478191062
-0.118120397278117,-0.006061084747859,0.000234379473813378,-0.00290903560796936
-0.0709995075743146,-0.004401960939663,-0.00198848559570961,-0.00307142262585719
-0.0211696524004784,0.00453481682708372,0.00295090259728771,-0.0022315414263378
0.00592178931864051,0.01509274329864,0.0133002214688825,-0.0014440891811146
0.0103290042693178,0.0195150120469697,0.0142898795510182,-0.00135233093958409
0.021546419962786,0.0159736719736222,0.00353668998151119,-0.00112277517186722
0.0474187226695728,0.0114404508609121,-0.00233186712450648,6.5059217274588e-05
0.0554677323959292,0.00240792968730882,0.00039496352201592,0.00126835350418674
0.0331733474989977,-0.0101212997850611,0.0038039400802293,0.00143604355410501
0.0101874305728877,-0.0168673707762577,0.00523584582077297,0.000876482167088653
0.00714389219169952,-0.0153308518898634,0.00485215806167757,0.000141167467723604
0.00926240014310348,-0.00690116046593331,0.0064572958615142,-0.000267068104017166
0.00275469619909471,0.00140260870410422,0.00805930129076784,1.89232980646701e-05
-0.00381161684643726,0.00373694139882113,0.00596885257455308,0.000804055659623982
-0.00822241107425923,0.00476444724049977,0.0050409149149105,0.00168787244175295
-0.0221129584509675,0.00853979536524399,0.00531959229109645,0.00234163222619668
-0.0493106289945382,0.0133602136885555,0.00415571532101455,0.00261643131640344
-0.0736368739273833,0.0158860037605696,0.00337627721336386,0.00238973949249019
-0.0759987307307076,0.0132192121349136,0.00282323546076564,0.00153935582619012
-0.0616381214409599,0.00654925565992963,0.00149608961985407,0.000290651143532539
-0.045996674389074,-9.0836726623137e-05,0.00146142780816263,-0.000757660011327942
-0.0355820462790346,-0.00119382481565351,0.00507396643951065,-0.0011669529025376
-0.0326975119807068,0.00465775268655234,0.0088744203476784,-0.00113898871494465
-0.0342049045909194,0.0127641426732759,0.00798495498051966,-0.00116372536869223
-0.0395073104690435,0.0194225903308195,0.00706385756745203,-0.00139078025498462
-0.0502336041169474,0.0269198772839304,0.00829514872111149,-0.00156287560269358
-0.0567016998298386,0.0351078471311259,0.00536329714704315,-0.00142859188973729
-0.049871785595872,0.0293669302325951,0.00190087431000895,-0.00100822155144005
-0.0334153490460272,0.00559478866514609,0.00274309645679357,-0.000242709095803345
