0.0932491592263512,-0.0256918137269652,0.0401355737074726,0.00427461800092552
-0.0019574850685854,-0.058594686135984,0.00999786510045617,0.000921457895340953
-0.0784194967611979,-0.0691907024942366,-0.0122958198459047,-0.00465737563304811
-0.134081081586111,-0.0501515783148022,-0.0170552673639139,-0.00790533847096631
-0.178329868442663,-0.0152558527506296,-0.0199018421449973,-0.00686275319593591
-0.15294879823747,-0.0136802016606417,-0.0309717951439836,-0.00379177027336179
-0.079115219953805,-0.042502620197915,-0.0412843167263689,-2.38282417634513e-05
-0.031813200459495,-0.047371440801061,-0.0414571203258187,0.00539789291543516
-0.00262754009714448,-0.00446444186740924,-0.0302542276031382,0.0117956558753291
0.0132375739853468,0.0456498715319733,-0.0135803882912389,0.0154809714364268
-0.0179965724345584,0.047454226023185,-0.000244539300343884,0.0134069606130173
-0.0607481716767798,0.0223635826707348,0.00607891264132856,0.00694778646409152
-0.0423763253881009,0.0128054845182582,0.00442580806235295,-0.000619800462425584
0.0224217727258242,0.00763164203518306,-0.00307998491863167,-0.00897073111972837
0.0586664924544515,-0.00441694426113127,-0.00804663028392389,-0.0189660344217702
0.0626225309425226,-0.0201871828691453,-0.00587076778078298,-0.0257823595640638
0.0978157963628866,-0.0329730816084645,0.000890149275237624,-0.0222908313864711
0.150264454056525,-0.0266645663864329,0.010350601609422,-0.0104165312731815
0.145719012667141,-0.0108525660713828,0.0168950568562273,0.000886475667530171
0.0877984726212533,-0.0168982511604625,0.0132981482783054,0.00642319283057495
0.0381110468272221,-0.0331039191300552,0.00435689260980115,0.00685137819162942
0.0283299669916423,-0.0153244634078858,0.000277928638912937,0.00466319337297351
0.0209995183501329,0.0562104780018513,0.00567581352307851,0.00233305193790528
-0.00700767575962465,0.128370069365263,0.0136644623277245,0.00159793299326014
0.00347709668816963,0.120345617367924,0.0131230449621167,0.00301667645278879
0.0633191187723904,0.0666204576139827,0.00387022620718673,0.00628879355256067
0.103844530608261,0.0498474864050643,-0.00623842767848553,0.00943286021230563
0.0880962117375599,0.0520237293533235,-0.0175303728032354,0.00987021490272258
0.0260492003547044,0.0315659511927734,-0.0280585532370143,0.00821732082087032
-0.0520678266682852,-0.00341099897989049,-0.0278276145479641,0.00564604703782233
-0.098472629012135,-0.0397718691278747,-0.014807967871583,-0.00021203153837415
-0.0739444058275774,-0.0714889754315995,0.0035450920732096,-0.00989809375041129
-0.0108702847349533,-0.0804414350805494,0.0177820242109683,-0.0185548246762152
0.0259604734098207,-0.0557484918598268,0.0226381820316253,-0.0207691754693599
0.0295121331528449,-0.010449812806205,0.0186103471117104,-0.0155968753206998
0.0289236606551048,0.040209770552872,0.0168625521182362,-0.00742786322914061
0.0564446925527347,0.0844532045813639,0.0225233224168884,-0.00283807661237363
0.0998959766601506,0.0851686974282871,0.0193292628991928,-0.00369987160433023
0.0993614234400642,0.0193587758108224,0.00131133127103327,-0.00408240812914346
0.0283059589800084,-0.043121532098312,-0.0141472297051134,0.0010945084510776
-0.0767304783262855,-0.0439819639357421,-0.0184938187240753,0.00855998797410227
-0.138839165650251,-0.0251772151566522,-0.0204787567504066,0.0121330225318894
-0.107437673424974,-0.0153012153636962,-0.025138224485466,0.0108390168398454
-0.026334440698253,0.00952462784096579,-0.027439513434408,0.00833335369375461
0.0246320690779373,0.0515119959333224,-0.0232871107826911,0.00687613284537854
0.04137093435147,0.0714341758059413,-0.0149017246417482,0.0056162743607849
0.0560739437399476,0.0505503716976708,-0.00987585989950339,0.00339792764719724
0.0368373474908536,0.0144101649353213,-0.0131651845396968,0.000783488551015555
-0.0381420226672934,-0.0278036790559239,-0.0194670700604841,-0.00103617886724339
-0.0917880602222377,-0.0626229985836766,-0.0192696839525925,-0.00240832646908846
-0.0667508455619236,-0.058340048382066,-0.00725902803252543,-0.00433356474525307
-0.0237927475313434,-0.0279244940411497,0.0115874672928881,-0.00636275582336329
-0.011003947405875,0.0137352298104186,0.0239126896745384,-0.00702699588997483
-0.00337977370060419,0.0587408142019961,0.0239306675231572,-0.00648024770535946
-0.00784929694230094,0.0710928211603062,0.0180468118062444,-0.00676887137948221
-0.0458686170423116,0.0541049179927868,0.014493945517965,-0.00862945788080289
-0.0821561641387667,0.0321260340117496,0.0146125725985074,-0.00980791355378156
-0.0647032401917363,0.00781992652132317,0.0245111539461925,-0.00728207564787715
-0.00269654305666167,-0.00352572687560014,0.0357228554702059,-0.000911500342467494
0.0552672528794871,-0.00021977016300843,0.0179673915227076,0.00619675122845668
0.0890453240484181,0.00478950591706105,-0.0133724803247782,0.0112214350620677
0.108520107223606,0.0101140799485104,-0.0209933192323972,0.0138655775292312
0.131521317007725,0.0154257644188327,-0.0092650465922084,0.0146046250472647
0.148409844406396,0.0145903122157614,-0.000853139263000444,0.0132574908491983
0.098774492915218,-0.00041982810351248,-0.00538773323653713,0.011036348626389
-0.0209780120914217,-0.00167942064383526,-0.0073643439550316,0.0103652631638092
-0.158966612845071,0.0127757220635233,0.000888729767348023,0.0108136994795025
-0.281590305305421,-0.00221110237905013,-0.00186999328784718,0.00931351628052364
-0.290743451254563,-0.0105581160544771,-0.0109614041538688,0.00429432954164449
-0.16306570923677,0.0133913693866145,-0.0096893601841298,-0.00329357512740372
-0.0225019482729071,0.0235078784747237,-0.00650005587787119,-0.011778565659814
0.0593273543593828,0.0320079100590659,0.00182486530895625,-0.0201001681181476
0.0786079888411651,0.0449716650903725,0.0180533192835212,-0.0267404213710216
0.075923400602141,0.0274881404041804,0.0216134619306624,-0.0277898563723734
0.0841789210869281,-0.0189110602583097,0.000216718519253095,-0.0195542079835042
0.0653941328826523,-0.0601241665447642,-0.0250417712852448,-0.00384814951459216
0.0284203462487046,-0.054470371523538,-0.0229894448127322,0.0125884981229148
0.0237362320462859,-0.0156800259029917,-0.00577481086015276,0.02370752903707
0.0103252356126322,-0.00593388362290187,-0.0044325906205274,0.0277211551571611
-0.069589341374645,-0.0262011691019646,-0.00582973534893154,0.0258975058736771
-0.154037091776625,-0.0375288281154245,0.00509377301198702,0.0186145120274857
-0.168045200686985,-0.0517241745792661,0.00470442134693338,0.00646787881621015
-0.136141365620169,-0.0836036831785939,-0.0214983109974161,-0.00477470347309741
-0.0992998339163931,-0.0973038170414883,-0.0512738531262192,-0.0083342066035875
-0.0683381996784019,-0.0681016120894724,-0.0572550654565099,-0.00507891727324834
-0.0554539211881626,-0.0297661299683081,-0.0421072337807581,-0.00126971708103245
-0.0684422235755906,0.0016210555486833,-0.0257057270578581,-0.00151378618503401
-0.0677067546602856,0.0431088207132197,-0.017473870698088,-0.00714298165375049
-0.0126759956055399,0.0697260115366698,-0.013591651302903,-0.0144522328592762
0.058950045012356,0.0652816274947285,-0.00491638965474462,-0.0160367267970347
0.103432940407112,0.0548128071305975,0.0108533261957357,-0.00959999319227289
0.128467624323677,0.0462908487720285,0.0261275229710961,-0.000294903943403924
0.123419474613105,0.0235382028027832,0.0273417475898192,0.00644773906098032
0.0666979111899412,-0.00523765664301624,0.0105265793574616,0.00914007124925803
0.00551217350344632,-0.0102374673162224,-0.00659849675355373,0.00881674582175216
0.00174805072398135,0.000878189617950009,-0.00963043551843831,0.00674486041305567
0.0207850682133923,0.000886283060431259,-0.00727220698149368,0.00368423017797332
-0.0176750202811537,-0.0225457956449525,-0.0147218591567012,0.000691076955905256
-0.103924331466311,-0.0627983232279083,-0.0309649536745644,-0.00147444806753505
-0.138936600729647,-0.0955481408665564,-0.0443943494426805,-0.0036560664661602
-0.0741731498281132,-0.10174473613707,-0.0483836070178425,-0.00564692240739693
0.0219579031369938,-0.0763474637598529,-0.0397222692852274,-0.00473626114212593
0.0996711156119255,-0.0354651294640994,-0.0185295458295439,-0.000549846218294162
0.169185756646252,0.0196444100566961,0.00770306861955827,0.00285061357047968
0.191411493869195,0.0749498255018137,0.0239091117672891,0.00207921205133662
0.107330227813278,0.0854249509809976,0.025842299687909,-0.0020573792319331
-0.0593824099823643,0.0653656714658133,0.0218063873443747,-0.00691377917764767
-0.183502674630618,0.0334486739941409,0.00882525933188061,-0.00992907486899188
-0.165832190846882,-0.00757346556835389,-0.00826171713798021,-0.00841864884196494
-0.0395039784124459,-0.0248484644575155,-0.00931700150950168,-0.00153006435298193
0.0735931590786151,-0.0217104947433147,0.00401603337471871,0.00741469367092671
0.0870235798397822,-0.0287846684230726,0.0102674328495824,0.012452764058715
0.0626821945659603,-0.0325618344626254,0.00822108808394238,0.00982135553143817
0.0742089857636573,-0.0213793617219055,0.00918702781989914,0.00105488243294398
0.0532278853040664,-0.0145345763985614,0.00687405529787882,-0.00719115223828468
-0.0190869486676874,-0.00719956382734095,-0.00370542744405852,-0.00739470651541487
-0.0374867613608415,0.00884597972732094,-0.0137765479774315,0.000685864539748428
0.00585521140926521,0.0251872469676267,-0.0160925822764161,0.00918976462525533
0.0370776563571411,0.0402129382350043,-0.0118689255127231,0.0107157491906711
0.0648879605130358,0.0396203487594327,-0.00976082972974173,0.00516942807089097
0.10983161808191,0.0235813943587333,-0.0127171349724987,-0.00138080129987635
0.124684592426575,0.0494404180419715,-0.00909278431968924,-0.00623045850096604
0.0814906034680053,0.0845159226323897,0.000669313699044088,-0.0127069283974245
0.0259196843734758,0.0312676792749282,-6.6678677118074e-05,-0.0193532132460722
0.00608976970040796,-0.0465242026634969,-0.00808118978211382,-0.0191032168942512
-0.0142438888242922,-0.0576300888828743,-0.00885878738269592,-0.00992946302231452
-0.0615832156642867,-0.0256321590521039,0.00218452480325246,0.00335071341569381
-0.0812410412809543,0.0112324006227421,0.0183152854527343,0.0142001058727794
-0.0682705254944884,0.0374271961244161,0.0276891368241013,0.0186504130222604
-0.0532138673325316,0.0559025842623722,0.033682994742581,0.0167412971264883
-0.0153105918560054,0.05127619737122,0.0354009869379639,0.0101736271446971
0.0679554337914077,0.0107145329256002,0.0264183669608658,0.00136314682043742
0.182900745733797,-0.0134591391315323,0.0203142574823105,-0.00608512620752817
0.243538904390595,0.00176965031912656,0.0188885587188796,-0.00985334090905523
0.179333113996116,0.0139382431144283,0.00888775136666975,-0.0100344088174858
0.0668793701175001,0.00505903558190751,-0.00577504039051502,-0.0075971550625766
-0.0170486149315721,-0.0119818764594075,-0.0147501969641098,-0.00375299253558696
-0.0884815482477991,-0.021231020886662,-0.0143235808308103,0.000394566472595159
-0.162499550579244,-0.00231907820899959,-0.00381595172565375,0.00244661036812766
-0.191364305199067,0.0234253061453125,0.00528016242841483,-0.000960739386301696
-0.122451405063522,0.0110949202389358,0.00289209989878382,-0.00736677615540443
-0.023542980480198,-0.0106275806051852,0.00131674971037807,-0.00915569014643436
0.0104597711011065,-0.00871329992650495,0.00934914548738239,-0.00408801831747309
-0.00652632593258721,-0.0064310502403117,0.0181480886542226,0.00291705034295602
-0.0177100803326384,-0.0104452868995389,0.0192870310090933,0.00715377115828631
-0.0193838478499296,-0.00375200301778557,0.0138645375924192,0.00833979969183268
-0.0373592786873008,0.018016018969207,0.014963475953719,0.00792252144509381
-0.0621674961158701,0.0227507856584627,0.0228387017210505,0.00567887320008991
-0.0714756939650954,-0.00640576724573461,0.0203631544547385,0.00171246684137326
-0.0567865452004651,-0.023072222421726,0.0159921239838077,-0.00159979555034118
-0.0144308504919976,-0.00914031471536298,0.0254997712135925,-0.00274706349536039
0.0313156681683156,0.00727207848472906,0.0369049841449742,-0.00292718204190823
0.047218736035093,0.0139333720841352,0.037987728913236,-0.00339910071017027
0.0374803517662377,0.0128505435165652,0.0328978737983792,-0.0037333657646747
0.00143136149037234,0.00537506933415686,0.0216465917019773,-0.00328639256194744
-0.065916836764779,-0.00738658631968001,0.0044823941557283,-0.00259888616041567
-0.120098046443076,-0.0203609052245686,-0.00815340071377226,-0.00192686006685751
-0.115381710694258,-0.0198315693850642,-0.00920462864195236,-0.000396986281118962
-0.0671658917181233,0.00530169626173373,-0.00255243835260704,0.00170379241091875
-0.0225827448545098,0.0342898788367434,0.000452483933979935,0.00272376459485856
0.00339240121247476,0.0496792677327892,-0.00437696518589333,0.00212135765114235
0.0216989878931119,0.0547768445236487,-0.00683058322013923,0.00108655288266791
0.029666633782693,0.0282726474202109,0.000217594185506476,0.00120836388467023
0.0186331935338749,-0.030625952978244,0.0010979512605921,0.00320130172294501
0.00167275451750494,-0.0663470698008826,-0.0129893572607915,0.00649237439862001
0.0187627180473095,-0.0538699543243206,-0.0217998959905641,0.00956420670480894
0.0575137715400196,-0.0213262423849392,-0.0126248266011265,0.0109505709456576
0.0477462241081504,-0.00236932869552844,-0.000269279074405861,0.010109781661196
-0.00839450457261594,-0.0139185173416959,-0.000369317123071672,0.00778042661434518
-0.0514598835271297,-0.0316160518844647,-0.00721611229389917,0.00511891066745225
-0.0672417566437482,-0.0308734749036085,-0.0106860210631861,0.00189561789152051
-0.0681716435225769,-0.0199359577003258,-0.0125834695808678,-0.00218523630417002
-0.0527420574725279,-0.0109416314824758,-0.0136060454830622,-0.00537665022915834
-0.066955638803504,-0.0307874542574251,-0.0137996355027066,-0.00712227847026095
-0.135204615663448,-0.0727735155487809,-0.017020315377694,-0.00895649065917174
-0.170834648809647,-0.0892531613267757,-0.0234498052286202,-0.00947619348182205
-0.13928153941174,-0.0840862972404289,-0.0338891694235287,-0.00447144877301643
-0.0964093658162953,-0.060169141362688,-0.0417445614331074,0.00681074060844028
-0.0563198271927902,0.00419022786638495,-0.0353560854077041,0.0189129781821035
0.026493102160817,0.0875067648529558,-0.0181514132242094,0.0249998301262354
0.121397264940575,0.137574911871927,-0.00314350807300806,0.0224254800867926
0.124102547987158,0.101526958537945,0.00160269539281318,0.0121184637150009
0.0771225120161148,-0.00989865756559441,-0.00769122948384109,-0.00385336064742555
0.079431361233462,-0.102952207796888,-0.0227268478024715,-0.0220254903187034
0.0772012403126353,-0.124132174834512,-0.0278237307776561,-0.0346939366016954
0.00385040230892823,-0.0662539630669874,-0.0191190867625765,-0.0326795894421432
-0.0869697150821633,0.046392103185213,-0.00756144548610856,-0.0178183943226968
-0.0947995627323263,0.093303617835672,-0.00727518251160711,-0.00197675503982808
-0.0157567613182317,0.0348807517540269,-0.0156311269848797,0.00873077506171747
0.0401864982102406,-0.0224740937156275,-0.0221971724433123,0.0156246253828267
0.0247245237099896,-0.0239540030663455,-0.0238013924512574,0.0189723302831256
-0.030696979112435,-0.0208871131220941,-0.0249096962888732,0.0177808492032916
-0.0911440741734447,-0.0533649495438565,-0.0313708807186022,0.013283457312779
-0.0571539268731794,-0.0821885557645017,-0.0371207569736984,0.00812551352404744
0.122492061544226,-0.0630073633362322,-0.0316888869819716,0.00374645208418345
0.28051732455017,-0.0132983394161275,-0.0127644289137242,-9.36060435075652e-05
0.252483703646859,0.022935538022242,0.00751942467033261,-0.00372925766532281
0.128456181198703,0.0377602601968938,0.0127904647537491,-0.0068033048755858
0.0854172037597322,0.0382674518470802,0.0044003712276007,-0.00868704663756514
0.11478829877356,0.0148033812597708,-0.0105726515111912,-0.00865618472329921
0.0714560376186683,-0.0211050502384891,-0.0234723832134963,-0.00576892984590403
-0.0654742314924689,-0.0356426245726577,-0.0230564902708084,-0.000676971427113902
-0.169185368636528,-0.0132398091747662,-0.0100641483990505,0.00183697548313672
-0.1689095721499,0.0307463737313165,0.00432874298302003,-0.00294517661687222
-0.106251889566146,0.0539449318318964,0.0114815728514186,-0.0122385019123879
-0.0507774319767851,0.0323644736271761,0.0124358518900354,-0.0188454113115116
-0.0239888199707652,0.000694774310949255,0.00970971595685306,-0.0208081264020357
0.015856644520087,0.00448530228794678,0.00663876465607996,-0.0196551358318639
0.0707002462013925,0.0281875071925857,0.0040912918907004,-0.0137739224589756
0.0815371763330405,0.0333117588365469,0.000527119464147862,-0.00275670727574108
0.0459201154931178,0.0122941636166409,-0.000343818492960562,0.00833670217842824
0.0243650014435687,-0.0224911671893464,0.00126566787351781,0.0144965791500156
0.0354454754186598,-0.0351077224549399,0.00743237116391359,0.0158770218611929
0.0393953622241014,-0.0126326664535065,0.0256267423589163,0.0138482920898306
0.0288728210451433,0.0128783495648707,0.0428599393762535,0.00752276606472742
0.0277924044927396,0.0162217585011803,0.0367843357444538,-0.00109572571445999
0.0380307361253067,2.75087909987672e-05,0.0167928094854508,-0.00606409166112478
0.0688318804346285,0.00342640878503528,0.0109223254286575,-0.00447907719242856
0.109846333850155,0.0472285213185953,0.0180457818404178,0.000238841950344558
0.11000520643546,0.0839322635011962,0.0153491745103981,0.00311671335850131
0.069475071937006,0.0748774543542892,0.000122238616611845,0.0031435833131165
0.0434099758383138,0.0400633473486951,-0.00811888856919236,0.00230855118413052
0.0556181606570258,0.020583094322732,-0.00347203861021327,0.00198317857463917
0.0764213984303656,0.0352269119183,0.00380969109109688,0.002003970179147
0.0805561716085667,0.0375137712257148,0.00799853687828248,0.00162334666331085
0.0755398461050716,-0.0145402806851135,0.00692607961995787,0.000683076692444685
0.0336337068363361,-0.0653051651122299,0.00339465488198048,-0.000275327039084094
-0.0752997893872475,-0.0598937783304764,0.00274271619256243,-0.000968442660280782
-0.167252912412501,-0.0189141264345038,0.00723258055109779,-0.00169268058151507
-0.165437697664524,0.00871056382635346,0.0149504434852388,-0.0024276093070445
-0.146659545248043,-0.00214724454492267,0.0198439813870378,-0.00298917397320354
-0.146720694747958,-0.0211670170743804,0.0195854712007045,-0.00376732099511632
-0.0974393658299334,-0.0113524623789132,0.016464103275035,-0.00462882745607006
-0.0166181869419227,0.0175354199970067,0.0123456822141225,-0.00438942616290155
0.0477860838219137,0.0356691520052932,0.00928957764539521,-0.00206089897791219
0.0808017067471119,0.0339704584812936,0.00360048610952932,0.00258709098039401
0.0775600350313339,0.0251514960187844,-0.00774026008583369,0.00901528980995732
0.095944075727351,0.0168308712743603,-0.0147809884005837,0.0150054859929037
0.152498456562588,0.00516891511207,-0.0115546548265961,0.0179543325476929
0.161136237226094,0.00590174363181082,-0.00271170024074422,0.018889254857377
0.0848973956391894,0.0265812240663769,0.0103126696256596,0.0207035103026162
-0.0193062717868356,0.0235982605949344,0.0201272143761578,0.0206015290247429
-0.0875360519941002,-0.0126998536225554,0.0211767008992959,0.0125474646649672
-0.0994373168863473,-0.0361981281286555,0.0191235669318357,-0.000631929594475049
-0.0980060591181504,-0.0376572582845957,0.0169830711782372,-0.010140579665612
-0.12269305509634,-0.0363792449202067,0.0154362354343179,-0.0165879843435867
-0.108252229026959,-0.0268635442305356,0.0138710389123823,-0.0259792108606575
-0.013795880119208,0.0040378770770582,0.0106134702759528,-0.0339668285580594
0.0603133863406804,0.0554179309311919,0.00979339550433695,-0.0296236006710335
0.0573773640863519,0.0912833063030316,0.0111945419710522,-0.0129309252931754
0.0345441411601169,0.0650286433416477,0.00130114870410946,0.00331011380012176
0.0230724938604276,0.0116963962603762,-0.0195545149793882,0.0112487783440415
0.0142692407163296,-0.00175014243357487,-0.0315316446922548,0.0145515033398227
0.0161357898487386,0.0161196763912867,-0.0248790376045118,0.0171637445657503
0.0248036101067028,0.0236089775945827,-0.0063547285447474,0.0184524683143148
-0.00805073033275849,-0.00551005972516932,0.00684453342893474,0.0166989302320478
-0.0856761777330484,-0.0661219021866935,-0.000154542509660726,0.0115695973802721
-0.134812389500772,-0.111052521626492,-0.0166553996465392,0.00668504310416728
-0.135151597638622,-0.118446376957978,-0.0237848816127894,0.00716428662887891
-0.104157135974256,-0.110175224233129,-0.0192959657725174,0.0109361298100065
-0.0472962595877047,-0.093984738232809,-0.00543193428539238,0.00975293395233518
0.00532687324159592,-0.0725969035289476,0.0117695240181952,-0.000375082639614329
0.0650736208306638,-0.0400361489344727,0.0257146486545138,-0.0151854237300886
0.134725700480796,0.0294535157864272,0.030202346734373,-0.0263151679355745
0.106490864788333,0.103871881932443,0.00907883899820894,-0.0285492590794567
-0.0459255830255589,0.116383390511359,-0.0258853816172205,-0.0232532431806652
-0.130532514376398,0.0662815429770595,-0.0376760922717003,-0.0149071660448245
-0.039079944058085,0.00843666748906448,-0.0284441639909063,-0.00610968773425677
0.0706455621820146,-0.0290167164830059,-0.0122779186207528,0.0024653943625168
0.063222007865846,-0.059490695072058,0.00667950865612347,0.00738803840665159
-0.00348055391664853,-0.0707558229714642,0.00751917483851157,0.00516744086740225
-0.0373340061788506,-0.0353739245033231,-0.00196940510694516,-0.00133908679501465
-0.068583485475842,0.0209929788384955,0.00529271845692066,-0.00684006919867238
-0.108520696903374,0.0454663515004552,0.0186301952622393,-0.0097227107866332
-0.0522890828816238,0.0329714771264122,0.0264279651339553,-0.0102240467095876
0.0856753121600538,0.023993361988302,0.0389959519436449,-0.00758464997605636
0.172973157219752,0.0389261160232762,0.056334043143554,-0.00189004709886324
0.142904498150827,0.0405194748611504,0.0624225078106004,0.00441539869074107
0.0327272716674717,0.00276128173785377,0.0405803449922329,0.00853099799868199
-0.0441712096527864,-0.0379003594530997,0.00819348283998594,0.00953572209705067
-0.0330282097417474,-0.0593203234000047,-0.00585136481268443,0.00796270254373629
0.0172901419057588,-0.064151812887906,-0.00687225654728385,0.00533954160350211
0.0740413473147696,-0.0502325502465165,-0.0117236723015573,0.00370337763809928
0.122205046871666,-0.0308434921174213,-0.0250660964092667,0.00316732940879266
0.109970948457327,-0.0119395888314333,-0.0352633940893774,0.00220898334840841
0.00446545601679318,0.00642890264888115,-0.036489357799358,0.000313018810605525
-0.115510517788131,0.0188948845133441,-0.0352922929352743,-0.000714570439797071
-0.139552162400084,0.0190627934937454,-0.0319124754831549,0.00196815684735427
-0.110579470168784,0.00241314973094733,-0.0259123934794075,0.00673084817834687
-0.103597996166117,-0.0151120954811491,-0.0196139197548702,0.00779969177578376
-0.0725030938449349,-0.00937924983468348,-0.0119170405587072,0.00383668336059237
0.0122023650863805,0.00820404851725162,-0.000906413098172847,-0.00174259173900122
0.0831553559370885,0.00608388482696878,0.0161077830866147,-0.00833423869994092
0.0930964357782116,-0.00890289693678658,0.0374145162008838,-0.0170532706208736
0.0779073777706739,-0.0249358636211267,0.0446813265704133,-0.0221611627429771
0.0770603508928525,-0.0463691576857438,0.0296267853541852,-0.014281707005866
0.0835443089394203,-0.0484012388591737,0.0183325028540842,0.00487344202132923
0.0756675801856869,0.00312195135618661,0.0269552060063014,0.0220239833656639
0.0565878904939594,0.0785999204845374,0.035594758481026,0.0283448670417804
0.0401349997112397,0.107033209674424,0.0270613363801071,0.0250500138760235
0.0107430138442263,0.0840698964498869,0.008428468886578,0.0160151891712008
-0.0449807514786133,0.0488345755433763,-0.0133129148580334,0.00507073170682869
-0.107736002547652,0.00543707229937604,-0.0387507023852127,-0.00205956534735318
-0.157898955379912,-0.0341093567002112,-0.0543737875128726,-0.00213064498421992
-0.159456374867777,-0.0451111704825151,-0.0515121793742491,-0.0006105867733222
-0.0914578866416405,-0.04140193412347,-0.037555913704536,-0.00321230760527519
-0.0176947951493457,-0.0483146690428513,-0.0244136294732271,-0.00813911148202915
0.0371653275574947,-0.0530141251149355,-0.026302855365672,-0.0118127777786794
0.0944518371216705,-0.0382772769909608,-0.0310233464994392,-0.0113189034720894
0.097004097978096,-0.00854243591243918,-0.0182086113014491,-0.00689009767790175
0.0470111361607635,0.0335145913648799,-0.00057016914616986,-0.00231842122846245
-0.00421550615384034,0.050021357626725,0.000131496366687623,0.00175061982206663
-0.0705960552648301,0.0154764475579778,-0.0111599471879535,0.0064013037298877
-0.123391868979736,-0.0191029374784622,-0.0140261762775414,0.00999958778534001
-0.116520576103345,-0.0124605645228493,-0.000649266246691704,0.0101098732893121
-0.0741388276242936,0.0157519468960928,0.017840562622092,0.00589731481725568
-0.0403383894721634,0.0302784505118663,0.0253058053643831,0.000717084225931045
-0.0336021069811571,0.0144465728130499,0.0192247024356342,-0.000623537537259783
-0.0388321866587235,-0.0170378835696295,0.00690501213067943,0.00124476144977725
0.000553180846770246,-0.0349161982924388,-0.00522025500949659,0.00306373329801456
0.0942452347077895,-0.0363291491300224,-0.0141762213753486,0.00405792167806771
0.152674462967426,-0.0369898174125391,-0.0168613038181861,0.00208614421493903
0.138746795148805,-0.0405514971985698,-0.0116503139816347,-0.00668891321574588
0.112618607880716,-0.0334574815897074,-0.00455333273271444,-0.0186577693089592
0.0918758877735738,-0.0122623665969003,-0.00297990937959863,-0.0242482579623873
0.0458982690422465,0.00651260292321089,-0.00430439822842175,-0.0211904285716671
-0.0257297149913626,0.0129493319846652,-0.00256165896249457,-0.0150640119894726
-0.0855399951318478,0.0277603020637194,0.00193688513170174,-0.00955585179600072
-0.0912181778868973,0.0582878833713922,0.00549115408221893,-0.00480962564399589
-0.0723838145328993,0.0454992315943909,-0.00268289694793586,-0.0010900746235931
-0.0834798378545121,-0.0165779548229029,-0.0198359767117817,0.000984048855076856
-0.104670655050479,-0.0399771521445809,-0.0220339687940902,0.00086017096618586
-0.0985998474605985,-0.00408741557253509,-0.00595569681304627,-0.00183917488757855
-0.0663346003134573,0.00277230541976575,0.00144013669291134,-0.0047920643625134
-0.0326726400626514,-0.0478813918080387,-0.00987056923094487,-0.00370057834386243
-0.0213737067026909,-0.0550140991808745,-0.0156465874732949,0.00119912276842918
-0.0275887285591216,0.0212945959735711,-0.00188961319723739,0.00421841969025299
0.00767781619381591,0.0853206048612454,0.0128056881093201,0.00242210309360008
0.0890283082620892,0.0694343810016416,0.0123826994927936,-0.000848795333088436
0.117247070752385,0.0266321464235448,0.0083729364015293,-0.00278792242033016
0.0778283886095438,0.0209467935354666,0.0126673350475144,-0.00476181508513925
0.0487609255529173,0.0285265345336886,0.0183875008243949,-0.00669700042549066
0.0473398295059314,0.0277142678749161,0.0244260323032912,-0.00610543478514735
0.0481696716554812,0.0288308993265589,0.030228526831716,-0.00342726904519956
0.038654960583195,0.0169952101610574,0.0224365024527537,-0.000846966596861708
0.0117684793967993,-0.00329342980328498,0.00274059576087936,0.00155698314479009
-0.0242537559061012,-0.00740607938133844,-0.0163821092935333,0.00411836414598001
-0.0645845068590989,0.0106660671544353,-0.0266056232083702,0.00583960895941741
-0.0878881427549062,0.0280216377782129,-0.0250035397543711,0.00582724039131749
-0.0536998711384576,0.0121342809791399,-0.0242533977036985,0.00487211864552766
-0.0124365843458806,-0.0280831263247783,-0.0375549900668316,0.00479341584559714
-0.0261310566064158,-0.0564298911735583,-0.0539105071649965,0.00569392218332756
-0.0314178836207698,-0.0545649172020482,-0.0522454323664101,0.00532423830176387
-0.000327611191617956,-0.0392204534047061,-0.0327381777163573,0.00303128058297005
0.00414193676761704,-0.0287848922525543,-0.00850668540564616,0.00104471865019289
-0.0106891582728212,-0.00841811166637069,0.0115200524233443,0.000597106348267716
-0.00920119136819445,0.0239234133546907,0.0221161502118988,0.00141068853935522
-0.0056753334341009,0.0475517683817745,0.0263752365099823,0.00335374525321369
-0.0150023799703401,0.0547283920819036,0.0292775445488591,0.00580016028363244
-0.0368443219979935,0.0463323885141117,0.0288260410087739,0.00755764721556312
-0.0560332702264883,0.0300032440580675,0.0205062034716716,0.00830121049177792
-0.058668280680377,0.0177804921113353,0.011120093081985,0.00862068362817405
-0.046797169418672,0.0251510281827842,0.0164009348495749,0.00857158934033804
-0.0308633447313486,0.0469810166747778,0.0288483823358689,0.0074005304071284
-0.031114661118624,0.0374736142671383,0.0244684054501028,0.00463763130996219
-0.0399704550438214,-0.0168750712852012,0.00252416879900953,0.00174835659340819
-0.0195158710067571,-0.0557556101004662,-0.0180904448196462,0.00172576788920943
0.0273433431876811,-0.0363014082925715,-0.0238361236353263,0.00510016333343943
0.0528693242512928,-0.00789146270459293,-0.0184174703149334,0.00864499199458954
0.0438508331156881,-0.00738241466868793,-0.00896558900579843,0.00960210412435415
0.0381602792418724,0.00266768101939885,0.00406059978249551,0.00778876699075754
0.0575584632793584,0.00853848297976055,0.0118742393473908,0.00438678734563418
0.0927169715072342,-0.0282863108798471,0.00868852527077523,0.00149726021373108
0.12396377878634,-0.0671037862784673,0.00328056838460416,0.00113059454065758
0.154445110354963,-0.0782123855857228,0.00288107820635131,0.00312430150024899
0.200170257862821,-0.0891227355034396,0.00437320990215869,0.00508032200605374
0.184766139695291,-0.0904237002339135,0.00688407199281008,0.00523470938494425
0.0571731040296861,-0.0433734740501648,0.0169945286729176,0.00316779681325869
-0.0863445392673325,0.0258301600173506,0.0316303570429435,-0.00109501513467285
-0.165960237609927,0.0761135422242465,0.0412652016518538,-0.00648368155623048
-0.170563985833809,0.119377322186911,0.0460316704058687,-0.0112768991593279
-0.141948885931157,0.124007672067486,0.0440111627733348,-0.0132503405140449
-0.135243506407015,0.0504285575808316,0.0293067102497627,-0.0102976102655976
-0.120750248781077,-0.0302427624873856,0.0123658864168158,-0.00310293173571124
-0.0680341836110384,-0.0477415832618645,0.0090160937108387,0.0042801787417423
-0.0159169442048289,-0.0415905792513672,0.0136271737313022,0.00784386985854377
0.0380062293121171,-0.0472733982163975,0.0148342847511892,0.00708616617869419
0.129730142612588,-0.0350343651801689,0.0186779590413109,0.00401815335057299
0.20319607392147,-0.0195155296247792,0.0261033544584428,0.000991407194800809
0.189125076889525,-0.027069035442264,0.0231177996624276,-3.9388045122287e-05
0.123901201104497,-0.0246057623737447,0.00934838610963762,0.000629609817847109
0.0533442655456826,-0.00923294320306246,-0.00206635213739609,0.000613634542540327
-0.00961658092254832,-0.00841385268871684,-0.00827448333584103,-0.00142144425338048
-0.047287329694732,-0.0166236875154106,-0.00989944045909779,-0.00433802782171437
-0.0576998206137251,-0.0211642047872185,-0.00347979440604832,-0.00656732544119619
-0.0294605257156684,-0.014121992649023,0.0119123006867536,-0.00768932673023282
0.0203995144717076,0.00198901067586338,0.0258036279708857,-0.00747236930735101
0.0318963317653627,0.00979131949078295,0.0251632859399386,-0.00656468187116553
-0.0135424065830835,0.00597751797235139,0.0127487596723289,-0.00664030161098135
-0.0665674455359654,-0.00085683436605623,-0.00492400193546337,-0.00805149186349524
-0.0521836259303971,-0.00872022570873144,-0.0194368813227074,-0.00925933159835372
0.00613196993341655,-0.0170846365398949,-0.0216648388757182,-0.00834317552957509
0.0086281936682147,-0.020867623004264,-0.0148908334109473,-0.00516794962427122
-0.0538169300668713,-0.00901607628513465,-0.00839581847929476,-0.00169894884954011
-0.0935884704899083,0.0221290110645875,-0.00395099580848448,0.000272357562576123
-0.0623622624991435,0.0477532406587712,0.000573233204549797,0.00027544038635074
-0.00264276893654464,0.0628689838178792,0.00366348560735702,-0.000815323470841713
0.0629213378971117,0.0881326944705811,0.0093694118551692,-0.001538387578784
0.133861069822935,0.124000508353483,0.0237090940401149,-0.0015473700128718
0.164599733195838,0.129229227619709,0.0315542237778729,-0.00117313704178012
0.108221039000442,0.0542833499073866,0.0142975678442864,-0.000297739557572122
-0.0262297526851759,-0.0299508978606448,-0.00557581165432328,0.000873602521760556
-0.150043850544795,-0.0366983195685586,-0.000913184587433787,0.000792110061985031
-0.178966787975026,-0.0286043671105787,0.00951962772768301,-0.00153338874645716
-0.114342123810206,-0.0563329290287013,0.0044091383630718,-0.00390510398823936
-0.0301491341018534,-0.0682451201166862,-0.00798089298945523,-0.00307002618115393
0.0122546863361327,-0.038503690501358,-0.0124946216688546,0.0012729302147283
0.0398815481202991,0.00391122834366717,-0.0048427651902971,0.00470056486738395
0.0734809464045295,0.029763330298213,0.00201509525403426,0.00123757958595293
0.0782792390240786,0.0285241868257194,-0.00483565391129793,-0.00607429809762154
0.0533562935830376,0.01347498945063,-0.0163545148230459,-0.00569786740644731
0.0278006642565197,0.00527923994054571,-0.016940123806218,0.00428653457212522
-0.016980188415961,-0.00129450159495475,-0.0118465443366598,0.0133493799685937
-0.0733283803367682,-0.00924279823679328,-0.011784962119248,0.0146149139984354
-0.0747541683877418,-0.00403044733658107,-0.0129688491226587,0.010523140519497
-0.0297811338406829,-0.00116042236893059,-0.0080342725684308,0.0046050950543195
0.0115198995169774,-0.0130372832271816,0.00263714684914035,-0.00315527437543513
0.0446477151474173,-0.0163045759748936,0.00900049819687162,-0.0120626482223522
0.0492731862604487,-0.0113158435587813,0.00333415357762954,-0.0175332500612323
0.000161381950423961,-0.0180009356854729,-0.00770506578603656,-0.0154084181488062
-0.0374978877565443,-0.0232463485643903,-0.0130896642095228,-0.00785532001725546
-0.0252254848504154,-0.0369903468710595,-0.0176875336030004,-0.000357894139400104
-0.030018282964657,-0.0652432930383501,-0.0261927763813367,0.00480053315994648
-0.0613951934630693,-0.0391106849002091,-0.0247941743380364,0.0073570640164605
-0.073327856758207,0.0272970895276959,-0.0104030367219376,0.00672789576036122
-0.0398450640009916,0.0270026390768239,-0.000127196000574613,0.00470738958603905
0.0497770664829736,-0.018097779654852,0.0031618649003685,0.00516141187267537
0.132320155008139,-0.00555539177741835,0.0136155319713252,0.00764630147847678
0.110496347750345,0.0483841333706456,0.027028142204032,0.00597595489707466
0.0114959513417574,0.0528314324144928,0.0244718485740776,-0.00167020538666694
-0.0444480017906472,-0.00311196856540017,0.00188955071769983,-0.00728600234302763
-0.0303678914764447,-0.0624780880146084,-0.0256114747431244,-0.0041229402110846
-0.00978749985812054,-0.0795274741695795,-0.0391966019885266,0.00384259150150305
-0.00834299948322658,-0.0429577605760434,-0.0325576338190731,0.00827477282635563
-0.0153047318035404,0.00441799767664861,-0.0106813726102008,0.00658804360583473
-0.0395325958913603,0.0070358890633096,0.0116409318747649,0.00201615076992773
-0.0828910695158392,-0.0273974248912356,0.0214846724342746,-0.00233623103439332
-0.106906946451367,-0.0488106062870118,0.0225866903633343,-0.00538489545880754
-0.0795087865430071,-0.0425423782217982,0.0210950131205035,-0.00639277890465727
-0.0319380218644924,-0.0292005018082477,0.0195106440024149,-0.00507639154656424
0.00783331769362827,-0.0213066397633071,0.0200551652447445,-0.00273867913953243
0.0712822368087301,-0.0217130179373731,0.0187050052857249,-0.00106791058731225
0.135972728203145,-0.0323583261107497,0.00943757726605991,0.000107995735658999
0.145629779061332,-0.0314863178077555,9.99352427973471e-05,0.00178082208714675
0.105185425762163,0.00805300600793009,0.00167270099529818,0.00311983932920234
0.0203447075711537,0.0511037126808458,0.00121662998073876,0.00198129411325041
-0.0881503645911065,0.0466018744285908,-0.0162252890177866,-0.00182140429517886
-0.159804469675887,0.0122406566940659,-0.0361689548385349,-0.00491530631906309
-0.142183596804043,0.000927612840748368,-0.038983181987687,-0.00427732885155403
-0.0448205983215356,0.0194419617091984,-0.0287326528155132,-0.00136375478022735
0.0493154859870477,0.0237811127603861,-0.0231924021496525,0.000273180450234527
0.10037153870029,0.0122375863073128,-0.0237701953975374,0.000159532106601852
0.105262196592347,0.0197900004336682,-0.0172639936894492,0.00093128123435998
0.0346272540500785,0.0351689541519184,-0.00346621675298832,0.00321710407331975
-0.0700479498836845,0.0317336988664944,0.0160984509826351,0.00423720387735652
-0.111583124729294,0.00774780599928113,0.0391170034700548,0.00194734056244738
-0.0602523456510341,-0.0220741044509078,0.0497696938245999,-0.00183478057120988
0.0525043080506946,-0.0255746354983659,0.0388278593555873,-0.00326452050995264
0.19588980332976,0.000140385546092733,0.0118016277211827,-0.000814539209376034
0.307321365906128,0.0182662801016175,-0.0121980082807583,0.00375673821165618
0.307727303975349,0.0210794188615439,-0.0179762959559116,0.00746622380163985
0.189282587603913,0.0172142294623399,-0.0154243059142012,0.00778133277215122
-0.00615070110266813,-0.00255740635391085,-0.0119809684201018,0.00425639638589472
-0.203705176610657,-0.0347282885905692,-0.00827107494491776,-0.000842080346421805
-0.299295639538314,-0.0448861372074147,-0.0145343009407166,-0.00427462638367494
-0.260112629058882,-0.0178751258548021,-0.0239362880303211,-0.00413488977205221
-0.115102210998683,0.0225848024079993,-0.0180334158111827,-0.000639058578238834
0.0487234884045558,0.049885502058616,-0.00384515913211791,0.00435569356922485
0.0958716899842314,0.0568856391507524,0.00542561596117107,0.00838284077527087
0.0381582721675792,0.0624746432051729,0.0169920236215725,0.00968522837548449
-0.0102707197277175,0.0570641274000016,0.0176043413776528,0.00795399316242109
-0.00121909073720875,0.0174680176173209,-0.0112168685650979,0.00346457997539677
0.0336175880324853,-0.0267782660893642,-0.038438237301579,-0.00342333133712381
0.0292659940602942,-0.0258722665579439,-0.0218558203686477,-0.00972515231987374
-0.00549138418907696,0.0103377743517785,0.0138700506110928,-0.0108634805166385
-0.0155717441530284,0.0115189721252906,0.00623094720989962,-0.00596484485179121
-0.00846773930932398,-0.0248596311947675,-0.0269145223273337,0.00171836328177372
-0.0175125758738602,-0.0283166700735619,-0.0276145034864993,0.0066207423055799
-0.0181365701417459,-0.00186626191059695,-0.00131489895147932,0.00472169362223557
0.0180967790700779,0.00478854328941164,0.0165508434509739,-0.000424275987269559
0.0415895130615875,-0.00435540357553436,0.015831536567538,-0.00299515932527797
0.00771518295067818,-0.012418985519138,0.00283731368329983,-0.00416039765350514
-0.0473240699829345,-0.0218909190889342,-0.0148980289913785,-0.00588705530356434
-0.0767794945498739,-0.0378528432717621,-0.0291409857530184,-0.00477128570849129
-0.072408631394051,-0.049689796428751,-0.034459507824026,0.000389940805263455
-0.0456502576290689,-0.0361970397815405,-0.031567168635791,0.00588444696500092
-0.0243688906986798,-0.0186820566626928,-0.0317718951332244,0.00882841166997062
-0.0254449656538803,-0.0230278608814261,-0.036418444009109,0.00863100512810774
-0.0268712780621615,-0.0167087280784398,-0.0310260690831597,0.0053567247410781
-0.0343696632272938,0.00989900919356053,-0.0210590099069182,0.000152056720558843
-0.0730804350545656,0.0200703143197597,-0.0212881364878083,-0.00432097884212579
-0.099942216427024,0.0193568889033721,-0.0231244978302043,-0.00563277051466108
-0.0561117638779394,0.0344864941726862,-0.011309278640596,-0.00378871470052572
0.0477110382169905,0.0472383908586291,0.0113502394488346,-0.000974057677433353
0.126792039990714,0.0289044314248552,0.0258326365810554,0.00116949674271321
0.124203447590593,-0.00197460367898813,0.0267159972756332,0.00222520603327901
0.0810172944179456,-0.00655809525304989,0.027014235786353,0.00165760813908977
0.0338057558793627,0.0108371939624692,0.0286321531073374,-0.00122045823748873
0.0104570902530367,0.0178491888912983,0.0238635926140075,-0.00572069764629205
0.03210627700707,0.0154900140246266,0.00963214296877554,-0.00902229257285356
0.0472951655386092,0.0079939430643361,-0.0123336680504924,-0.00941374486782808
0.0128727843636189,-0.0164924734848217,-0.0373501785023415,-0.00841105456021449
-0.0543489481115502,-0.0393695957927959,-0.056989123601493,-0.00742579999750722
-0.102123837917651,-0.0474730461851251,-0.0593778479101917,-0.00614980241823744
-0.092704020354181,-0.0501380405511855,-0.0476956002052388,-0.00397098487448455
-0.0487087359848184,-0.0271182901754058,-0.0331050449867417,-0.000710930715572791
-0.0116724049387315,0.038073076647609,-0.0141467113474814,0.00225055034287001
0.0188062706528445,0.0792406590308977,0.00288313788205267,0.00268325589563382
0.0680561210355015,0.0494946637452908,0.00841063692288014,0.000313697158264012
0.11625091009562,0.00231694579632358,0.00975064492408833,-0.00251497740878777
0.109782253813653,-0.0120008867136194,0.0176566944406259,-0.00289062136891727
0.0695162641825059,0.00686110231372222,0.0352258627996273,-0.000224979920723867
0.0522013533789926,0.0262062567031023,0.0524659969121597,0.0033442695023816
0.0354459445687421,0.0226847645331615,0.0534036136084289,0.00602497636399161
0.000873009349076172,0.00219218169717575,0.0358600074799901,0.00752124161638385
-0.0265915758802815,-0.0216506978990752,0.0127150020852599,0.007599687392732
-0.0346604064458478,-0.0207100124079829,-0.00207087593177462,0.00619664573744766
-0.0167265749642706,0.0127456031713193,-0.00503469212279543,0.00407980761419579
0.0143727195518548,0.0395414914389647,-0.0029542040567834,0.00235582144652646
0.0475993657432591,0.0421258305667411,-0.00187353621489295,0.00147066454921747
0.0822516144312955,0.0376416654055173,-0.00292276735680063,0.00121392531542074
0.0887745722502637,0.0338499818325587,-0.002576841102654,0.00123639497540017
0.0577007895064092,0.036877619780392,0.00387039679182914,0.000683507859259384
0.0140155295439668,0.0475454911225086,0.0107877595997613,-0.00203511719724821
-0.0132949616487623,0.0469217843344635,0.0134973598501085,-0.00790941442825094
-0.00414061745706726,-0.0138941271654692,0.00876138877622967,-0.0138537808977528
0.00705616518182473,-0.0982270384848018,-0.00734656923765032,-0.0118774629514491
-0.00571062689219052,-0.0817086197226807,-0.0178116971515939,0.000795619327330247
-0.00311256628190457,-0.00216266068296267,-0.0122811683299271,0.0146408301725202
0.0527810359836931,0.0363968093803756,0.00230733057919766,0.0197790653063836
0.158236570579979,0.0567698239377163,0.0276212424048359,0.0166038106264118
0.266587409553532,0.0708452534577909,0.0494828256375465,0.0100769622638365
0.318609364217081,0.046526247183383,0.0478190229504187,0.00286967829459589
0.247406901453916,0.0061482208263556,0.0348904334490873,-0.0040874225583704
0.0262621847030808,-0.0144462643274743,0.0319968289625225,-0.0103643741407737
-0.235707005908981,-0.0326561202892655,0.0328396676830525,-0.0149989788957415
-0.382918414060741,-0.0759027281177593,0.0149282493450588,-0.0151076244901865
-0.367250742227603,-0.109368833428467,-0.0125160565971633,-0.00865643872512458
-0.25469688182948,-0.0947863054786931,-0.0214887754573165,0.00166817024368229
-0.123374174578608,-0.0494436743091649,-0.00636326370042637,0.0105856990298329
-0.00860386788398049,0.0012741200612954,0.0185218649841664,0.0148034978639019
0.0547580772606646,0.0389981796060633,0.0305662781723166,0.0140224715938596
0.0536068883080061,0.0667087272401347,0.0240057176879087,0.00947504126454533
0.0249456260121821,0.0819451684450989,0.0125756410260253,0.00252327720034885
-0.00554325396101712,0.0491115331383744,-0.00119855517655334,-0.00423183646424899
-0.0294167340006679,0.0017816810360197,-0.0171730250454449,-0.00656373589046048
-0.0445757576616748,-0.00160178286211497,-0.0252886442770927,-0.00392718823263259
-0.048881625999917,-0.0134236362570469,-0.0272796366492578,-0.000419580979841656
-0.00783079555162172,-0.0516379311848525,-0.0236375027519423,0.00178636513779404
0.0608373782538133,-0.0487640250959515,-0.0112530351362873,0.00256879392629386
0.0915793329331241,-0.0108998046234074,-0.000727485888738465,0.00104888930936769
0.0932672526408091,0.0269951561846464,0.00713058503416335,-0.00223214988448603
0.0611701864674458,0.0318302573298675,0.00707180429252206,-0.0049682342133536
-0.0409200126122869,-0.0167185689700251,-0.012931333754014,-0.0055443237976161
-0.132366957275297,-0.0578046605567997,-0.0288232285616808,-0.0039265429786293
-0.130588861237349,-0.0598489620911446,-0.0214620494842875,-0.00118954182252721
-0.0686047618755751,-0.0538635774569078,-0.00906403784017924,0.00150269074043371
0.0129509825298861,-0.0340896827814128,0.000853018207215582,0.00427589041331219
0.0634254383086519,0.0102330295431091,0.0125770064559647,0.00761802512088022
0.0326743760426215,0.0339908394480114,0.0156165053917088,0.0100368033578395
-0.0204955083368445,0.0217485570101551,0.00526868370614747,0.00900286828757481
-0.0447256616348138,0.0262639216201866,-0.00494830512723747,0.00438067907269549
-0.0936880427789078,0.0529438301660525,-0.00930074377013244,-0.00232794177414949
-0.166018095428282,0.0783212399490466,-0.0138253827207972,-0.011204685833144
-0.182179290328762,0.088175362188105,-0.011662551552183,-0.0213073012548138
-0.103027882828328,0.0443613776672566,0.00014275233347084,-0.0265718022747107
0.00690333506108107,-0.0336828919310429,0.00338694463633388,-0.0201843353801161
0.0443013911070841,-0.0835811912585581,-0.00745255359952304,-0.00411919095460313
0.0380479895727281,-0.0826463786016705,-0.012439335873921,0.010738338033705
0.0660782943001123,-0.0445570615028918,0.000103814633104403,0.0160024937713777
0.0868893265111602,0.0110499284070684,0.0173148721575253,0.012386495551699
0.0558683507511414,0.0347090170807507,0.0177555528583993,0.0067249115042311
0.0110281200279592,-0.00296763674152078,0.000897613803354978,0.00521766879051185
-0.0177645359855455,-0.0276327841174533,-0.00995181527877893,0.00614018548743422
-0.0391344430181513,-0.0169919668200783,-0.00868058450954898,0.00377723347651321
-0.0496298343475956,-0.00857764387801225,-0.00595308603421946,-0.00136110841900183
-0.0292780218680166,0.0365453721123727,-0.00160393592878246,-0.00574339195282799
0.000182766076479535,0.109373381345267,0.00466241052804327,-0.0117692738382582
0.0132473287715701,0.11545118649586,0.00162733389553231,-0.0206804046300363
0.036774790895954,0.0587346864382412,-0.0084357514858674,-0.0235181137657309
0.0645161121427552,0.0213811018145692,-0.0107508086292619,-0.0131307917739471
0.0548869886283221,0.013596594537736,-0.00245948716478069,0.00422005285860985
0.0211708616622338,-0.00345877395331936,0.0134855891044837,0.0171479643522329
-0.00122766901858504,-0.0342486719056718,0.0256039134852541,0.0210867635487637
-0.0131026748634475,-0.0530569861947931,0.0229037143892884,0.0186716626380267
-0.0125693889846652,-0.049550510164315,0.0105275910997445,0.013591453665596
0.0100356594345761,-0.0303337526307722,-0.00212199541981416,0.00791325743759063
0.0155074384296436,-0.00470144291271062,-0.0103208889763527,0.000965303635874073
-0.00397371153552532,0.00666284755613417,-0.0146453286982581,-0.00946525838433096
0.00717993191789614,0.00535578417692386,-0.0126980730427802,-0.0198431188085754
0.0464903810229301,0.0279704149488852,-0.00115243617028126,-0.022302351540577
0.0604320031679714,0.0666879321657866,0.0108769257645676,-0.0162491801567954
0.0464416131483294,0.0717046836173048,0.0117333027674959,-0.00878515102321685
0.0494360723383548,0.0392358903979564,0.00796065693168771,-0.00506006114598091
0.0547819923834244,0.00921340382791115,0.0101745336684119,-0.00452376450388938
0.0315505585870747,-0.011062645837595,0.00993969506265749,-0.00428765765611393
0.0365073382499037,-0.0402089650462709,0.00196156030129184,-0.00210381652549303
0.0799425427321422,-0.0716151117322288,-0.0070107746403846,0.0023462360720471
0.0837808775460136,-0.0825291659056417,-0.0149403090027166,0.00657743338126086
0.0260300186609549,-0.0667488381348148,-0.0192873220276484,0.00789667282132684
-0.0535391031136295,-0.0303448193115678,-0.0109576520659764,0.00643294551377608
-0.104821432619262,0.0155246398051361,0.0123806770019921,0.003397755700066
-0.125417622029095,0.0434008692001654,0.0307371102323224,-0.000929868802483806
-0.150519515277177,0.0446929043514274,0.0238740226523937,-0.00511879207865199
-0.149795725789506,0.0265687296811557,-0.000522789392321713,-0.00597732641805288
-0.0942229891531053,-0.00129671930512311,-0.025407316600349,-0.00213054903578517
-0.0294686813338229,-0.0226369841742637,-0.0422167901342434,0.00393551658939037
0.0146958546096573,-0.0274552930647563,-0.0465436305250764,0.00856635441686274
0.0384498806510178,-0.0175176521144434,-0.0380938777577695,0.0100890194353011
0.0570025051518492,-0.0204721658931724,-0.0215386786931819,0.00854501466427509
0.0788769755907837,-0.0281525962162927,-0.00356261647852488,0.00489253037640873
0.0917052892907146,0.0113241493596263,0.0140918398652511,0.00107845219584923
0.100933266812028,0.064718958734941,0.028221512090202,-0.00111430566371995
0.069213990585882,0.0469487083243432,0.0251623348372861,-0.00131407479982943
-0.0295490574495693,-0.0189513448550668,0.0105269454339952,-7.42866208704139e-05
-0.109721654736831,-0.0536939528501552,0.00362412659483699,0.00166807100298001
-0.0968581989239495,-0.0608292893756324,0.000740384926675714,0.00278343436245423
-0.0386756454399153,-0.0704410066655528,-0.00597857891064437,0.00290355224621854
-0.0170714226568041,-0.0611907684512303,-0.011676377810631,0.00317648321483448
-0.0163955241063057,-0.0201146276362885,-0.00798543065083084,0.00487179403004125
0.020297774719665,0.0284132348081272,0.00328902396449856,0.00691292542394195
0.0696894504558041,0.0478440454917059,0.0105480569916079,0.00646452536803264
0.112500183312766,0.0413469108635913,0.0155618508154616,0.00292557333406156
0.189614666792698,0.0653159607612222,0.0272259888153959,-0.000428499669990214
0.237062318194686,0.0964097083980427,0.034055065055401,-0.000682777681566935
0.118939905831194,0.0678686253537006,0.0239956712815871,0.00106558911538995
-0.105628454888576,0.0268227643229498,0.00911807404521112,0.00205893545708209
-0.225027982420761,0.0151260175151732,0.00269491413114812,0.00125870814003178
-0.18039410244394,-0.00203528567650538,0.00285765841939115,-0.000158997786953297
-0.11033913712576,-0.0258148391510372,0.00384141181136493,-0.000360701716099855
-0.0873417448057348,-0.0379378934618572,0.00466516646686531,0.00125913916159531
-0.0642014965671135,-0.0419094863380389,0.00595390319101981,0.0037489056569038
-0.0390633346642764,-0.0330638809562889,0.00723552703511587,0.00557747573895464
-0.0215109695468079,-0.00549773383621088,0.00786350011580157,0.00597448385317821
0.0113771560355473,0.0210369757435258,0.00640021110468625,0.00542003448225665
0.0580533571145325,0.0492808272171267,0.00488394831609722,0.00497525262332096
0.085923652589978,0.0801945176903537,0.00631135706408799,0.00492833921213577
0.087364065637166,0.0640115948489475,0.0025362347983629,0.00442546264864736
0.092075975240071,0.00611978503301169,-0.0116597244282339,0.00367868478284223
0.0872621315521004,-0.0342837467824078,-0.0193817164348589,0.00354580700657015
0.0375273729790732,-0.0435106316667008,-0.0101941409248537,0.00237025004015908
-0.0338581522809256,-0.0346913962279068,0.00314389154706119,-0.00118350522969474
-0.0740432066749534,-0.0118622572398646,0.0158674731976347,-0.00495592694564179
-0.0721150076993343,0.0126833827680528,0.0275637589278065,-0.00707975170344804
-0.0724410195867466,0.0164092174928657,0.0278406126019547,-0.00747364228887446
-0.0990538369339067,-0.0037553724770508,0.0187925995390446,-0.00576491320948633
-0.130707492772494,-0.0233472981336663,0.0113103418033099,-0.00221548419914201
-0.14012784081916,-0.021447818524293,0.0101787605169044,0.00118354853683748
-0.0979342390191767,-0.0138016813878102,0.0135443652696469,0.0021407366089758
0.00150145930484935,-0.0138881872895486,0.00870276953984811,0.000455220088915116
0.115436085969968,0.0227787620579234,-0.00377284255599993,-0.00146340615042945
0.175833610512177,0.0813601555636955,-0.0125552812331613,-0.00197899832266629
0.17007536815255,0.0718910895585814,-0.0200545732487558,-0.0022228989066631
0.134555645793493,0.0145675748656258,-0.0196013897515042,-0.00307975381864806
0.0685492859748901,-0.0191077992639163,-0.0105125706957697,-0.00330501262912754
-0.036878068956599,-0.0185197716002692,-0.00946014176287194,-0.00236563369292753
-0.137653419451919,-0.00121376849482256,-0.00769452396093616,-0.00212715580050476
-0.172255640534951,0.000842953280150377,-0.00715115093143733,-0.00389536007775223
-0.14193072650756,-0.0225279308691425,-0.0278276147630744,-0.00647719560468968
-0.0873992993495749,-0.0508467258068997,-0.0447271129488995,-0.00736595127148924
-0.0161181287059006,-0.0449774288311756,-0.0322299847696723,-0.00462343586486506
0.0571506094981947,0.0132427256107233,-0.00420222032154804,0.0010523417753503
0.105807865801718,0.0557795845524792,0.0172101031256419,0.00607452731597518
0.113225167385534,0.0244228487935186,0.0179207989713337,0.00720590286466783
0.0564707069572537,-0.0348828151981435,0.00702081672892908,0.00514950187744366
-0.0302598334540448,-0.0686960538261378,-0.00392860213586886,0.00333411439747453
-0.0622221174943189,-0.0722294351152646,-0.0151687984962471,0.00329972497205885
-0.0233915165759804,-0.0470441957102964,-0.0163847788291695,0.00239425291514124
0.0243563611933612,-0.0128896117835308,-0.0106814319024083,-0.00186633034362359
0.0464062464448429,-0.005947296413336,-0.0178977819915632,-0.00621255794178361
0.0439959249539494,0.00332849829382971,-0.0297942791018261,-0.00591529899581844
0.00722059570717985,0.0445242378632119,-0.0282718435588463,-0.00370150509016199
-0.0711666253762824,0.0604839189386159,-0.026375238451101,-0.00613575858931759
-0.132038157716076,0.0321222091689374,-0.037758695146763,-0.0117310139804915
-0.0906994853878818,-0.00389927376479206,-0.0452204578700327,-0.0126936478015425
0.0152748230307117,-0.0410099720012937,-0.0359240463189026,-0.00635208218023307
0.0595614677657959,-0.0866224435578989,-0.0249184583984383,0.00273223544121949
0.0200086838984368,-0.128927196327392,-0.0226953131540206,0.00871470318148392
-0.00149455525283238,-0.146767906433692,-0.0251143314625112,0.00946918222751701
0.0366269404594827,-0.114440399775949,-0.0221605874605664,0.00770149616173955
0.0714380240715743,-0.0135347394374081,-0.00415194534250945,0.00652861875537797
0.0722296659823711,0.10503369463545,0.0235816455291921,0.00508271605598204
0.0719316586474282,0.144881428178189,0.0439505694893707,0.00175266595987442
0.0656265103050591,0.102556130971216,0.0416394518147391,-0.00151028956250374
0.00816712011559157,0.0443685435500014,0.0186732671474531,-0.00260766412810816
-0.0742430246460043,-0.0272303935460214,-0.00885320434272195,-0.00282611198464583
-0.0913053003112619,-0.0950500806248645,-0.0287768612928767,-0.00324790446904139
-0.0441903645279458,-0.103611110226947,-0.0360568967846387,-0.00212891648905534
-0.0216098665141518,-0.0619647263369595,-0.0302285673971259,0.0011647529818556
-0.049258967245163,-0.014486348713647,-0.0172370628372779,0.00326545191661815
-0.0775903769269689,0.00515872175143418,-0.00380773402931877,0.00151134529742412
-0.0649209187531726,0.00509052761958573,0.00931963605074914,-0.00162428390785579
-0.028376278280077,0.0231186764090471,0.020310405861073,-0.00287228791943178
-0.00559156468231192,0.0523462058260755,0.0224980958245686,-0.00367878583522718
0.0102079085731107,0.06551616715718,0.0179490953142193,-0.00628525262682192
0.0394536155479749,0.067383812311076,0.0171599021305366,-0.00767100884133506
0.0670833195382685,0.057882409092144,0.0196211911313067,-0.00424388284214542
0.0760475975179605,0.0275030691804675,0.0200255586079889,0.00155688032957386
0.0825718992124392,-0.0100438285597407,0.0208521469973361,0.00522073080310583
0.0930701040783836,-0.036720870813499,0.0218819319249981,0.00557266226314425
0.0864504890289336,-0.0472584443275572,0.0206708371864339,0.00387904604263888
0.0600184370128343,-0.0364290268395386,0.0181853376143973,0.00141940369467265
0.036748308583993,-0.00750123526862547,0.0151959429454747,-0.00120481720081519
0.0258284870447478,0.023813748423009,0.0106630170066156,-0.00353596408699349
0.00149063276224853,0.0395977797794445,0.00173551502756446,-0.00487586743891438
-0.0639222891852916,0.0277833313694957,-0.00886587393911746,-0.00382491072732889
-0.166366081005871,-0.00194513540389273,-0.0173356492609721,0.000230530237667332
-0.244042670388415,-0.0184672830088161,-0.0267441795932573,0.00487335483844001
-0.234440605384099,-0.000588783073351301,-0.0338077879932099,0.0071244128879345
-0.158860630228108,0.0266425539438973,-0.0316342345178073,0.00599945654023299
-0.0606756208383653,0.0318212031580442,-0.0183692225686801,0.0019213563267033
0.0413803365753721,0.0199131790367478,0.000840822180775302,-0.00320747064498444
0.110317354029037,0.0112742659629146,0.0160210222032478,-0.00605427055347712
0.117627719038726,0.0319026680867757,0.0326222536463564,-0.00428560037878924
0.0897555171714578,0.0697953777311959,0.0551150870092151,-0.000369825209245365
0.0557501129414112,0.0558819665935691,0.0640604597139549,0.00091708437165513
0.0314743981693941,-0.012143574400677,0.0529511265457192,-0.00135073014436552
0.0203282541766136,-0.0385465208084488,0.0410776035323613,-0.00583252480745536
0.00521321167344294,0.00162285231081882,0.0359274204185056,-0.0102955602350054
0.00589660956895018,0.0295827122316393,0.0269464003591886,-0.00997098366571975
0.0475189533868755,0.0242932858537198,0.0108773985566715,-0.00321783288272228
0.110060637826941,0.0413058358547133,-0.0014921522633256,0.00500655691013847
0.158227348923151,0.0633872556146274,-0.00659515729125101,0.00950336174076483
0.171944220735994,0.0519650233592626,-0.00572041397981136,0.00975271377846795
0.139843161957909,0.0299595631017687,-0.00102824817466252,0.00807120519789455
0.0581030891435514,0.00199121518940421,-0.00378313292942978,0.00648934490793491
-0.0399442234091767,-0.0301948075069779,-0.014271020449112,0.00508414120483652
-0.11530096545428,-0.0535532998694106,-0.0209540200108788,0.00201317575472528
-0.139684694435401,-0.0680997913896459,-0.0176877416305623,-0.00415431218280091
-0.0954110443139228,-0.0772561791370155,-0.00329091797797372,-0.0115088397824343
-0.0210423632909069,-0.0726600795751523,0.0116684417373175,-0.0148880342795344
0.0261429647723984,-0.033762572057222,0.00832966032564979,-0.0108717592243769
0.0233102993474533,0.0414586682739641,-0.00381846317052682,-0.00158575129766346
-0.018673494288778,0.0806445759554688,-0.00978700052758778,0.00724707259671614
-0.0646736731971136,0.0232835197881104,-0.0197808278911217,0.0126288321618454
-0.0781814104978704,-0.0304652119804235,-0.013964677388816,0.0158023496331293
-0.0505673132041906,-0.0296223267396406,0.0104491507145873,0.0158906952595791
0.00147649065249705,-0.0460969082774854,0.00500770359301289,0.0119508375079763
0.0719586625723916,-0.061684072443683,-0.012232700310601,0.0068941736090793
0.113475402854283,-0.057123411562454,0.000574557387234658,-0.000427619099036859
0.0796979096791587,-0.0364698987786268,0.0233691504296748,-0.0135932944711061
0.0251466002385787,0.0293731657834512,0.0324499318516263,-0.0271336494263385
-0.00141425716313789,0.0836560054617509,0.0303223303093679,-0.0310790182655757
-0.00252513403436206,0.0690999144932246,0.0290226736083634,-0.0238615272306168
0.0290802704431796,0.031950281243142,0.0288167708364249,-0.0112859358678407
0.070737349682834,0.0177436229242421,0.0228165996042867,0.00222447246449186
0.0596569604861901,0.00564422527269749,0.0148205153499406,0.0142335904009704
0.00604148632930891,-0.0350822800193012,0.00674250077476605,0.0216248768228896
-0.0214686137265931,-0.0690160444458972,-0.00271805343412001,0.0227887227667707
-0.0276724670686688,-0.0579009283112175,-0.00914023975880505,0.0198955700344215
-0.0453930765421496,-0.027516631825959,-0.0105949469375001,0.0155976573081243
-0.05162014190913,3.34318518815484e-05,-0.00588334072363739,0.00864140398006561
-0.0331873613153844,0.0204921597647882,0.00110677551918713,-0.00118993398332352
-0.0164963397689104,0.0181070741888562,0.00121394116082627,-0.00850478215323984
-0.00825774983592471,-0.00138535484398997,-0.00243359550051852,-0.00971990802821557
0.00281699277390686,-0.00754389704451813,0.00314618806665634,-0.00677374211799033
0.0126788538417549,-0.00365516765335934,0.01677003321592,-0.00385589991850333
0.0132290651152496,-0.0114195427076141,0.0233004299752229,-0.00386845478951198
0.00286873173990521,-0.0210048852529993,0.0150711710230122,-0.00477002046101544
-0.0122460132842231,-0.0208089763405385,-0.00152135875326027,-0.0034801456546644
-0.0149884449551478,-0.0199072899007573,-0.0160860503769281,-0.000900483634155272
-0.00623365357455671,-0.0289248324913992,-0.0248893403905281,0.000833546789879929
-0.00961011292346907,-0.0454681627021383,-0.0302457982346675,0.00119767663135458
-0.012950115228419,-0.052179433078009,-0.0342695478153002,0.00131107773531144
0.0239939384435169,-0.0331672538144726,-0.0293784133490576,0.00238899785201076
0.0918771457671145,0.00225954236092112,-0.00824480117556286,0.00370559910773654
0.119365359118677,0.0310582188058074,0.0157826096042949,0.00370861646626443
0.0716215721987246,0.0690702362212892,0.025223618861192,0.00247183973600706
-0.00401816735022059,0.114665589523635,0.0186830364660059,0.000878036418138612
-0.0753461948390185,0.0893208555056364,-0.00686643822821471,-0.000654252872766912
-0.128315627132512,-0.00899960429798752,-0.0466723868303826,-0.00118335430800915
-0.138609991057421,-0.0763871456104745,-0.0650074835990821,-0.000366631446680403
-0.115419255979978,-0.0853386144505085,-0.0396440796262073,-7.34601046606458e-05
-0.0878445920827156,-0.0639292938345432,-0.000538146779997611,-0.00162376890710949
-0.0728370952429455,-0.0090442195736999,0.0179664682140032,-0.00394402261650591
-0.0625902525652873,0.0412093770192468,0.0185143155344429,-0.00560733959196178
-0.0423255626985508,0.04584458984429,0.019214212872427,-0.00489998979114529
-0.0190493573825228,0.0248063768874127,0.0195422670041248,-0.000161219135900699
-0.0176343244367951,0.00503589230780113,0.00930970775974163,0.00687103743902742
-0.0358070041319162,-0.00937944720352534,-0.00442532962722576,0.0113569208058437
-0.0412678340529051,-0.0203910184359033,-0.0114179713696917,0.0107183734662064
-0.00788134031921589,-0.0134410142637767,-0.00395382848182143,0.00693423232244403
0.0691437769461001,0.0103586173383634,0.0161458322650161,0.00239987752461861
0.128608024473347,0.0133260788716612,0.0254321260537995,-0.00307463408933087
0.1003662215838,-0.00835271095614402,0.0129948071263059,-0.00913452028814275
0.0237383879627613,-0.0165326878496727,-0.00221276764071469,-0.0125061059238004
-0.0195291075519849,-0.00679900041915679,-0.00924301529005069,-0.0108165591949063
-0.00546482381465815,0.00163626979945038,-0.0148238571555185,-0.00507678726410223
0.039032087624211,0.00987916479455566,-0.0191285919919456,0.00220315237564174
0.0575099012192762,0.0132721794495791,-0.0228354417758358,0.00814124305886196
0.0347925685630835,0.00778863007909269,-0.0278198390915382,0.0107243226411786
0.0294399905735206,0.0172676408135852,-0.0255931680322766,0.00950019253452676
0.0624981310163959,0.0264434564362737,-0.013965744562868,0.00510964253658234
0.0523294667617859,-0.0105342148046925,-0.0058059372710503,-0.000395628990866308
-0.0570528993246888,-0.0652105815322631,-0.00411068865717001,-0.00450317205637992
-0.160868548939314,-0.0754320988103613,-0.000221011408579094,-0.0058055529366953
-0.126824974314931,-0.0431569279761923,0.00801335697853384,-0.00435202418427381
-0.0192423253018399,0.00450456823499409,0.0219703131307871,-0.00106348838765317
0.0257184121795754,0.0482862715509164,0.0355059229634889,0.00234994887887747
0.0362994627904965,0.0540822293769944,0.0372229924391306,0.00371643387575167
0.084629779420946,0.0292046264437682,0.0291732718613612,0.00254421625398322
0.129561880398215,0.0291370324723383,0.0189427131343633,0.000445459169690008
0.102271278242109,0.0561862402899836,0.00957264127657055,-0.00162337441976897
0.00797809636189416,0.0521578744595274,0.000277924857061539,-0.00403586679051173
-0.0882411968029061,0.00880894725623577,-0.00816080284894473,-0.0060612679602662
-0.117443465219048,-0.00988257346629397,-0.011357473426055,-0.00657025016927631
-0.0870285612378657,0.00330213518150726,-0.00978197003970658,-0.00603785584773474
-0.0728969306660462,-0.00237249784205393,-0.00645251194988037,-0.00520045146048557
-0.0773442108385194,-0.0163352927745487,0.00395395255646665,-0.0041011640550946
-0.0432682745681477,-0.0125730544322523,0.0217547502335805,-0.0023857607695057
0.0470787423908093,0.00306975880528789,0.0355765378389997,0.00064167306735277
0.174754611417421,0.0295616062768869,0.0410443154523852,0.00493000838655197
0.251429438030124,0.0438291893865816,0.0369825639040895,0.00915109860728711
0.188922937419373,0.0210339894387188,0.0246965098349543,0.0114208455724464
0.0611615146457827,-0.0108226340412144,0.0143733916380007,0.0101612042396128
-0.0303410095316563,-0.0286569200332436,0.00384821207268354,0.00584363703159466
-0.0667643080266101,-0.0446928691751972,-0.0111116493736969,0.00124475565336932
-0.0275579475809322,-0.0557378347462442,-0.018487766696108,-0.00114209860435779
0.0693737080651304,-0.0467633442382938,-0.0150301846096368,-0.00113794655834164
0.168360067292834,-0.0261213312466758,-0.00722567980270345,-3.37012649168512e-05
0.220961908233862,-0.00881809714071385,0.000242584411272109,0.000508182303893156
0.193094416404335,0.0171595025976543,0.00291903174062731,-0.00204931413643692
0.0902143434683108,0.0487764248843082,0.000915497567973274,-0.00849428531015806
-0.0841677877260824,0.049381959486621,-0.000235984652594022,-0.0142113724973976
-0.264832871738556,0.018296780511537,0.00924601323801222,-0.0140385053202553
-0.295775650325876,-0.0124003456682976,0.028797636285423,-0.00926975141475858
-0.184744608883023,-0.0310308648075439,0.0428122017209836,-0.00417422316564327
-0.0904181822082703,-0.0405225564722336,0.042026114052753,-3.62802387300649e-05
-0.0654699221893062,-0.0350135102283502,0.0315292525239415,0.00296458987924319
-0.0732726729236554,-0.00710274963741543,0.018475306624695,0.00381624164552827
-0.0860383084394854,0.0227700882181264,0.00735467742029402,0.00326088013267272
-0.0661626880428783,0.0240543804736199,-0.00199281489896665,0.0039633858468451
0.00849453656566806,-0.00030265092396117,-0.0179476757656973,0.0072245505646568
0.073345242650182,-0.0321838827319341,-0.0390166256887392,0.0109953487254497
0.0652415312192299,-0.0704757748000948,-0.050959618230408,0.0123394377932118
0.0249962649205363,-0.0938283088285143,-0.0476895138957924,0.0103411044751091
0.0211506987263266,-0.0508411277629528,-0.0307652977993621,0.00486608705545449
0.0442955156237329,0.0351234424174099,-0.0101857692086337,-0.00323223591287597
0.0377016021015162,0.0641594761545092,-0.00213287266520287,-0.0104955562543457
0.0106885422903196,0.0157280470578451,-0.0108286012061167,-0.0136580641844619
-0.00676416192427478,-0.0258277769331097,-0.0237808236299416,-0.0122203660602957
-0.0338184017992945,-0.0190912446560001,-0.0247450892277317,-0.00765982259827563
-0.0599982591582907,-0.00309531491812457,-0.010703966613415,-0.00231233705761786
-0.0389825120538917,0.0117135358922148,0.0132264955796394,0.00171308162328112
0.0302002827083195,0.0286848647998747,0.0373357698013834,0.00376527293639111
0.117466589253605,0.0314560721608428,0.043528309768057,0.00498757534492772
0.16554218371612,0.0232237191123916,0.0238192909130683,0.00640518542417358
0.0877639009026836,0.0103089898790558,-0.0020625296376945,0.0072009627607993
-0.0856166338882015,-0.00450163362505869,-0.0187083179407522,0.00554108971719572
-0.209541547082136,0.00372851108975582,-0.0343289050237716,0.00174554386598006
-0.220790309558329,0.0369040755890734,-0.0442771690477675,-0.00101643832202328
-0.180716058046835,0.0435169099004141,-0.0421183196673942,-0.00141068815545616
-0.143748417908266,0.0187988532223842,-0.0373863385263071,-0.000965360960683554
-0.0857198502167048,-0.000106353837015322,-0.0316976693971119,-0.000328609709626831
0.0233509477221596,-0.0140531282975667,-0.020483230364754,0.000819368401143008
0.138358441174547,-0.0279471090458556,-0.0095306295026221,0.00198281941779768
0.167111878179558,-0.0338694071040161,-0.0100663913172619,0.00260356622192722
0.103188955468127,-0.0270386295945185,-0.0159205851566284,0.00276087760911978
0.0348372170132045,-0.0114911036263825,-0.0132898871806913,0.00205737340791367
-0.00689953525253147,0.00338666103820457,-0.00538544953743915,-0.000340091836325581
-0.0487766127261925,0.00641067041568278,0.00501003653525379,-0.00349055530709882
-0.0949759555470922,-0.0255877473829834,0.00876006783681238,-0.00464320359244672
-0.121970365973194,-0.0787007647321096,-0.0123811800729425,-0.00162970286884151
-0.105580033735123,-0.0979188785919722,-0.0409794807456621,0.00545619657559404
-0.0745315410951974,-0.0690812969333128,-0.049480017544382,0.0131993664798501
-0.0636196298645594,-0.0323621484173501,-0.0445317616151036,0.0169626941794399
-0.0648066492606751,-0.00179802642715692,-0.0378535102729103,0.0142962560978456
-0.0782903570678333,0.0478214850638403,-0.0274525732105913,0.00356704989556353
-0.097004652348458,0.0823847735714957,-0.016182484017162,-0.0148593030548465
-0.0891683556436614,0.0577141039630909,-0.0091569865220957,-0.032574321668519
-0.0359848512685985,0.0159679805008636,-0.00154903533741798,-0.0375847217894795
0.0559543954819536,0.00493078304137791,0.00707691421975156,-0.0264254344454605
0.128777697232753,0.0198701775611487,0.0203144026638998,-0.00702572022911679
0.136284210113093,0.0488686578476837,0.0472265666242383,0.00914042141969966
0.117800911313879,0.0720087109172164,0.0631437229916076,0.0162123836977927
0.128797353980608,0.0544318636225863,0.0448795382940263,0.0155343753978703
0.152083084783983,0.0139394839867714,0.0223880104967476,0.0119940413163265
0.121074569683035,-0.0125421870400077,0.0120914647807742,0.00920310214843183
0.0447468470744206,-0.0243229671229698,0.00187030743736803,0.0071567918727594
-0.00165633282770514,-0.0199212393826257,0.00194633417098356,0.00428582045287278
0.0070226611214135,-0.017645953006679,0.0119333518090429,-0.000209798740740804
0.0141155447238869,-0.047343576916878,0.00887870469372991,-0.00395260490204778
-0.0276219591389834,-0.0886299962256956,-0.00697228916089317,-0.00399636066627837
-0.0693003307235996,-0.0948675488570266,-0.0151434360166353,-0.00219406688665244
-0.050703336396005,-0.0607195052274584,-0.00880437067985907,-0.00248189374484449
0.000904669067289025,-0.0103708979019954,0.00446362373029322,-0.00568584858746716
0.0377601854000941,0.0284946418268002,0.0156530054362588,-0.00946408875550415
0.054734043155872,0.0156049313627697,0.0133209216028781,-0.0104900311014108
0.049635683963908,-0.036923485252891,-0.00329782354342577,-0.00742477745207976
0.0106522261739903,-0.0633346371342478,-0.0172572807173227,-0.0023499258925157
-0.0599644967391039,-0.0534132518952539,-0.0211102082976814,0.00193197046282995
-0.111254149944971,-0.0402718687324698,-0.0167024705271962,0.00388847664415385
-0.0977369555483082,-0.0298157871681622,-0.00658355425470908,0.00309542107174538
-0.0712706341609155,-0.0178276774512088,0.00613128973660528,0.000876317384444672
-0.0394800944692107,0.00546676940494337,0.0220060922656226,-0.000987896058562153
0.0774120535194398,0.0564863764137728,0.037725816980099,-0.00228772066946657
0.232868943759912,0.10902080768584,0.0467798019032377,-0.00305495427123834
0.305845682350815,0.106340827380048,0.0411890639857152,-0.00318733170677062
0.275159401775207,0.0444869813148271,0.0223035484236336,-0.00322618808671731
0.185621867993356,-0.00923074506176269,0.00835577306622166,-0.00307502274618079
0.0639240661816407,-0.0154350256131335,0.00651791593831131,-0.00221941401878903
-0.0536601018736056,0.004370011708834,0.0092136988166616,-0.000652137040295049
-0.0747177264842365,0.0302287736788476,0.014910296097571,0.00156067676402135
0.00253587694702485,0.0365876861441761,0.0166114813233753,0.00427756340608488
0.0427129478072737,0.00218446111460208,0.00348405530387811,0.00682728672763004
0.0150694697015244,-0.0453021795968991,-0.0136692312692457,0.00801952200899849
0.0107250019179125,-0.0675225227685261,-0.019757934117934,0.00713140180151697
0.0361582095789427,-0.0569076115770736,-0.0174590662389168,0.00466020228326303
0.0364071603189868,-0.024997359983278,-0.012151632184761,0.00146833704858595
0.00890690113120919,0.0113929225398219,-0.00802498656149323,-0.00159097571756733
-0.0185754994129389,0.0369917523684579,-0.00656055116825131,-0.00282794365574341
-0.0386108988798411,0.0426114173405207,-0.00534715398063326,-0.00111478623206459
-0.0517691727843129,0.0377198050457482,-0.00148110425769938,0.00267191385872208
-0.0242659444161168,0.0304966209898156,0.00429802676516099,0.00637176336403778
0.0522025164125989,0.0111513855338781,0.00499848198752138,0.00817381379015074
0.130272427773612,-0.00330421968476072,0.00231304956237571,0.00821845361093779
0.159683270975155,0.0121526719070126,0.00580924117975336,0.00778242991635319
0.122611204001364,0.0332704529987563,0.0138984951515258,0.00666835605325102
0.0662576664476449,0.0181073244488571,0.0118912419954396,0.00320020489396113
-0.00476483588507592,-0.0298023966334869,-0.00777586685652932,-0.00118520501503867
-0.114460246251827,-0.055333054653465,-0.027306935673193,-0.00225345838160543
-0.204686728685316,-0.0214928206184316,-0.0251528617322346,-0.000253547616348696
-0.215075660148506,0.0456398872717529,-0.0017164792420038,-0.00125543581727939
-0.153179411832471,0.0664247025980602,0.0219725557772736,-0.00779226184064499
-0.0868389407071086,0.0164810198869888,0.0304107776977026,-0.012529919835374
-0.0578458362740273,-0.026148834402239,0.0327393760161667,-0.0088946719679891
-0.0277432735621488,-0.0250489432397716,0.0295002404127663,-0.000663887727350191
0.0202084512079744,0.00185569075832766,0.0166575589407929,0.0052424139608836
0.0412797723322279,0.0455321073208843,0.0120696648548013,0.0059718118466355
0.0338752728867531,0.0728306899966708,0.0144926143232164,0.00285270410602597
0.0285639275677445,0.0484838945295163,0.000932377881184554,0.00052919984766013
-0.0108432907674051,0.00769366589948235,-0.0182367007037033,0.00265489979119772
-0.101778996160206,-0.00661334874158145,-0.0212798157498254,0.00675043463319466
-0.166853105376578,-0.00627086640804509,-0.0170018404680991,0.00791920360898981
-0.152007667233624,-0.00209469624626625,-0.0188105390439588,0.00623380985876408
-0.0736637452506933,0.000757069888221676,-0.0181176686098352,0.00471130420533973
0.00855574993288877,0.000757144913874573,0.00123187800597716,0.00302757927769738
0.0390459598024595,-0.00320433521551301,0.0187510241149169,-0.00090944892579786
0.0527093031164107,-0.011622596509764,0.00379501767360374,-0.0052487034164224
0.0805801253398367,-0.0043691635325375,-0.0155178141824869,-0.00617735066436705
0.0706454990735026,0.0255000923735176,-0.00264640862243355,-0.00475431871273451
0.0180590297023338,0.0442653022874231,0.0195462537937201,-0.00521532785971019
-0.00742025180304659,0.0184903892839586,0.0194913384067094,-0.00741888594969013
-0.0140103192309358,-0.0309770101817864,0.00932265689245372,-0.00747572256455624
-0.0927269103424961,-0.0542000552387966,0.00471099606796735,-0.00490747578755775
-0.198246287912862,-0.037837305602539,0.00442517111927605,-0.00291659600899506
-0.194861824155198,-0.0114782931339722,0.00983209833686907,-0.00222107012407281
-0.105138059968119,0.0114840347718503,0.0151713164400086,-0.000744895436941355
-0.0360189264107622,0.0280594309403875,0.0112144905335759,0.00135775943074345
-0.0161606166607748,0.0184903237965075,-0.00271810836190975,0.00194797955400754
-0.0290581742371755,-0.00699271596466059,-0.0202862668466705,0.000883937639568002
-0.0473128386747356,-0.0209624269861839,-0.0307145547193649,-0.000290721655464399
-0.034868601406212,-0.0198397151225916,-0.0257644734196589,-0.000897635820215742
0.0106508289211262,-0.0103391557039748,-0.0117749465636759,-0.00139735360557426
0.0752607494665346,-0.00453918813814671,-0.00318960305190941,-0.00248374177721842
0.140084498863327,-0.00633582299139448,-0.00263648270982069,-0.00333393304961282
0.147540408632362,-0.00874287452692666,-0.00815736970573609,-0.00165538379630296
0.0661384585918957,-0.00435290260067893,-0.0135620876411073,0.00257981366178168
-0.0344667936713668,0.00536012644246138,-0.00980577347232893,0.00551237028055008
-0.067311139400789,0.00152785311564335,-0.00866245502432299,0.00400800438125954
-0.0380990557743584,-0.011970072234898,-0.0188185253762989,0.000145357760367938
-0.00535476037635774,-0.0134436652790249,-0.020343528729265,-0.00246834344013822
0.00141040652940134,-0.00326502143078886,-0.000584881595293074,-0.00335953433198145
-0.0116797561275437,0.00113575077004731,0.0209285570800891,-0.00353345145366677
-0.021706023711644,-0.00365024840854366,0.0245220648256782,-0.00340404282754442
-0.00801277231769019,-0.00135640095661042,0.0159011429933812,-0.00300041773579418
0.0215014819770108,0.0103409314215537,0.00439382948231384,-0.00242239573183736
0.0378630821393837,0.0169901165280111,-0.00838401020460868,-0.00164392014753626
0.0267821393332502,0.0145545880315814,-0.0164053200273812,-0.000383055486238038
0.00330747484378203,0.0096400329471473,-0.0194525815795544,0.00125148296001857
-0.0100186353547989,0.0032756350769664,-0.0230314310108881,0.00271898936729247
-0.00789288697884304,-0.0019605681551959,-0.0165967742229639,0.00363375204663201
0.00014287309504403,2.1865777575087e-05,0.00476668748607004,0.00384026670241768
0.00827541224432364,-0.000204111089042475,0.017723959919511,0.00328568744737851
0.0111336382340745,-0.0152165873754998,0.00941739777994591,0.00231112761971094
0.00408624018727813,-0.0337700794563227,-0.00513235571263836,0.00159874518857318
0.0114467672501208,-0.0407124772937715,-0.0141868906553188,0.00189579946782926
0.0401934255437941,-0.0405604007888678,-0.0183056372177089,0.00367302399386225
0.0435569558138165,-0.0396859664614604,-0.0213900792892495,0.00630813815328191
0.022347164261895,-0.0347501587076281,-0.02118427467533,0.00832781579396221
0.0121580842544345,-0.0117038106954842,-0.0171259127480591,0.00876640434985749
-0.0104660112936691,0.0210153923297544,-0.0212607705068815,0.00764589487135636
-0.0640728357600426,0.0138349169492806,-0.0332432200019098,0.0055177085786436
-0.119752301973894,-0.0237394140219835,-0.0330129889321724,0.00360005369019571
-0.144439255141222,-0.018788704397941,-0.0155566988672148,0.00379428524554833
-0.128522363662406,0.0235356585142173,-0.000916947081901882,0.00566132180408534
-0.0791972081202893,0.0418466515396219,0.00508385900235672,0.00441326972653801
-0.0167113516901671,0.0294414561196172,0.0176283840564994,-0.00253263493831152
0.0341108355344467,0.00808359301959524,0.0324854839101943,-0.00993601180459544
0.0775222814071349,-0.000770924654181399,0.0394623366960532,-0.0138476880714779
0.106712795738166,0.0268701020961567,0.0443282203855667,-0.0178429337956127
0.106695665093835,0.0699118273909627,0.044808369846995,-0.0216589612266763
0.0947889433308892,0.0618535886565128,0.0306007285407006,-0.0183415570227429
0.0997399126704193,-0.0101402432576165,0.00499085511515348,-0.00667580768039053
0.145978587936636,-0.0782547227558985,-0.0137722533003534,0.00705138066974014
0.186885938770706,-0.0976260289246189,-0.0186514294433943,0.0174295266139881
0.143765346405363,-0.0897142808651371,-0.0171926792517557,0.0223977381306571
0.0310561201239473,-0.0784802387443077,-0.01288494707574,0.021960290045844
-0.0793289827141738,-0.0456876754124839,-0.00555580253336904,0.0177918483882215
-0.132214829150483,0.0282056403926806,0.00944513402567589,0.0116707976062995
-0.121269333622698,0.115572008083367,0.0289996026805289,0.00438417479225749
-0.0863936460905148,0.138723646678437,0.0335316376457537,-0.00341079144197336
-0.0675769839617219,0.0746230056483275,0.0187003614228114,-0.0106627375897665
-0.0698135996258579,0.00784054339324444,0.00301549360596096,-0.0155432327127835
-0.0697725454535711,-0.0200587951164694,-0.0048270618830386,-0.0157449868499347
-0.0515234812665926,-0.0383085548051069,-0.0115890933160423,-0.0112562810533694
0.00983240718400315,-0.0477479207947486,-0.0195952397647285,-0.00533196516964797
0.112943943271166,-0.0403004537257725,-0.0215362824612854,-0.00109451902723665
0.183714926774878,-0.0261435409064638,-0.0141311501928718,0.000902846111196307
0.164457964056111,0.00265507063015424,0.000473390440601018,0.00102559944658008
0.0854305966051988,0.0379370762899184,0.0203265120573694,-0.00108661633015503
0.0289826154589062,0.0385956896288682,0.0366523766738622,-0.0046396470929595
0.0432508348572763,0.0109444043999435,0.0364946519645789,-0.00705495136091995
0.104400884863896,-0.000915136063075514,0.0256019028648719,-0.00662420182028122
0.164695324276551,0.0265941466856885,0.0229064798122737,-0.00340931611114903
0.179668218156977,0.0670808689962998,0.0252208263290565,0.000969677976757609
0.12525831551969,0.0667937556856282,0.0202398174056222,0.0042737139273261
-0.00633197589382464,0.025943613734793,0.0097290745618614,0.00622860042603263
-0.149687757448613,-0.00764653833091369,-0.00244777339485062,0.00816640439731043
-0.162141572201233,-0.0121919728808551,-0.00965995979611919,0.00937911797225321
-0.0609411626443276,-0.0134765563529474,-0.00624693072491895,0.00762294971458135
0.0103955421387298,-0.0349157405481839,0.000501395329728836,0.00331027185355543
0.00903654108191818,-0.0599408433539728,0.00143891807833744,-0.0010488730009999
-0.0174996203231195,-0.068065452532799,-0.00136456685465318,-0.00532337670059416
-0.0210936607831076,-0.0552768927522737,-0.0020323552306872,-0.0115170104248217
-0.00755798036980287,-0.0191819061523707,-0.0023207421223456,-0.0190195762743716
0.00402507054180774,0.0363539741857697,-0.00268458247634517,-0.0237060706378918
0.0270618934401995,0.0755774431054607,-0.00145766645767798,-0.0214083079512593
0.0450050315895971,0.0550940287090758,-0.00332397006105902,-0.0114255725825128
0.0166558652518202,0.0077645688467568,-0.00630815129616342,0.00235074184974848
-0.0291292964423103,0.00571259137558058,-0.00157091950266267,0.0132370174989937
-0.0499545596844242,0.0339106975830276,0.00495143403463141,0.0163066973603559
-0.0629549416885005,0.0242103059623688,-0.00185864027672262,0.0133377308692518
-0.0539534621722326,-0.0124777958280411,-0.0184596593156431,0.0104933931058672
0.00920715994031009,-0.0253578735291572,-0.0235133699399743,0.0105241396565992
0.0954201718826245,-0.0152222020748591,-0.0135837550760219,0.0114757523079362
0.142579778229958,-0.000620833896328363,-0.00678416659026263,0.0113861675998201
0.0952099650974704,0.000515837911345261,-0.00895843507441909,0.010166150477038
-0.0237431400127732,-0.0144153124613833,-0.0166069658622115,0.00804256856726311
-0.102353023079476,-0.0135314285135578,-0.020929896241306,0.00501565399602221
-0.112356679211772,0.00344775951976332,-0.0128355768887632,0.00110541996112616
-0.108453120703297,0.00588999795656778,-0.00945587223144646,-0.00373632020574207
-0.0876558196423582,-0.00869952673283349,-0.0175099780110559,-0.00990081381202295
-0.0542420707929613,-0.024788071299341,-0.018754189200022,-0.0174810959984707
-0.0413664617367351,-0.0193747721772402,-0.0116483331460615,-0.0225053625220805
-0.0730847407693509,-0.000689225356510613,-0.00515524400894636,-0.0193538345341258
-0.134238817738974,-0.00374324075667432,-0.0060338557306226,-0.00906030831674912
-0.151017590789845,-0.00145480930941781,-0.0124033934542043,0.00210965995941779
-0.114178854432481,0.0196848151603582,-0.0152616805800705,0.00968651041804487
-0.0830300574068643,0.00669912469823427,-0.0150335665888406,0.0130407333314453
-0.0545161822326283,-0.023007503645418,-0.0204108713268907,0.0138548479570446
0.00152548103739872,-0.0192111330455957,-0.031060116884298,0.0129502665334429
0.0632103255018891,0.00295749677323219,-0.0320855862284129,0.00868400718374515
0.114160211455315,0.0201961313556499,-0.0219777041790112,0.00118536596889165
0.153319738389488,0.0391878766216419,-0.0113478406805542,-0.00428934201211254
0.158849920782682,0.0664987868860564,0.00693844277320734,-0.00387674032766463
0.126083248223462,0.0736847127347486,0.028529770589727,-0.00140762833303953
0.0676298086943875,0.0322568553527707,0.0273553854292474,-0.0016395883418515
-0.0170363932362723,-0.0447742835172565,0.00547724575200597,-0.00249354723251715
-0.0839817249907855,-0.108913699271825,-0.0174757930306325,-0.00073372903731324
-0.0724974718593124,-0.104746077213198,-0.0353933000620077,0.00210567973954997
-0.0271058035806065,-0.0313721427919686,-0.0428868322714723,0.00350717356308997
-0.0102559123857469,0.0448161576149549,-0.0367391734026947,0.00259720445251502
-0.00050544276554846,0.0690013411785075,-0.0267608776297471,0.00017930274176958
0.00228938446797339,0.0614827266586993,-0.0185622020291176,-0.00123450202789448
-0.0482832359260604,0.0557862129916452,-0.005319400720451,-0.00153719373888724
-0.121014483363109,0.015685315414806,0.00177171212904982,-0.00448738620397528
-0.102645594884215,-0.0631082497118962,-0.0124970183693494,-0.00960593045592541
0.00727836465223843,-0.0904431224275785,-0.0280392330151033,-0.00985667941798031
0.0916679218378295,-0.0424866270906857,-0.0232436811249074,-0.00328311403481435
0.118572613731502,0.0146162930303414,-0.00271470370610955,0.0034669237684267
0.127140040349684,0.0292544688941442,0.0144265119193731,0.00552724048520473
0.117189752092367,0.00632265615091607,0.0165552068752786,0.00478886019575328
0.0558437813572509,-0.0141633540598911,0.0124781944893976,0.00363244922101316
-0.0376079741799464,-0.0147948179538817,0.0140073490450041,0.000324744204992023
-0.0892073805506843,-0.00970885472271387,0.0183216010347766,-0.0050801347081074
-0.0912097545831688,-0.0138872126327013,0.0122160232553942,-0.00772720663867382
-0.0882715330186657,-0.000556601774514973,-3.38742521313641e-05,-0.00572581974036874
-0.0681267250116733,0.0603940502655802,-0.000715951806309914,-0.00276692220819095
0.00532929814504436,0.11516653957976,0.00507002639493311,-0.00156444936663949
0.0986921415266974,0.0896474171277241,0.00487070322823336,-0.00109636436109387
0.137311565092091,0.0237028873233445,0.0207166379482695,0.000827786449001574
0.118750932408251,-0.0110430835191837,0.0461587561671225,0.00400088668335539
0.0821710535086528,-0.0199599090129309,0.0328926768836908,0.00507510518226725
0.0440329414424627,-0.008804159117301,-0.000306042606933461,0.00210722764651362
0.0296623845182122,0.0160374981876476,-0.0065442036085622,-0.00261098789635301
0.0367921334614446,0.0102178697908244,0.00529708422764031,-0.00575839827197004
0.0416858502235333,-0.0196055217171221,0.00999375484104948,-0.00615013974244711
0.0381104189101509,-0.0347016295957238,-0.000530176904517624,-0.00420226257134052
0.0102685687157781,-0.0434386557506752,-0.0194599209683534,-0.0012286010320275
-0.0418621611830454,-0.0557163303897669,-0.0337609371874134,0.000850144684058734
-0.0777714925316814,-0.053460689924242,-0.0329674394036459,0.00134291236443708
-0.0681980825209623,-0.0286130356726662,-0.017456206605796,0.00097210962230042
-0.0230646777021823,-0.00391468397185738,-0.00455013595610003,0.000518760075433043
0.0391550984867344,-0.000779830156762515,-0.0030129745247316,0.00131591925744887
0.0956507298041513,-0.00594222635934642,0.00175761326063377,0.00378948472681507
0.0889137574585751,-0.0110400105103043,0.0125757408645753,0.00571991646392144
-0.0245082439803822,-0.0387538489516157,0.0114316922994111,0.00537884991284425
-0.146191059514124,-0.0726119113730987,-0.0042187895826904,0.00357700683838212
-0.158327846473838,-0.0671772936721036,-0.0213247644181782,0.00212048780282715
-0.12613754332779,-0.0325815107773728,-0.03474675624751,0.00270025099061538
-0.116489018473066,-0.0115943816970158,-0.0416010714042544,0.00611699152019139
-0.0805039953880662,-0.012225866031737,-0.0342677207431222,0.0109541192645232
-0.0080721204404291,-0.0119448258311908,-0.0108403409262308,0.0132693610532069
0.0399398937713618,-0.0143161969950052,0.0112798985837236,0.0101426826671613
0.0611334539347726,0.00863743726458156,0.0239875715940664,0.00347434644371097
0.0900160087751239,0.11012440362747,0.0515097758835708,-0.00398708031620714
0.0866194023602854,0.190027903181796,0.0790348834710771,-0.0141551462932695
0.0487931501555107,0.149852744182257,0.0623483150480953,-0.0272988482878629
0.0272832427021788,0.0591048596834533,0.0214220763713926,-0.0343523041036955
0.0195190547765599,-0.0146762433284232,0.00177295199551102,-0.026469113002545
0.00104590994037131,-0.0366039233938038,0.00308195603016356,-0.00814835585337659
-0.0283762459597223,-0.0133025345136676,0.00517143584685051,0.00802761100458235
-0.0522595768362373,-0.00426147514591519,-0.00107523452521627,0.0157766258463967
-0.0724817409579565,-0.0156305729029192,-0.0131739631519435,0.0179171820949294
-0.085903752176271,-0.0296285199404959,-0.0170634899704881,0.0179407737041057
-0.0748110740352248,-0.052466790970514,-0.00723792195874824,0.0154473317180776
-0.042389048299851,-0.0675277710532815,0.000574982676301544,0.0100895507292598
0.00533380663500904,-0.0570446612630264,-0.00284229547512687,0.00542852426390853
0.0627653946232037,-0.043333160888308,-0.00842407517459539,0.00516551682685153
0.0910191422973519,-0.0372924170756516,-0.0103645446737703,0.00712069072759865
0.0577610627367657,-0.016800942433775,-0.00894600981715672,0.00638773641540535
0.00531818587151335,0.0102108658564142,-0.00487675317641754,0.00207006521959051
-0.0219188838583063,0.0183800828688218,0.00374787926688159,-0.0029381720538086
-0.0241213013256085,0.0185453144601634,0.0154766220469207,-0.00653700954836419
-0.00594896594856152,0.0422301273291175,0.0280287873980126,-0.0097511273705812
0.00194742946430701,0.0842285911667423,0.03800785675933,-0.0131572665112132
-0.01984396041689,0.0935431392237894,0.0348589784692864,-0.0143206811636137
-0.0313527246136809,0.0639892591411953,0.0253284753822647,-0.0116036208343186
-0.00917480292696173,0.0382825448718973,0.0228705939022688,-0.00710349121331523
0.0116022256172375,0.0224632719692621,0.023411823747846,-0.00340495587725231
0.00727280689072101,0.0071429086658081,0.0244154333798057,-0.000337573707068528
0.00274244250605872,0.00826807099827209,0.0277867840403926,0.00272802345669912
0.00836769128721958,0.0224568383438603,0.0303077565955171,0.00495019743857162
-0.00585032884058409,0.023599722796686,0.0287073523197376,0.0058046147230809
-0.0177977629008014,0.0122299568154735,0.0240583210189047,0.0060034689232246
0.056959165008808,0.0124119420175164,0.0253267359987156,0.00620159296677552
0.177888835534856,0.0317873192207127,0.0364795050931737,0.00568727220395948
0.170145113533373,0.0487409741709695,0.0435494269344482,0.00279279538480654
0.0293766547560922,0.0354438530990409,0.0351102372218345,-0.0025923854824594
-0.0602544583209648,-0.0055519804381242,0.0212759687152498,-0.00800591656417394
-0.0427653202425849,-0.0339419953703648,0.0127532931705111,-0.0104813325578532
-0.0117387435705803,-0.0374864153622383,0.0065547106431462,-0.00857669129252719
-0.0065441739953641,-0.0444450607437587,-0.000153110480422782,-0.00331165923693609
0.00405183054580345,-0.0538116942845863,-0.00525838166386799,0.00225882365604053
0.0209086353405605,-0.0517049751199279,-0.00991709553156194,0.00573223720661208
0.0144562829353037,-0.0340644960521993,-0.0144888417630688,0.00705973168456863
-0.00591384567270891,0.0225608774024557,-0.0108376898772319,0.00660463998997299
-0.0174685897652907,0.0812063886830124,-0.00122801284109969,0.00410130161289461
-0.0247390130871423,0.068065075279248,0.0013336592632965,0.0004927716501345
-0.0302536499838482,0.0229637032543021,0.00126614749451112,-0.00219322329599232
-0.0228616674754578,0.00809505998856808,0.00542209603459666,-0.00280403927557372
-0.00308637437356667,0.00338523985470601,0.00970292844301346,-0.00117784754439162
0.00932100431271268,-0.01166088075619,0.0154929727514009,0.00192024463535229
0.00700171513500539,-0.0236594372350362,0.0219639086681582,0.00459421478159866
0.00646366853896273,-0.0207793824004453,0.026640690469029,0.00525874737059502
0.0160204749322372,-0.0116381334488186,0.0279886551872649,0.00379976013018548
0.0166889223211329,-0.0147206951741686,0.0182507278033667,0.00144008058057596
-0.000504623489750207,-0.0292435507966159,-0.00248716974666178,5.70021452951548e-05
-0.0141521110797741,-0.0254028926975517,-0.0174873589736161,0.000409402332699778
-0.0139060287576409,0.00958937570904014,-0.0187265959921258,0.000843366374703312
-0.0115520193209852,0.0482615881090014,-0.0223663842625653,-0.000379296353628043
-0.00787852180436708,0.0676888390453627,-0.0400206483060108,-0.00235070827898861
-0.00660843664954616,0.0461385721460556,-0.0578163740808644,-0.00327138232671617
-0.00805317978265821,-0.0126982417755961,-0.0582377791185774,-0.00246057319549572
0.00191065744076074,-0.0463549607801228,-0.0366808588118987,-0.000354472608003468
-0.00165096973811507,-0.0368481258198329,-0.00691804672509792,0.0013472357034025
-0.0342957527230883,-0.0294649286577247,0.00548910209674251,0.000993762521633012
-0.0635223814035395,-0.044663823011583,-0.000455277449273133,-0.000669882413815481
-0.078186037587264,-0.0633653316082962,-0.00356466387760458,-0.000518097419637647
-0.0752636900156676,-0.0440416519249413,0.00949146364565094,0.00328275070456534
-0.0465519657774039,0.00964999648940275,0.0296767161342809,0.0081443601696452
-0.0221214171955973,0.0302657606982625,0.0319498583608391,0.0104092467574492
-0.0278220727296012,0.00684244310742563,0.013533091010188,0.0102083349239754
-0.0540335256033349,-0.012099027301631,-0.00336235254797358,0.00857900699692133
-0.0868860607720126,-0.0114370972606155,-0.00873624297179534,0.00338879054186749
-0.101981194448935,0.00635580240643826,-0.00711381704073774,-0.00705622604080701
-0.0839759978862458,0.0306818327183637,-0.00585421948796323,-0.0189953049288082
-0.0638162573070534,0.0358144565798747,-0.00923986080436356,-0.0245803079674175
-0.0570985038511914,0.0109367280276975,-0.0150719869720277,-0.0193402510995339
-0.0170254484327282,-0.0153340766479676,-0.0225019395017496,-0.00735509702570323
0.0426316034195616,-0.0170228502718374,-0.0314242121605492,0.0037320983111736
0.0387765789710641,-0.0125946295626216,-0.036858210042471,0.00989696203160795
0.00128026578060096,0.0032048982328004,-0.0317952533529956,0.0110138173312687
0.00814534891076566,0.0330329669443394,-0.0169979020532412,0.00907451158646443
0.0391314863705805,0.0311655949894381,-0.000484426225104344,0.00676860504140264
0.0613338092563393,0.00418110422547007,0.0104167573245857,0.00508603497067047
0.0789517858144723,-0.00882519769592732,0.00615920768385205,0.00344364334214007
0.074123265822017,-0.0206552638543257,-0.0100725718812632,0.00131736354460655
0.0189441451765244,-0.0386429276004058,-0.020501742937237,-0.00190611655396004
-0.0604679288794193,-0.043473001220072,-0.0206796397095982,-0.00608594673946395
-0.109256364201753,-0.0325478376243252,-0.0142872601547507,-0.00928398889206985
-0.123948661969682,-0.0187740916120502,-0.00509899918667482,-0.00952033132709567
-0.122382906153099,-0.0130652388018904,-0.000648857704130926,-0.00686630356242327
-0.0928082917881004,-0.0137931684746462,-0.00625744678478115,-0.00317588113846709
-0.0476338207746408,-0.015687463576185,-0.0202572940394277,-0.000110219542098872
-0.0142430779437329,-0.0228981328475311,-0.0305990889509799,0.00142497567318014
0.0146592950963843,-0.0510347984161673,-0.0337171864303896,0.000622939014828143
0.042555503752913,-0.0858483373844003,-0.0366223041574988,-0.00162363001682613
0.051071870883667,-0.0908843673766916,-0.0371106994708696,-0.00250978704305216
0.041835974993517,-0.0832207951036706,-0.0333662741178475,-0.000952770467950908
0.0296862923963475,-0.0693380514772359,-0.0237005649657949,0.00170553619195246
-0.00114526374123481,-0.000995232610960392,-0.00512997621092295,0.00365855610348601
-0.0618185088709748,0.0913469512130316,0.0147562915629037,0.00288757292647068
-0.109520502178698,0.110373913222679,0.0208112083673775,-0.00118328697035372
-0.0903528517902515,0.0628326748996562,0.0104868481075206,-0.00509215805095004
-0.013567605764381,0.0246337891404063,-0.00037394757299059,-0.00483772356111438
0.0573104759061943,0.00124738736644649,-0.00420938151181369,-0.00129739293136701
0.0982522908456611,-0.0199358788731943,-0.0048702985368198,0.00221995897667942
0.123575127801629,-0.0262788979788684,-0.00208769315107337,0.0043363415530022
0.114938400558418,-0.0420416331564687,-0.00383313998744841,0.00460118940459212
0.0859278758392572,-0.0646383013856718,-0.0209706707959897,0.00290443010104816
0.0680741904362808,-0.047570705636736,-0.0432986152499819,0.000434224078375399
0.0178488348390407,-0.00540268417006333,-0.0561346632853035,-0.00202860481200985
-0.0734618636910698,0.0205982398482339,-0.0563514675517062,-0.00414094689006449
-0.13546878230245,0.0399041403509848,-0.041408906226497,-0.00427808197205935
-0.13363517587885,0.0610066210375841,-0.0179102818676222,-0.00177840161572256
-0.0803050961205406,0.0514898108774465,-0.00921065094143442,0.00162645203470368
-0.0120237338073909,0.00099947706439657,-0.0191366635495095,0.00420478224985812
0.0293954586694121,-0.0560886838304095,-0.0241481752405941,0.00573436989832548
0.0451799847294819,-0.0894882228320037,-0.014326295285861,0.00682965529718245
0.0535325794319273,-0.104884462108356,0.00392604106919199,0.00723025709315328
0.0633645385723435,-0.111678871732178,0.0243248946384433,0.00576940886538943
0.0540137759294438,-0.0619601574814472,0.0468190409455072,0.00284003271396571
0.015446709908716,0.0644049018087149,0.0749629851030678,-0.00049478135589008
-0.00152478260484926,0.155288835228453,0.0864070198464875,-0.00473827950257972
0.0186046625258972,0.127829231928792,0.0623921252386443,-0.0083997466821451
0.0559778546745072,0.0437005768640242,0.0315176224426482,-0.00771756210196643
0.102475190523403,-0.000898528090163789,0.0168169694506123,-0.00219265939749318
0.122834422913457,0.0187826366718598,0.00685341135176311,0.00487309181102887
0.0868046755173716,0.0348511844923066,-0.00633304757404279,0.0100390614117644
0.0330755844942921,0.00272168190478199,-0.0157789553074413,0.0119143071887577
0.0113245099353214,-0.0314003034175478,-0.0169376138767872,0.0112016871395426
0.00520652997834255,-0.0264830158767704,-0.0123641199257667,0.00882417783867544
-0.0049585421359859,-0.00320137972050078,-0.0035366693971243,0.0044995957818381
-0.00392119632841977,0.0221051553526486,0.00519461905104568,-0.00149643442082341
0.0189441927530078,0.0414814550683599,0.00459748304045558,-0.00639019642773414
0.052247721202541,0.0342784144678001,-0.000837331781465712,-0.00699333048792264
0.0779917965726725,0.029439120341294,0.00352785507110942,-0.00454868575917465
0.10510992001785,0.0460964279497714,0.0161674132622395,-0.00361909799552599
0.131120008656318,0.0496636568387964,0.0314039729850653,-0.00406468167318771
0.109431692272411,0.0215128558949478,0.047795651535948,-0.00253703899209662
0.0431275331466464,-0.0129841965691504,0.0566768051059851,-0.00224595734265965
0.00282604277210213,-0.0315888935085434,0.0513113352082467,-0.00814144735893412
-0.00835940693682351,-0.047302299571134,0.0310333734841764,-0.0147937148972255
-0.029302303483689,-0.0398639545835464,0.00474131574050695,-0.0136829151168489
-0.0214322603403711,0.00476638247165303,-0.0115872800632234,-0.00632569736523263
0.0623273966760417,0.0414632188326011,-0.00737561731668062,0.00138708622040573
0.16954082683523,0.0521766250439715,0.00835394845944769,0.00792231508534592
0.199896521128728,0.0487979454674019,0.015494024414887,0.0138095322873616
0.159159213654092,0.0365220793299696,0.0175854148671165,0.0187811700416199
0.118292217503911,0.0188780880082042,0.0251261781631498,0.021680496887074
0.0940111950359043,0.00100636215623929,0.0342540115199188,0.0199703527230975
0.064324145079453,-0.00992745293284262,0.0432850122730251,0.0117134217811398
0.00461995761679956,-0.00929000627399548,0.0502431175095118,-0.00139962902672651
-0.0857308367301182,0.00147689567884268,0.047036269399392,-0.0142369140132951
-0.173313729919554,0.00973211626573991,0.0306616503581981,-0.0217329303537417
-0.189580330579827,0.0106057733533718,0.00965513820821742,-0.0241252498850771
-0.110601462820967,0.0105537960803328,-0.00502532612257124,-0.0238440342051215
-0.0203780859589584,0.00917384653039319,-0.0116918607247391,-0.0190659867355222
0.0162580817114302,-0.00648637143464945,-0.0154083129396294,-0.00912884765761028
0.037745095874955,-0.0300095068145263,-0.0179491560387745,0.00135676086629159
0.0513217344362781,-0.0434963415451138,-0.0220182873636317,0.00839045557295639
0.00715381804094073,-0.0533974950810992,-0.0277764842583343,0.0116097981872112
-0.0701659578922679,-0.0523117956157778,-0.0290213405419543,0.0121708161938101
-0.0908142415629637,-0.0284740677723382,-0.0207965303195621,0.0109646124842047
-0.0246036316583541,0.00170734002108683,-0.00531526659348303,0.00784232082763669
0.0631258584055309,0.0357703862668963,0.0101321341810174,0.00285840445364376
0.10424706789641,0.0750422516765986,0.0164964195482401,-0.00207491173387559
0.0733134433799921,0.0898264675148437,0.00935334057322387,-0.00499976823371432
-0.0395256124505366,0.0544343399218117,-0.00762619541110037,-0.00659205145215695
-0.162376822642549,-0.0181447570027983,-0.0243627037808299,-0.00839927096735048
-0.179385196989268,-0.0706170132261363,-0.0167728177957233,-0.00813365566322314
-0.0889581525813416,-0.0590498976400645,0.0148785126429779,-0.00258090696083098
0.00410677520151873,-0.0204066219908542,0.031266338932853,0.00417318417663887
0.00207058200292971,-0.000552130111713692,0.0196929863304361,0.00481497916498991
-0.0517578851844463,0.0072956902855485,0.00340652603756326,-0.000576186204193863
-0.028743552027074,0.00473560864844784,-0.00383759623204323,-0.00461037228994247
0.0596438943338468,-0.00718780582534215,-0.00369792072099637,-0.00144910822549173
0.0861673419182508,-0.00745687596895509,0.000169592240729127,0.00636045355073306
0.0159853160729147,0.00575231581142131,0.0057951359830672,0.0115820701990647
-0.0786785189355421,-0.000342813674858415,0.0110189889641275,0.0109426497008971
-0.130572335356831,-0.0454719501833512,0.00951895924232469,0.00638118417609073
-0.125396466191458,-0.091521174263053,-0.00617239421961212,0.00151124930840977
-0.110811634992176,-0.0715292787543331,-0.0204401894260661,-0.00260734190630004
-0.139952323858201,0.014948614498482,-0.0145853528943606,-0.0105324141556327
-0.180525596079963,0.0697289640982114,-0.00796108655679833,-0.0218985349464015
-0.142803625535836,0.0381880949022439,-0.0178768362020697,-0.0250005600487339
-0.0288192671320733,-0.0216168383132042,-0.0262931412449799,-0.0138570056983718
0.0570534023287601,-0.0383870219762308,-0.0162476725112152,0.00388392096288884
0.0693714563838141,0.00185419375211831,0.00458348445609282,0.01840385506744
0.0450894378729061,0.04680083511844,0.0225880492039739,0.0247142189638943
0.0278983169571123,0.0442378703847016,0.0285671149918373,0.0227502419371494
0.0358214030723598,0.00801286404741795,0.0191893002834278,0.0161394173106484
0.0580657430320509,-0.0238506808040526,0.00242761157002981,0.00943929791478455
0.0888745974759682,-0.0270623906047937,-0.00998169843815609,0.00523927270200788
0.104493121296719,-0.00191125269087429,0.000283700728020679,0.00311862481647353
0.0768640323351093,0.0223901974444367,0.0301282152664033,0.000860407380824673
0.0164221689810474,0.0209065692153725,0.0327042482206098,-0.00255169130183747
-0.0776222523662596,8.62162255769981e-05,-0.00163052705073326,-0.00471012738278115
-0.175976880225193,-0.00971640066953668,-0.0270424230443273,-0.00294587997310845
-0.19432649268443,0.00211849506262489,-0.0262086018312766,0.000705276767841017
-0.129961685748987,0.0118324717530403,-0.0185258145064078,0.0027857468345399
-0.0563001881597953,0.00793413650910502,-0.0156625820845435,0.00319557893289049
0.0145153379236561,0.00596126669849112,-0.0117165383777497,0.00216010651947336
0.0926321807404112,0.0149121719012033,-0.00162321357873804,-0.00282025644223667
0.12111021771355,0.0238760765313043,0.00494829640592469,-0.0142958562995757
0.0758739053863256,0.020502807921157,-0.00186467405873383,-0.0282075509587742
0.017017984405918,0.00906459153271875,-0.0125425642501523,-0.032921592190221
-0.0317547381770491,0.00598457236683446,-0.00964425204879698,-0.0216410262815107
-0.0912797480173982,0.00440388895645809,0.00684250620889101,-0.00178292104058995
-0.118607139402953,-0.0108497344210215,0.0161914442212314,0.0140067625519332
-0.0479553601231009,-0.0209737788708726,0.0050312119300347,0.0205953679431079
0.0837978078953094,-0.0223872383361904,-0.0152544958895381,0.0206215440384258
0.167267303319144,-0.0301694080589758,-0.0282925781543639,0.0186136493370778
0.145127822618468,-0.0389454658218934,-0.0274476171480028,0.016702230428816
0.0553895059124433,-0.0308204657717214,-0.0162882651314812,0.0133243965822925
-0.0224613934408985,0.00300391939395327,-0.00718924683640662,0.00696560707514781
-0.0275685011392751,0.0176590254686929,-0.00627524541943838,0.000287167174444746
0.0404392543476497,0.00808171577023817,0.000453309540182679,-0.00234249923580752
0.0928951519038723,0.0287867052671386,0.0174259246280498,-0.00142206787341275
0.0393798467356848,0.0545815928733067,0.0265595465348604,-0.00185819691540947
-0.077535579052521,0.0546750315678582,0.0246330542583267,-0.00606248455678113
-0.131603929681108,0.0510938309954568,0.0186450583251337,-0.0124154168327263
-0.0908490108082861,0.0460010490851971,0.0109411857061093,-0.0179013669536688
-0.0245972127478766,0.0313102503972133,0.00500180795194739,-0.0192573183122849
0.0163615882884536,0.0219834113493213,0.00905305928592693,-0.014892498260781
0.00294275307257055,0.0186315922092917,0.0245766397500472,-0.00821634882536272
-0.0490134163238383,-0.0114461167488898,0.0290034512799979,-0.00483001564794538
-0.0544730543017196,-0.0414080135918292,0.0187034360755291,-0.00415012559869194
0.00661799365283769,-0.0277551859711206,0.0164702244276908,-0.00134405698554309
0.0599853858437015,-0.0195149782604031,0.0146716796421592,0.00394484312043674
0.0657706218318522,-0.0452855835847951,-0.00597022031628566,0.00841216350129807
0.042610974626025,-0.0510880325966271,-0.029375946100899,0.00986803485254531
0.0223416885367823,-0.0153551304056035,-0.0333405420634939,0.00794392612376396
0.0191425303104361,0.0191227703476127,-0.0251169165751054,0.00388947064308996
0.0187509485646689,0.0179276999081377,-0.0206949432861064,0.000221729048277376
0.0184327686342708,-0.00703207862368204,-0.0223698197934904,-0.00115299444460095
0.026631607904924,-0.0243286234743268,-0.022143942935002,-0.000387104670886847
0.039341924852032,-0.0166119455142836,-0.0153937133278717,0.00110186300067055
0.0501210594153236,0.00930869664048605,-0.00118054443663469,0.00185115328653848
0.0422792955051115,0.0426188796228701,0.0195269377209683,0.00127191338890674
0.00962723626659303,0.06578965636867,0.0325412969884219,-0.000339912866011065
-0.00503620744825406,0.0595316101408609,0.0289522594213361,-0.00227346595219819
0.0255765952871808,0.0390833653860868,0.0260878376394343,-0.00317477322500439
0.0623277839491917,0.00931995206925001,0.0341826891501373,-0.00233039678023093
0.0734577994201113,-0.026753074242022,0.0380389982165059,-0.000513204949618568
0.06737395244294,-0.0397972797756796,0.0341741276630769,0.00153622140002907
0.0288043569000571,-0.0313519085715749,0.0349356335941327,0.00294495402749263
-0.0496554525228152,-0.0199535209712922,0.0348788697704343,0.0017768394924612
-0.0851143748003893,0.00229827708511279,0.0264394326519475,-0.00238659819605593
-0.0398900629012698,0.0362027269949667,0.0169118174249076,-0.00632599944826943
-0.00421712767853428,0.0442955097657717,0.00591346077874219,-0.00634011401999371
-0.0289297279938964,0.0174856352390597,-0.00531191704930038,-0.00242645751779509
-0.0624506580025388,-0.00723351447570516,-0.00925535424793896,0.00236578426520604
-0.0689706154065352,-0.0128980244030178,-0.00997669485907991,0.00561752239392347
-0.0658928037547581,-0.00931034193945494,-0.0139034941005356,0.00699727200034681
-0.0546058834370601,-0.00486766015997331,-0.0183424064180289,0.0072900832194198
-0.0351522429165557,-0.00183261827222941,-0.017760775063093,0.00736625879517241
-0.0257847817818378,0.00114622050338789,-0.0126373411830981,0.00744894677665142
-0.0235774702199822,0.000461620102125808,-0.00911358291238454,0.00711668394948627
-0.0173981901265395,-0.0133393891513085,-0.00914058757453299,0.00610526415853841
-0.0152013686056241,-0.0335519046393084,-0.00818400842067904,0.00462574026898243
-0.0200646393218286,-0.0383316941932536,-0.00430707963485701,0.00275396943905131
-0.0128624660259036,-0.020370337888531,0.000433958827466423,-0.00051047821529371
0.00530187484608088,0.000158459346472344,0.00260565704159053,-0.00550162071570928
0.012279709996088,0.0143854976804148,0.000732870287683832,-0.0100324271585182
0.0168523533104357,0.0302288338554695,-0.00200078357747226,-0.011479768619989
0.0302200931449016,0.0315306475291166,-0.00447791149961486,-0.00834328108076779
0.0331631501581141,0.00889856455109207,-0.00766880250369973,-0.000832595115520911
0.0211654209004137,-0.015236880357635,-0.0106443078870742,0.00796382970573364
0.0152337918667836,-0.0279677021590887,-0.0136993481080031,0.0136077427143525
0.0171360452291591,-0.0340362439166106,-0.0174638752317071,0.0141573740816638
0.0106187245225743,-0.0370471686146884,-0.0198239509165037,0.0116220035792159
-0.00208643553519083,-0.0357538534820502,-0.0147732761030615,0.00936105048401466
-0.0111121084683789,-0.0261675797116721,-0.00644460063712254,0.00840900751191259
-0.0272274374640359,-0.0142192273895324,-0.00875550344750614,0.00671021209145795
-0.0622555685210808,-0.0100948842086886,-0.0206515234158514,0.00292699960194197
-0.081324005723079,-0.00967635377361921,-0.0291075739175919,-0.00102344802764835
-0.0594858899713362,-0.00309804379055431,-0.0265059203764948,-0.00386580883658887
-0.0428328439185629,-0.00132211889185103,-0.0216328607455615,-0.00900880018648301
-0.0441396632214219,-0.0261347312219854,-0.0306137052385113,-0.0182742103055582
-0.0480450059039555,-0.0670737406486365,-0.0493720457767779,-0.0231708742348857
-0.0759577225176148,-0.0959841289519316,-0.0625076165623154,-0.014358612448155
-0.0907718507817718,-0.0942348318622089,-0.0627577922660964,0.00404775991082977
-0.0253724739137795,-0.0634279588523421,-0.0466606669786213,0.0185611385930592
0.105843969686022,-0.019372210030899,-0.0192431673722641,0.0187893357209259
0.235175274197396,0.0199463736988204,0.00413743209419046,0.00563723644638846
0.282250319171898,0.0377994979138913,0.0177682777297086,-0.0103307770353948
0.194558704187543,0.0368834640787029,0.0219372542210367,-0.0202309023968097
-0.00609979360922053,0.0187319999819614,0.00829387319570092,-0.0219024953041343
-0.234048687198742,-0.0271876816087024,-0.0216836735358025,-0.0154866833514822
-0.377994939265569,-0.0962798000169738,-0.0527560849898955,-0.00252087367157971
-0.388537691929286,-0.155748876071789,-0.0728357993949804,0.0118710408651393
-0.282964746375731,-0.184025434574263,-0.0797726845550991,0.0213173659072848
-0.0882391686314393,-0.141443351077364,-0.0666985119983963,0.0234300685585732
0.105227569575756,0.026316501791662,-0.0270076159821686,0.0194164436887598
0.203219745128089,0.221425881207914,0.0185998562337743,0.00981305298350879
0.241708486033188,0.262994965119639,0.037535348267292,-0.00342808574757347
0.253053345785062,0.15277560698477,0.024629153776262,-0.0141942633357291
0.174360906633389,0.0393336093142376,0.00659772395274822,-0.0182627195387208
0.0465816689134373,-0.00484079424950187,0.00452122162686718,-0.0178497857627499
0.00809547470576494,-0.00437047433344442,0.0131546005119566,-0.0172341512557294
0.0579709663001081,-0.00846143708266923,0.0175367778128344,-0.0171346255532131
0.0775368338568391,-0.0597682053408636,0.00801335094757097,-0.0141336344981698
0.0176574093906016,-0.12334300584754,-0.00912360396694493,-0.00644422743966448
-0.0633221059707174,-0.125907901031356,-0.0128319918296763,0.00174056862483887
-0.0917127343533124,-0.0773735944896365,-0.000301889535933436,0.00482938912888082
-0.0644286322542953,-0.0316246310555498,0.0120514287010571,0.00268700604278725
-0.0202557219514273,0.00268325610336715,0.0171406618251016,9.26514620278162e-05
0.0277075175492712,0.054892616751681,0.0216281516509443,0.000346667061289725
0.0777235721011815,0.110130834896221,0.0258516703791201,0.0018346683623127
0.106719445282711,0.100389862842567,0.0119546004055125,0.00176647671620419
0.0873875733431556,0.0340145851975043,-0.017260705623581,0.00102389980823073
0.0369357076629365,-0.0137748763482098,-0.0344895265534223,0.0015750541566762
-0.0337234975752602,-0.0289419390504265,-0.0355657918318779,0.00270616107017433
-0.164945376309322,-0.0385527452589818,-0.0401605073137174,0.00287113154026584
-0.27701250488381,-0.0372044727659089,-0.0558024203245895,0.00167658782384751
-0.220564473939912,-0.00773647882641974,-0.0694918956998223,-5.91924878192429e-05
-0.0396709498452158,0.0334546295938892,-0.0662753279802678,-0.00148347438385012
0.147019769878393,0.0572325284789758,-0.0474209493492539,-0.00323692474471363
0.291081101191854,0.0604495505952357,-0.0243525962078568,-0.00482662455619241
0.342181638301994,0.0521419233873108,0.00214332390735231,-0.00307757595531909
0.28579484273793,0.0388629526291418,0.032820496759363,0.00201460250478324
0.157673133414737,0.0425655455045029,0.0617131900389163,0.00571433269325741
-0.0158784832124518,0.0579587397120335,0.0706568857693398,0.00494340688064294
-0.157688983045218,0.058620894643188,0.0517836443619035,0.00132141169696783
-0.16412309337559,0.0538134320743549,0.0432189461650048,-0.00132092217103479
-0.087342076357766,0.0285928484772634,0.0634279659129734,-0.00149559177650142
-0.0340263405699538,-0.0216819042177746,0.0713662054974457,-0.00143052730593957
-0.00920663759435385,-0.0497495499430285,0.047484992075111,-0.00196085875192697
0.000509770342565496,-0.0481582141782609,0.0195436490093721,-0.000649372743216306
0.0277384729109584,-0.037323545182887,0.00257128655253754,0.0038688909227154
0.0946767165843333,-0.0215766637385745,-0.010197371642459,0.0101485104295564
0.150627905707556,0.00519435961915844,-0.0140294169584975,0.0148146028805002
0.139438513701002,0.0470146414954999,-0.00587038315133138,0.014039739072828
0.0527677527820852,0.0713071859934022,-0.00208773527938379,0.0074836178834154
-0.0863149931034766,0.0439081864683579,-0.00942700490599566,-3.5581255789353e-05
-0.206864795021509,-0.00501702901767485,-0.01743252168314,-0.00393179370852894
-0.212528903961526,-0.0305688401992882,-0.0218138382158117,-0.00422955963941259
-0.119417619192645,-0.0335899907883302,-0.022227249726622,-0.00303739088518942
-0.0248556572805296,-0.0310999878249489,-0.0154762511429935,-0.00138464147082885
0.0357767691310489,-0.0366350143695849,-0.00363457931206648,0.00030777361333186
0.0800441096451872,-0.0498699362853897,0.00653663484590506,0.00123970930816609
0.107367884588121,-0.0359898279981517,0.0170198971808637,0.00116740546915433
0.0756859174368914,0.0217833489193233,0.0300263707943193,0.000463162865074079
-0.0066333727571676,0.0698051946836655,0.0345636338859514,-0.000630905819258189
-0.0616686960221006,0.0589118129106021,0.0283714127119629,-0.001026498308435
-0.0686013476772694,0.0231641766176665,0.0243395826773472,0.000769268990838271
-0.0476433104753146,0.0146200001101278,0.0311386893554126,0.00388218051974803
-0.0150348573707572,0.0231317125025341,0.0429657536840263,0.00625742130028053
0.00881438262413352,0.0152902452826636,0.0481323553706238,0.00794844586311234
0.0191329516105624,-0.00686788760133717,0.0476031392710996,0.00940352910606278
0.011407769352788,-0.0214803207168571,0.044545322326316,0.00955626122812814
-0.0122941787720206,-0.0202492148183044,0.0380666950949735,0.0078656596374508
-0.0259669766027548,-0.01625623852467,0.0302250048024211,0.00454123445190539
-0.0185652247557984,-0.0241583239369367,0.0218642849480023,-0.00104276197341352
-0.017746724109318,-0.0284931010187598,0.0140960637416345,-0.0092864309577979
-0.0493100152530841,-0.00572605687512991,0.00584795249844491,-0.018110074273023
-0.0987986327729564,0.0316356151039868,-0.00132155976301098,-0.0229590303254871
-0.104899838316199,0.0370236682918087,-0.000211315518384922,-0.0206456761207853
-0.034254168947575,-0.0046786608657691,0.00704765244180038,-0.0120555410605723
0.0676575591990092,-0.0462714491850561,0.0116049778214081,-0.000945263821317835
0.167923117920389,-0.0376468540610717,0.0194741409368852,0.00739042601528184
0.230394284470967,0.000727854046665706,0.0316008991594353,0.00884434067069179
0.19835955166644,0.00282065829876952,0.0252118800435955,0.00523953114562948
0.0810797407328273,-0.02579417432795,0.00198554568451398,0.0020888588105882
-0.100718820918597,-0.0462598023911781,-0.015715800392611,0.000310903800091722
-0.24912360052211,-0.0531422397272533,-0.0264168206990323,-0.00214946031687699
-0.209490751350739,-0.032670697908611,-0.0272892471975114,-0.00334942841023119
-0.0732883614170643,0.00770461849018879,-0.0183163032774649,-0.00029005454441633
-0.0137581935860466,0.0361910087515699,-0.00985824870029706,0.00520813983180336
0.0133243968544892,0.0561052292944044,0.000520537373420733,0.0089334223682683
0.0472923583070975,0.0617903170723683,0.00782009769490366,0.0094386346765745
0.0456137634933728,0.0296681911826659,0.00257406101897449,0.00771536032355752
0.0311064876073023,-0.0028408171092616,-0.00153336456913632,0.00465398015749699
0.0203474639256685,-0.000414550396991849,0.00480675842408596,0.00110895413785198
0.00898707542910125,0.0124083954687789,0.0119625838615195,-0.00198389936234722
0.0194674391213033,0.0131454344391927,0.0178379000607213,-0.00494665118741669
0.0364772270085321,0.00974996610482488,0.0221264822224063,-0.00908978044257082
0.0310611090747734,0.00903146242096352,0.0138951390274348,-0.0150911840834132
0.0178311078372107,-0.00375572234652393,-0.00769321476384253,-0.0212275187061522
0.00515083745265176,-0.0276129018698509,-0.0289043542283435,-0.0231242142388266
-0.002644717119855,-0.0392378766961909,-0.0365754132076029,-0.0177148832726995
0.00565472081861679,-0.0367275913529376,-0.0302516682867623,-0.00730769736328867
0.0102294016150548,-0.0339967399185005,-0.0241936955274636,0.00275059584482256
-0.00348218846620315,-0.0298568267708285,-0.0267290397086717,0.00910843040259517
-0.0157190351157128,-0.0160821532877594,-0.03213744657067,0.0112376290167647
-0.0169050634364774,0.0154409422923604,-0.0293018323628301,0.0101858565935163
-0.0134185382339723,0.0567482313652661,-0.0086007489178382,0.00744825035319364
-0.0103253477660051,0.0690949395100936,0.0218106404769658,0.00460212441460447
