-0.0516654303642254,0.0112745821748801,-0.0215818057581524,0.00377361625180339
-0.0416138495621262,0.00798053601222358,-0.0178584317156982,0.00606498242787931
-0.0436155052787675,0.0104211757855613,-0.0143464089990709,0.00704791717448923
-0.0459772720551054,0.0142135290193183,-0.0169068371891037,0.00599731493721586
-0.0368956308219345,0.0136442338442274,-0.0228052836741192,0.00275898638662219
-0.0356079291447532,0.0105383005944026,-0.0243505340556735,-0.00194496691037309
-0.0525419319627395,0.0105420004773133,-0.0215971570678003,-0.00694374722149965
-0.0562468963502779,0.0149322966744786,-0.0228955754218087,-0.0109326363591255
-0.0371459497115116,0.0211100733573121,-0.0251544128818095,-0.0125330534737975
-0.0235276576238949,0.0275023262109295,-0.0202567996792956,-0.0108366155691037
-0.0263681833625764,0.0269679776931629,-0.019460441526766,-0.00523219999535378
-0.0366709059884337,0.017570860338081,-0.0328440282855598,0.00425432617136607
-0.0348904380728917,-5.96545243954152e-05,-0.0509484896488636,0.0154249129434662
-0.00562867664470411,-0.0124094172469257,-0.0603642085257812,0.0245980855882886
0.0181178411670798,0.00653656775026528,-0.051534437064108,0.0284596316654443
0.00132778275839649,0.0436640334649412,-0.0285387474856228,0.0253397079731614
-0.0394671294018003,0.0815001227962443,0.00156659279532945,0.0170294500991951
-0.0818638037624602,0.139985584302678,0.0460078358594664,0.00721646846792475
-0.113782406431997,0.219810116166806,0.096463857602765,-0.00241036843745548
-0.128312271144242,0.264424290714214,0.126021892397693,-0.0128246474305659
-0.129343054153761,0.235297450069771,0.126921446322662,-0.0260402397065351
-0.111790490666532,0.174571468554128,0.115199207748754,-0.0412462469808661
-0.0688709334252255,0.125131068880234,0.104229252786225,-0.0513836262168522
-0.0274453364566546,0.0849955864319228,0.0897124988521381,-0.0488353152656614
-0.00488112551666109,0.0510855305715369,0.0675633204773565,-0.0351940067919973
0.0322512148922694,0.0234294542148544,0.0415758761789405,-0.0185749303813392
0.0892764057823511,0.00032131858081072,0.0162410047971435,-0.00345009114079802
0.113166199604165,-0.00499978823540062,0.0036447396342153,0.0107150825450378
0.10336164069673,0.00214320058813154,0.00582940049577502,0.0239720490473438
0.101076103406448,-0.030180370964885,0.00544018214519708,0.0339113388943561
0.0778430255541815,-0.11976751152458,-0.0031144895522851,0.0383410702585133
0.0236493208878309,-0.20758496028094,-0.0131955728275168,0.0374780740781235
0.00150114979143928,-0.228488168992699,-0.0201290188412895,0.0339586283293235
0.0210850315464712,-0.149618763288281,-0.0112926897177909,0.0285869881577513
0.0232747719269216,0.0038665496985138,0.020078726422612,0.0176766554625556
-0.0286866884061462,0.140290974024893,0.0584460183772137,-0.000890211802655611
-0.0888430047749779,0.188905064112576,0.086969541712678,-0.023090954184355
-0.096427067468314,0.166749194290604,0.100456590652874,-0.0422774801144912
-0.0862930703949285,0.123249559377187,0.0998251617328509,-0.0524314180198107
-0.0896944402098671,0.0785849819094785,0.0874872044528003,-0.0491117084761954
-0.0402522835099704,0.0311519669540307,0.0654588148339528,-0.0336078362060171
0.0481358960977372,-0.0054243036716293,0.0455852722640473,-0.0137342951820322
0.0819121668025257,0.00165881994114923,0.0448722269695676,0.00240492911965691
0.0744713088581667,0.0273509684770016,0.0598357624830346,0.0106554938961729
0.0566697905100681,0.0223073627760483,0.0752883846285538,0.0118266299170248
0.0256112964854211,0.0142779121554939,0.0893634735592469,0.00980759811255376
-0.0117234126547635,0.0238244102988461,0.0951715749458433,0.00648227815168776
-0.058780831181562,0.0122791786636846,0.0778431714789076,0.002056955717223
-0.111978693999281,-0.023051333691254,0.046226376200059,-0.0012673384917424
-0.158531337677397,-0.0500924197915166,0.0256116873585348,-0.000944119375324787
-0.177658838495261,-0.070121268599311,0.0216886840974043,0.0024903473980058
-0.156733022095758,-0.0957192561627278,0.022214618443175,0.00525965371287844
-0.0965439972865553,-0.113607437142161,0.024258294371595,0.00385113576448802
-0.0132798225608094,-0.111526968357619,0.0205818157519864,-0.000480984635054997
0.0682793903948004,-0.0974779045562052,-0.00822193328523744,-0.00146298437910468
0.151150804893961,-0.0821092652221386,-0.0521040378637571,0.00508337778351019
0.227762553608343,-0.0707120161385007,-0.0753518327234861,0.0155887458831204
0.270065796313694,-0.0658609205675695,-0.0677099216392173,0.0231637874698405
0.291984134372011,-0.0721061118588534,-0.0475620088266325,0.024772457509965
0.313372621652866,-0.0860120450980953,-0.0332467566175367,0.022354137973341
0.301227923157999,-0.0904695236738371,-0.0235170444783763,0.0197025746010184
0.211376421276715,-0.0777450197387195,-0.00887708913787025,0.0186411064949059
0.0622542141350356,-0.053963374733493,0.00238062975924074,0.0171901305018395
-0.0688117722678318,-0.0365621183246375,-0.00337354448430021,0.0127657729362802
-0.12814549228977,-0.03681796487118,-0.0180254964401045,0.00551918794964807
-0.11315201629664,-0.0323622134792545,-0.0272355112988214,-0.00182524360823045
-0.0606048623298323,-0.0131680339793907,-0.0324883817470908,-0.0056990299584009
-0.0291697074353765,-0.00326843755163597,-0.0376730363648351,-0.00467153878722832
-0.0419148788254193,-0.00602050268936766,-0.038925508999524,-0.000587866339235191
-0.0721940134510494,-0.0125489025775652,-0.0340731158110464,0.00395295693374465
-0.0783974651660304,-0.0256696633628012,-0.0276262475151318,0.00763579242723929
-0.046262206455194,-0.037365391306342,-0.0256309822013345,0.0102163285409531
-0.0020785195096462,-0.0321780288786839,-0.0301523592036208,0.011773501915705
0.0229406604364597,-0.0112499012849856,-0.0398923030585832,0.0123273964028324
0.0258113949677042,-9.15760402732391e-06,-0.0507656055587349,0.0122720700441039
0.029219491865514,-0.0104227281976562,-0.0539313334168223,0.0119568068970369
0.0471719156364883,-0.0173198092252349,-0.0491334883625102,0.0109622586414438
0.0705525915011442,-0.0132460776731524,-0.043850362879064,0.00910687490265396
0.086632959646694,-0.0144297426509384,-0.039668095075781,0.00685881633560292
0.0937442300193167,-0.0183241565215999,-0.0365007121129305,0.00499265002725634
0.0959435386652212,-0.0210905560283359,-0.0353066020856696,0.00404882502195858
0.0993861084585433,-0.0245126991351663,-0.0348993645391825,0.00359259582229141
0.108290674105761,-0.0252237869700905,-0.0332822349135548,0.00270729514663311
0.109884276103874,-0.0236747867608419,-0.0310909795265206,0.00111193248122669
0.0894094201963867,-0.0176440542437569,-0.028447759454164,-0.000426914553489565
0.0538172460753392,0.000361629156085983,-0.0224261062436167,-0.00143218560442125
0.0238090997631777,0.0292748727905534,-0.0133464138944664,-0.0028242767829402
0.0122307169447276,0.0508857468598263,-0.00787711508189469,-0.00550608078774506
0.00551326724926359,0.0498639059341068,-0.00935543021198189,-0.00877449213924661
-0.0187746148773196,0.0406629158271279,-0.0119778340582087,-0.0111204795208904
-0.0466874207478833,0.0381942930941619,-0.0122555180189962,-0.0121965925257372
-0.050961134378185,0.028978501532737,-0.0134271524440171,-0.0129429543627491
-0.0378099207908674,0.00944317976700626,-0.0156747032856291,-0.0137446612145421
-0.0211310407285876,-0.00169746570297714,-0.0194978486598365,-0.0137284342632518
-0.00810818630372682,-0.000800296878457861,-0.0282187420472633,-0.0123969725620537
-0.00973811045969435,0.00128637316554016,-0.037191027099427,-0.0101931037932397
-0.0268642177830479,-0.006997628104735,-0.0390382127336643,-0.00743999676720381
-0.0432225579602198,-0.0248293102204815,-0.0329355133735539,-0.00482362940672343
-0.0448819357048231,-0.0341587423317093,-0.0187421847714773,-0.00364919087846784
-0.0353900664798076,-0.0195696443820469,0.00284957190660625,-0.00451112540496119
-0.0264072929948215,0.0132696555324028,0.0199090867784908,-0.0068683633067972
-0.0205436836467525,0.039318416092055,0.0180914384378634,-0.009696263004431
-0.0127167699848349,0.0505299885823993,0.000642550482550967,-0.011585858065279
-0.00873152911039324,0.0569830592755562,-0.0152555501707879,-0.0110615518293989
-0.0207986285725771,0.0722676999969186,-0.0176611308813798,-0.00822952284098251
-0.0436761672119967,0.100556282033079,-0.00555045822911251,-0.00545127991629933
-0.0546978672301543,0.111052272959358,0.0127844626103783,-0.0052879550427673
-0.0389812523456012,0.0665029857837641,0.0229385122435509,-0.00784328827066195
-0.00716043715110163,-0.028141347044961,0.0198277655545128,-0.0103974204871933
0.00707147358717613,-0.101164608250774,0.0166040003468999,-0.0103011808725194
-0.0201419067215565,-0.0853821709384676,0.0286358511918299,-0.00797191992761032
-0.0542163268067145,-0.012385119185112,0.0492716677970213,-0.00572041227270419
-0.0543482259838202,0.053097691770237,0.0614731732486026,-0.00511005333512866
-0.0435792526761245,0.0908987002526201,0.0590765608970732,-0.00620621172863541
-0.0408070964919257,0.100360998145372,0.0511652508878171,-0.00756891744746683
-0.034400197725735,0.0963469044267233,0.0538616036388001,-0.00747672198359574
-0.0296289003672037,0.102890074652216,0.0655208829933646,-0.00606990123542032
-0.0319731548372032,0.107532307902251,0.070238265231562,-0.00511907515570159
-0.0396495135716874,0.0784784014900402,0.058636455550631,-0.00550509184985899
-0.0566382947707337,0.0303688418962834,0.0384948985328944,-0.00603886305273544
-0.0612160307415195,-0.00481673964003784,0.0310072516847507,-0.00501122865111372
-0.0274728677695099,-0.0326917539857495,0.0449493276747314,-0.00190167729578775
0.0221241473318093,-0.0480597710429881,0.0652850707870129,0.00286458094470452
0.0617312994411128,-0.0219338595227177,0.0768726910794948,0.00827644507532347
0.0665158936527668,0.0492931133540001,0.07758105462963,0.012587765216232
-0.00998269138588578,0.127675614742023,0.064310554640606,0.0139833566186059
-0.130609624597697,0.157617258651672,0.0405560630141828,0.0121081416972338
-0.188650517911525,0.125270675990079,0.0202516089141868,0.00911838428363561
-0.175231731633199,0.079228947158181,0.0156275329245108,0.00776384306988273
-0.163649201618358,0.0575194626835355,0.0290904633125929,0.00786080986954206
-0.161100514841354,0.0383140693236327,0.0475708764454226,0.00645991828821923
-0.12964627297963,0.00336099220276477,0.0456903088991658,0.00184667768394655
-0.0851118217750167,-0.0265346433271774,0.00631574299150541,-0.00390384254766391
-0.0399156307840542,-0.0325072469395183,-0.0467374355807801,-0.00674359151912185
0.0207333100790547,-0.0350624687832498,-0.07457304646528,-0.00490182468867077
0.0821465486025104,-0.0621525739589833,-0.071480868527918,-0.000186925149976549
0.13885404192188,-0.0914094004030478,-0.0499227389505542,0.00501391857488485
0.159011603043393,-0.0909701881572657,-0.0128544311308305,0.00911713203122875
0.1037706925259,-0.0605273804547383,0.0282503178270933,0.0101499197737829
0.0518247609189126,-0.0240797821007887,0.0477142797262819,0.00715314433168493
0.0565589925341983,-0.00738541104696522,0.0494943347260839,0.00182831198547272
0.0487463091337311,-0.00629196925285003,0.0592883738216479,-0.00280129642182199
0.00832496262717458,-0.00658866627386841,0.0651400497156275,-0.00391691275773538
-0.0026095796238482,-0.00241322014148128,0.0539137415952407,-0.00109829009430168
0.0385610842021129,0.00789931231658353,0.0461272225396768,0.00250043608911528
0.0738010186510296,0.0182445532659841,0.0393963207225715,0.00408926297552688
0.0449561636382555,0.0202432150884639,0.0152681869793243,0.0045769883044148
-0.0158305793529399,0.0149299737735828,-0.0229911501487486,0.00631943948891344
-0.0395869135641409,0.00807533191691483,-0.0601367020711272,0.00991642305693369
-0.0228500978196898,-0.00232990134357901,-0.0845600555092378,0.0137178427189238
-0.00251239665822611,-0.0184604011215701,-0.0879809136643046,0.0154464518053891
0.00338995566502953,-0.032198867026373,-0.065170380559692,0.0139146817189579
-0.0206300267338636,-0.0359071523568119,-0.0349825896742396,0.00969187960085947
-0.0629852407321133,-0.031694694917857,-0.0287723205283683,0.00460851711200785
-0.0699072762789702,-0.030124569835956,-0.0420172965530409,0.000323915013707706
-0.0211299891071356,-0.0414499445043757,-0.0436283082809657,-0.00260283017448906
0.0492223556139249,-0.0592102508471944,-0.0297559648265183,-0.00440522003166872
0.109007429757846,-0.0773253831784778,-0.0215899443666134,-0.00564728192799863
0.14595695317823,-0.0999425450462474,-0.0294238001303694,-0.00628389771336288
0.151977960371838,-0.108531301383621,-0.0451960112048608,-0.0049943199236184
0.139392885769375,-0.0895305363177839,-0.0567501447163273,-0.0012628902601333
0.130498401041946,-0.0640269023304934,-0.0616164187109016,0.00307123648736485
0.131762659015795,-0.040625634657876,-0.0622638635552124,0.00584534554678998
0.138433165119102,-0.0197614469648036,-0.0547392653312036,0.0062337829236175
0.133410885611981,-0.0118817429158281,-0.0345908685135959,0.00465483527392568
0.103645605707441,-0.0103966570009504,-0.00938447389045143,0.00236506102731534
0.0617692627025845,-0.00369012230094756,0.00924864892782364,0.000306655314090874
0.0314460134740298,0.00473821677788812,0.0183755944651767,-0.00105819381745967
0.0234504454251393,0.00772336550056703,0.0196650730853931,-0.00108621799517955
0.0269472662055577,0.00139226140374302,0.0153816399904598,0.000399434541254605
0.0246135194852499,-0.00790619761129153,0.00977648304879286,0.00210664589732678
0.0113737207490518,-0.0112439541169742,0.00461218205568678,0.00228479291514072
-0.000651993526524553,-0.0113874156206208,-0.000371499908776031,0.00103896479116103
0.000972649542091617,-0.0105744630385661,-0.00445090695558163,-0.000438394371787849
0.0109325692443716,-0.00714680552861869,-0.00838774071928465,-0.00248568154604317
0.015219286960803,-0.0014729076181407,-0.012508471548213,-0.00574129105098636
0.00733715866183653,-0.00660354576891908,-0.0116238549064376,-0.00871078465378971
-0.00889909112859263,-0.0190207908786828,0.00254219504522005,-0.00919299840860424
-0.0306805479041244,-0.0020460137418673,0.0265241361898554,-0.00669271038528283
-0.0515209659844512,0.0503744402525165,0.0445655622197786,-0.00317883221938261
-0.0536081611362351,0.0978420250641921,0.0473338797132103,-0.00161694536214293
-0.0426026142606195,0.103032150573681,0.0359668261630172,-0.0028304400883939
-0.0483316434654676,0.0731922223392055,0.0159683958378844,-0.00472536949199099
-0.0700805986560945,0.042893695137328,-0.0070685682776398,-0.00452048578431987
-0.0834889386609843,0.022739745630162,-0.0284169562694426,-0.0013566542469231
-0.0779662490276637,-0.00423580932301442,-0.0412800699642232,0.00301038720876133
-0.0618970105495723,-0.0400702616284677,-0.0476387428913024,0.00622629363301576
-0.0479748908307745,-0.0588695937448736,-0.0546361026630436,0.00717529618289542
-0.0373833295193369,-0.0556702456930849,-0.0560692340291719,0.0060779776049981
-0.0189012286578852,-0.0565897532898342,-0.051100352449064,0.00380185181174367
0.0116113587744142,-0.0624915600142386,-0.050064929607029,0.00210316936709409
0.033795015960226,-0.0441490710022774,-0.0486119590171442,0.00297816631526787
0.0289640487814185,0.0097326080275468,-0.0361894134376835,0.00503502411411895
0.00703360180824287,0.0630839929498063,-0.0151210822956062,0.00430852052680877
-0.0161786172159771,0.0682168940127064,0.00127816338881401,-0.00075812937715926
-0.0423092959333556,0.03001872877275,-0.000197523939246436,-0.00877477112878534
-0.0623987053807359,-0.0267946170308901,-0.0159689251153761,-0.0167676741636079
-0.0617225110865903,-0.0781101046623184,-0.0203232166967198,-0.0209437220310904
-0.0572832257662278,-0.0774671885056542,0.00430905430651341,-0.0188137137321545
-0.0711629949987713,-0.0276139674109561,0.0406526222818781,-0.010769363488762
-0.0910748928916649,0.00364244265891824,0.0609980004180055,-0.000803557962977871
-0.0882657337255401,-0.00765626157095421,0.060118740860972,0.00515624679654851
-0.0587841892793812,-0.0270715241931206,0.0471168788615844,0.00413698450444339
-0.024215771389911,-0.0313045828986372,0.0296031277003177,-0.000863005663164495
-0.000837715922940036,-0.0205856504625966,0.0199610412749565,-0.00315476464882103
0.00736603960528953,0.000153165121894332,0.024761327723977,0.00108087190690784
-0.00534862662925506,0.0183832996976107,0.0327930703946094,0.00946833365535447
-0.0307736659153971,0.0205877930988928,0.0324213776983961,0.0163986625799049
-0.0396849456885515,0.0229099366274002,0.0266888239317277,0.0161204250916958
-0.0278726712027675,0.0377467511219548,0.0198790904871618,0.00670069465828233
-0.0145902356454269,0.0427108430064005,0.00593867221579059,-0.00589462996571002
-0.00130786977083593,0.023255795797336,-0.0126099607954973,-0.0124367914830996
0.00943575082153652,0.0094233880474557,-0.0224360964809954,-0.0104971413887257
0.00445941674723244,0.0371514371460164,-0.0207203436927667,-0.00611094097385602
-0.00654592494030761,0.0715461310585182,-0.0126366701296714,-0.00530968171198074
-0.00136030352018076,0.0481493132531531,-0.0045906044011151,-0.00714645360999022
0.0326987320172638,-0.0316356767083756,-0.00115626555726375,-0.00663432962324205
0.0819028424873091,-0.101762656176556,0.00297742111043554,-0.00243896629187563
0.0973476628495565,-0.110262903338582,0.0125244210221626,0.00157255363977993
0.067798121986728,-0.0661310404272731,0.0274848471787327,0.00168577620439009
0.0422382753295205,-0.000164084496901751,0.048658490338382,-0.00211404309872086
0.0329362747205251,0.0542588208808676,0.0670308276460743,-0.00794086635842782
0.0132256028439593,0.0660473899813765,0.0696160473970917,-0.0129485126006996
-0.0171866587927055,0.0365232332279732,0.0564353665120918,-0.013462096201866
-0.0454168697252989,0.000927711000602391,0.0368745437702423,-0.00894707845293036
-0.0645167486814886,-0.0143738454950228,0.0200342485979099,-0.00214162074386122
-0.085086644683519,-0.0190756262994647,0.0149074938111493,0.00568450147946531
-0.122725135572695,-0.0150975685564185,0.0230832479284636,0.0131377260796685
-0.157723190546649,0.0167631753823725,0.0321840786761179,0.0157139952527568
-0.14823966174147,0.0593422821502869,0.0386615157432371,0.0101542323498911
-0.0883725619629411,0.0604072660956997,0.0467168385628698,-0.000337839999206328
-0.0116759224441295,0.0189577949671743,0.0526890352208628,-0.0080954629741118
0.0557065293155749,-0.00363632965037303,0.0616224524589751,-0.00981638502130108
0.106401340889764,0.0227447899520357,0.0796712026402224,-0.00921434367897089
0.137725633444656,0.0629097370968633,0.090800602387133,-0.00962221417394045
0.134538777059849,0.0715550552499306,0.0822724100678349,-0.0110030130375938
0.0818021150949221,0.0539071607840959,0.0610111000809125,-0.0139492662328471
-0.0126677299806549,0.0454644255209593,0.0343400331159226,-0.0190368249959362
-0.107485761834431,0.0485809237390069,0.012524348082905,-0.0227975803498466
-0.13333800730033,0.0392975655904504,-0.0042658043404455,-0.0212750352072108
-0.0799623444564193,0.0129609015196926,-0.0272880264680162,-0.0146494402514543
-0.0137235110485749,-0.0117584222555249,-0.0474656728537645,-0.00547115725091658
0.0289684792452363,-0.0319742376797193,-0.0533261557450847,0.00351503176647497
0.0700176676216013,-0.0530915766891593,-0.0578342544519667,0.0119388857390454
0.112506935175695,-0.0444992304873509,-0.0723830530990258,0.0220974539562984
0.120371084466292,0.0172345390899736,-0.0850268025388897,0.032586739118083
0.084311816167302,0.0809253722800115,-0.0808211944249053,0.0371589675695022
0.0449958968697493,0.0778636572162584,-0.0597056547444041,0.0336739472361372
0.00696848516288648,0.0219242541794022,-0.0274832578489447,0.0265759511049148
-0.0575851413339711,-0.0220441609618937,0.0103298889317746,0.0190492031609497
-0.0751568771798044,-0.0373928630826233,0.0370659196080809,0.0101177428080275
0.00277807936076131,-0.0397911106204747,0.0400065288289088,-0.000898753495506242
0.069626367806765,-0.0320139604801243,0.0261079463871372,-0.0120245825246039
0.0566952342696301,-0.0167154990762883,-0.000724566612254169,-0.0195585159357635
0.0207650584195228,-0.00281881705617506,-0.0304611126072417,-0.0198425070656788
0.00596473776629898,-0.00162287049442148,-0.0392814111185858,-0.0123604888748088
-0.00120073306816997,-0.0124261200902306,-0.0283122297191884,-0.00164750116209825
-0.00261131294659577,-0.0216601392593537,-0.0211287979734527,0.00599578233037432
-6.22171895819298e-05,-0.0274604252511411,-0.0250298210055349,0.0082383279589974
-0.0285183840717034,-0.0361061779363986,-0.0260448876189752,0.00712415437064935
-0.0790935554201945,-0.0435386392732862,-0.0188897132070286,0.00576516410510365
-0.0823623363289094,-0.0511219200409818,-0.0173518457466607,0.00673869984245066
-0.0320501521809381,-0.0720251965365488,-0.0287989183536266,0.0104802711550973
0.0228487226551047,-0.103488569026209,-0.0448548081014588,0.0151474261520355
0.0802654362760596,-0.109950218916625,-0.0518051418550235,0.018526494616894
0.135058289075745,-0.069084723582625,-0.0450179106941672,0.0188418121314517
0.140989722282573,-0.016209092298317,-0.0333966062013548,0.0158154546304123
0.093650760764561,0.00588422245233727,-0.0230599551516795,0.0112677662336299
0.0386534246517176,0.00529158427647509,-0.0161740455407788,0.00741607015854409
0.00583626502144516,0.011083146643482,-0.019091679738672,0.00534141110985513
0.00357892636799973,0.0216707108025677,-0.0312855829340432,0.00524127737972718
0.0236824872079876,0.0215644491962704,-0.0422768557571013,0.00699435431725652
0.0467559132674215,0.00430819903363713,-0.0462466988519956,0.00947083888142796
0.0595105618207239,-0.0282578365596185,-0.0471691344176206,0.0104711752403642
0.0417917281098077,-0.0489956073994341,-0.0470860352005214,0.00851149236570619
-0.000180100492413807,-0.0360886885176503,-0.0512993950057768,0.00405509081800105
-0.0333312156398227,-0.0151735604804812,-0.0671745642310921,-0.000929644525291825
-0.0485366661176621,-0.015650440462658,-0.0835341120507844,-0.00444418505852859
-0.0424459582414533,-0.0248261871852493,-0.0856685582037006,-0.00576293661859331
-0.0101063144911659,-0.0204745330248814,-0.0722012405609947,-0.00550404751263898
0.0324789376166522,0.00182978808337873,-0.0513798878159872,-0.00517844348195301
0.0581067312869603,0.033998792533888,-0.0364711040602267,-0.00551079254544504
0.0527335905449992,0.0616347483846278,-0.029068975589656,-0.00529285032815493
0.0218056151958176,0.0815241104218312,-0.0159547508962804,-0.00368714440479411
-0.0152703772453881,0.0926944909263036,0.00661527772823392,-0.00177745459446985
-0.0409753132081953,0.0850850657028404,0.0246713606827499,-0.000841308249584572
-0.0534729902059591,0.0564125754342945,0.0302802013452834,-0.00113681730352092
-0.0583391574192566,0.0192589366654762,0.032149855249189,-0.00239606036628955
-0.0592224556115899,-0.0107474825912288,0.0351719735374663,-0.00411858258699944
-0.0547489248526074,-0.0387423247393368,0.0277159431395927,-0.00555885013563908
-0.0510396520644056,-0.0908421440724208,0.00648265627510451,-0.00589908807638322
-0.0512696870591604,-0.157474811366716,-0.0105680165489084,-0.00550107274530616
-0.0356873266799888,-0.190411749015189,-0.0147819740346101,-0.00609639586180435
0.00571645888839695,-0.172033573471288,-0.0158648324766227,-0.00870471930094496
0.0458473589040812,-0.110500338270704,-0.0236923229696266,-0.0122924480397895
0.0507820539231142,-0.0162536053647497,-0.0352944166065086,-0.0142719934061453
0.0260848584806443,0.069255701610901,-0.0388457898627368,-0.0133101179529152
0.0081264280643854,0.10116370209183,-0.0309810324361166,-0.0107319939188536
0.00808659393328299,0.0910210359062083,-0.0199840007066077,-0.00709469918645427
0.0200482787171718,0.0923692685862743,-0.0151221748544203,-0.000963715522505097
0.0414338558038511,0.136409264190429,-0.0152554004004275,0.00672644669439811
0.0446073741624905,0.185836113197799,-0.0151689635017095,0.0118567050789464
0.0130512433590379,0.182069603976656,-0.0161373484804926,0.0115462527004581
-0.0161979366046556,0.124610529442187,-0.019473865815343,0.00636572795115527
-0.0143835673213578,0.06501797153341,-0.0181069520615081,-0.0011632329348716
-0.00551308140906486,0.0308222233361927,-0.00668130171566177,-0.00912974385896874
-0.0031604590995036,-0.00140811220337748,0.00843827751373722,-0.016235840421923
0.00556450184587314,-0.0362180524335042,0.0207473746923483,-0.0208280478086133
0.00982556633520846,-0.0612510396671718,0.0274673878053076,-0.0228253919443351
-0.0135520779564935,-0.0882040102557775,0.0263818090191603,-0.0231917627846775
-0.0543565172893109,-0.104669565807035,0.0191732687595857,-0.0215461387497793
-0.0629839357260956,-0.083371051972708,0.0163558350367292,-0.017322330818956
-0.0237165686630751,-0.0457063998198946,0.0269174969392224,-0.0112351845123112
0.00507486962104881,-0.0242456252677816,0.0476902478856976,-0.00497805098940508
-0.0214423005159489,-0.0128367003995502,0.0723261400923448,0.00018000597293311
-0.072886977588497,-0.0102642172233361,0.0844662698810461,0.00413449865404283
-0.105450821699874,-0.0264682110583049,0.0734785006359863,0.00721232752285347
-0.120543704615392,-0.0347459833316553,0.0571365760470221,0.00922011115228441
-0.124768851715424,-0.00585246761929241,0.048695613347523,0.00994638068677992
-0.100976337575295,0.0467044942502291,0.0386100920281508,0.0107859093168244
-0.0500998384690188,0.0864119089975244,0.0184677217045488,0.0130845668018919
-0.000103469120025734,0.0819173659009056,-0.00142647933885295,0.015077899448114
0.0293718528186816,0.058377844712737,-0.00215364684427733,0.0137103329453994
0.0259329714794542,0.0679295825968341,0.0161308822156406,0.00775221690154104
-0.0051997165218519,0.0867956484368516,0.0321150170900119,-0.00175078253580354
-0.0206460114181838,0.0749268554971178,0.0337024774269565,-0.0114663128729908
0.00901597318856963,0.0438225471063001,0.0281621851471187,-0.0176112940955645
0.0565865323210801,0.00265919025495784,0.0232308868856371,-0.0187256323378163
0.0879366363421525,-0.0547915461081924,0.0115586934071483,-0.015443181859724
0.1003116244157,-0.108749559188635,-0.00845813434817316,-0.00892863042975721
0.0976033381419842,-0.123109526050988,-0.0149212498978896,-0.00131704365768606
0.0801120856577811,-0.0953300207947019,-0.000395540604953122,0.00401036205578477
0.0490693293184442,-0.0456913987943192,0.0140932073069013,0.00552230944897476
0.00952720367801776,0.00497811535812223,0.0174675501117145,0.00502868344557318
-0.0284817569433937,0.0383328902092894,0.0218561992259857,0.00465533474247497
-0.0612690385564025,0.0472993164784788,0.0320631177369809,0.00524356070765764
-0.0941339840847908,0.0412442312521453,0.0374121555327165,0.0066538872669773
-0.12970740364118,0.0416116897592764,0.0364409697690067,0.00778432997839556
-0.152334930852262,0.0531494323018072,0.0331275793068324,0.00712652968192597
-0.135134076656289,0.0613540157778249,0.0270929484104408,0.00384247569846689
-0.0811304494275028,0.0460068428335774,0.0207575976376262,-0.00045061299454268
-0.0268445199668414,0.00812599242876257,0.0177659862652689,-0.00234987362229868
0.00261355109447049,-0.0106135360592968,0.0132263735491299,1.44340650076605e-07
0.0168273981529913,-0.00768546995266047,0.00244849172260558,0.00532487650984055
0.0319980019552598,-0.021111069020172,-0.00884355894933864,0.010515985573898
0.041217602595367,-0.043752563991941,-0.0197217174706081,0.0133951612853292
0.0240688148384451,-0.0522199137998021,-0.0292914668150692,0.013827108336405
-0.0197667338686637,-0.0481411298479052,-0.0283104848599168,0.0123827306370637
-0.0611960543498658,-0.0281949826141146,-0.0151043842447007,0.00934064153173291
-0.0720598474928416,0.0142705919191994,-0.00236818047328726,0.00514332460235978
-0.0526054216958105,0.062918762237802,0.00209271126528213,0.000676573175950157
-0.0306442654708828,0.094168519348246,0.00259768118313993,-0.00329062328049848
-0.0214020558925633,0.0900837833624188,-0.00448787921839203,-0.00606119577074526
-0.0171466053396061,0.0534101158510774,-0.01927689665133,-0.00625901260146011
-0.0193887104088813,0.021560486079215,-0.0241478404002435,-0.0029261402114949
-0.0345917114042459,0.00414242220946962,-0.0140332291602165,0.002378071570642
-0.0365368701345091,-0.0236949121431808,-0.00187930277229897,0.00691299529725774
0.0202877540183359,-0.0620438257178366,0.0104619936948368,0.00905747190153229
0.136576224623258,-0.116287252057111,0.0204866860743718,0.00829914149999773
0.245385194655556,-0.170100779454829,0.0270697624146485,0.00591564051112354
0.257420958237875,-0.154799508958093,0.0421817033014177,0.00431120934996418
0.164204909793391,-0.062195654450499,0.058701268184241,0.00372155405376779
0.0643232190450084,0.0242620587342869,0.0573527147526662,0.00222280062090471
0.0372715877770761,0.0328857549396612,0.0365837178409604,-0.00108075261296953
0.0539822518362846,-0.013113336160299,0.011817456549867,-0.00542923451468322
0.0442563929701283,-0.0403474243933162,-0.0117165296849495,-0.010564508133865
-0.0161955280729869,-0.0249325719631838,-0.0442776603882919,-0.0154768786760493
-0.113275424697231,0.0153495278715659,-0.0735743314853823,-0.0161604366027889
-0.229559562360523,0.0517228797979477,-0.0751890982299985,-0.0105732419963946
-0.319268612519373,0.0485357550509895,-0.0592858624253303,-0.0016605119562074
-0.308310409624545,0.00447476629883278,-0.0461305287409813,0.00819172075530919
-0.187446592855518,-0.0483346276827607,-0.0314149080961419,0.0182314525069917
-0.0298926376516707,-0.0823766462124452,-0.00931769924724798,0.0267139807572668
0.0910449223147745,-0.0765468595819046,0.0166884286444679,0.0320178755975932
0.143323407232467,-0.0504281721667578,0.0326774090299072,0.0333534641747106
0.121646875865413,-0.0479232145015729,0.0273456929983843,0.0317625649658357
0.0760650495540048,-0.0722954783261082,0.0175301070419523,0.0283619080314761
0.0980570816312935,-0.0945376194234636,0.019991368019879,0.0201831950837647
0.16245904267919,-0.0829226226820817,0.0285664350411967,0.00378947185537347
0.15295640256846,-0.0365763493710014,0.0367644707757531,-0.0182970433165362
0.0736149497637278,0.015886568339286,0.0418464949117517,-0.0396868459684144
0.0184861254790863,0.0487684718705569,0.0329556117304658,-0.0553228625613795
0.00424959946788799,0.0582220589759013,0.00553797986110039,-0.0617371146868433
-0.00551879975746944,0.0532496475301241,-0.0207544341774636,-0.0572240288927722
-0.00967634040701064,0.0300910066107633,-0.0264125307543746,-0.0444689432222554
-0.000997423452078174,-0.0161300242659707,-0.0168935056087964,-0.0278161256260828
-0.000530706124448929,-0.0557115747960401,-0.00480504889160448,-0.00892290751761591
-0.0147625566506786,-0.0492040568839328,0.00723811453249948,0.0103536567445818
-0.0135246872561347,-0.00565173118827572,0.0175675811709187,0.0264109253101334
0.00456572033107912,0.0346169722409075,0.0220075984809047,0.0365863565414709
0.0102155994338647,0.0299434105709483,0.0198204703632372,0.040826722006126
0.0177913007362664,-0.0188547984334835,0.0108991320358383,0.0422209056151594
0.0446427640751023,-0.0560563706507803,-0.000311793654487656,0.0436815644168139
0.069292362134593,-0.0613663388375542,-0.00152656769261068,0.0435226494866863
0.0697861464423269,-0.0590146648291525,0.011434432754082,0.037260161323942
0.0348126114400853,-0.0527845362839078,0.0197259283464112,0.0224338842731968
-0.0212862699324868,-0.0316845638693937,0.00185874379952512,4.02686167139885e-05
-0.0629623032254126,0.0117836880821,-0.0299387511990604,-0.0253441682800682
-0.0712779016042121,0.0621550329324237,-0.0474581790577659,-0.0464119498609875
-0.0377084061314858,0.0765242117652498,-0.040879994470401,-0.0577378267429823
0.0297639363701251,0.053331042193271,-0.0179936737041465,-0.0587855483061979
0.0931879995572965,0.0332842165921634,0.00503888210484617,-0.0515395979839684
0.110689626999914,0.0302300977204765,0.0217658057717574,-0.0385757745830573
0.059398302944645,0.0352619568223745,0.0306660128006431,-0.0224495053942201
-0.0283518212523928,0.0455817374325349,0.0236028498696045,-0.00485584952106196
-0.068266777891398,0.0559538806900827,0.00588871849835727,0.0115269632345777
-0.0279376782416293,0.0525369766756369,-0.00324446573566946,0.0220881339653774
0.0256408795699011,0.0295505488476036,0.00234968275449209,0.0245899129211418
0.030957786430096,0.0110131221143933,0.0105408364103022,0.0217414039677485
0.00350040069570114,0.0201806681993444,0.0124830074580287,0.0169646494185246
-0.015792520942998,0.0297780682455284,0.00828196934775069,0.0116082852176669
-0.00539524283449834,0.0132564133187129,-0.00200934126099889,0.00651266225232102
0.0242447587476819,-0.00385147664532029,-0.0164302152486676,0.00237658926626588
0.0540055994374735,0.00431268273993119,-0.0286843692663261,-0.000679732205781877
0.0717925714582877,0.0242749347790016,-0.0373285998625089,-0.00306780538612556
0.0502989853926646,0.0292303339947974,-0.0459361643418226,-0.00523381555501013
-0.0128416875921038,0.0188443579350796,-0.0471946711762394,-0.00674028796753155
-0.0675402049525681,0.0157944703775904,-0.0310088210376498,-0.00697281204703862
-0.0740021279144741,0.0239118834358128,-0.00695450802087313,-0.00630768826001067
-0.0498836777355285,0.0283452131004688,0.00625677612013759,-0.00543812257071004
-0.0346163687306863,0.0259457996322501,0.00258893361822041,-0.00463034010933812
-0.0275238547916744,0.023439762273226,-0.0076958827421169,-0.00355095330517652
-0.0105276166419545,0.0213459638368372,-0.00852274358832641,-0.0018934185341088
-4.27589322577193e-05,0.0139929985889769,0.00123541244393224,9.39336362644384e-05
-0.000130384905603326,0.00662867944739659,0.00959553925466704,0.00195605742655255
0.0216553125329246,0.0103328280988647,0.010172011340721,0.00324064057606318
0.0631814635546243,0.0260712507650497,0.00210916371402006,0.00386432631366328
0.085301684624695,0.0515438565982283,-0.00679985385603207,0.00410257490915134
0.0683878738605918,0.0743336004793369,-0.0014781801185555,0.00454714053799776
0.0216405087422724,0.0760143989506518,0.0144933661155495,0.00555093686618125
-0.0287099245958557,0.0493489877149506,0.0192635003803526,0.00619818883443426
-0.0540971631266404,0.00851953539435485,0.0111649952668189,0.00542139058171171
-0.0462482986016453,0.00459882150857658,0.00583275359972586,0.00327560393939584
-0.0387442355437108,0.0494888209827069,0.00492471998605689,0.000347984686676102
-0.0473258434247203,0.0760502708249404,0.00120438395210811,-0.00123782727319463
-0.0399019087580564,0.0529247362007479,-0.00855378419744508,0.00182524720228525
-0.0218994679357288,0.00964913388710784,-0.0202798411789707,0.0092184499822607
-0.0146224867292681,-0.0265532809830037,-0.0264480198630195,0.0159856983795031
-0.0101188883520705,-0.0327963583365625,-0.0237336870483857,0.0176341108059835
-0.0109724024052227,-0.0123882048930801,-0.0129261151898185,0.0137848842107074
-0.023568465065584,-0.0105279403266847,-0.00151442241692672,0.00739670147979879
-0.0417333295757047,-0.0360131261294037,0.00395544118241347,0.00150602713043651
-0.0587237078580997,-0.0518352578640085,0.00855549489933851,-0.00324508790284324
-0.0648062664668693,-0.0482644986614705,0.0110108919565677,-0.00767308848946569
-0.0467207056354186,-0.0318189631660306,0.00346142321664892,-0.0119131129192661
-0.0178596404791254,-0.00539382192449343,-0.00314082462943708,-0.0149655395620496
-0.0061800145399236,0.0101597027952558,0.00362636607700509,-0.0155343778211089
-0.00943095076377212,0.00152839719414246,0.0134743133443982,-0.0130702442375123
-0.0108180133846549,-0.00847012749952088,0.0169273037876771,-0.00777205953582649
-0.0106918544442019,0.00478467491457026,0.0212096710354943,-0.000689990204286079
-0.0108384244553165,0.0429102842844859,0.026467503050478,0.00587672539048332
-0.00520692469320608,0.0869084453050475,0.0213216584838064,0.0102763117004699
-0.00653445296440791,0.108710316094825,0.0101895230819334,0.0131337681632702
-0.0250175118095076,0.107325561475702,0.0101398502852848,0.0154508290311947
-0.0479147101481653,0.0959715355092138,0.0262957758248651,0.0164351453778968
-0.076104529637122,0.0776286699345452,0.0416152143134212,0.0145442929692838
-0.118797314363257,0.0555580197093583,0.0332355749066484,0.0100143284507724
-0.15647344377537,0.0260025800349749,0.00162509535870801,0.00516439022388459
-0.163001592070317,-0.00179072044955,-0.0262285994502744,0.00198712650786323
-0.138192689078542,-0.0225809239368378,-0.0253060444384631,0.000123952167691746
-0.086682686110334,-0.0745297153556298,-0.00668068404544435,-0.00173674850463657
0.00879597660675144,-0.160677264899687,9.55779699281789e-05,-0.0035388659650801
0.126185991673762,-0.207597448291852,-0.00649891177342375,-0.00466630292644511
0.17992388935746,-0.165978655854542,-0.00567114589233086,-0.00579992722802536
0.161560042498268,-0.0745393783949059,0.00639186027604122,-0.00843784267033099
0.150629530475988,-0.00735483019816677,0.0157398323596426,-0.0128988740297447
0.156204721027847,0.00301323679897217,0.0184210705377783,-0.0179097546075555
0.119688737066894,-0.00902065716202685,0.017240607116863,-0.0211929831184432
0.0390430353990252,0.00883059298042224,0.0100582510415537,-0.0203966019511889
-0.0303749852491103,0.06022037872396,0.000778884555184286,-0.0150154224685991
-0.0653621042399707,0.102929060232844,-0.00485851486749221,-0.00684422581929192
-0.0794040838011118,0.102202592779952,-0.0092197459589131,0.00165008968460353
-0.0657674741913489,0.0584974422977119,-0.0125242450661405,0.00816034132888248
-0.0183308443202879,-0.00316518588111472,-0.0124459758168547,0.010635771855429
0.0285090692155772,-0.0367384071561872,-0.00442011436329052,0.00875497070146399
0.0374690864802329,-0.0134340550972111,0.0110613681627758,0.00426387712119507
0.00465354257610459,0.0329109019733402,0.0215817369925613,-0.000216629819729996
-0.0340254757335306,0.0504189263438805,0.0219746143835184,-0.00235960090642784
-0.0379191725109291,0.0290153092585069,0.0184672453201548,-0.00133910425218302
-0.0154692008146074,0.00215476699412248,0.0213603236224176,0.00202161844039852
0.00810956644203599,-0.00130990657312767,0.0266876514157662,0.00574713859888029
0.0192861064956043,0.00517576583798419,0.0170490188625905,0.00796235565977864
0.012083878732677,0.00293298176852463,-0.00246719572689345,0.0086467335031879
0.0250630602884692,-0.00706798152396964,-0.012113846771444,0.00873396129371362
0.0803454861931923,-0.0109728682595981,-0.00885007118806058,0.00775917752961393
0.118717046135573,0.0024210919354385,-0.00262637350813175,0.00484288225404338
0.0951910434233924,0.00720852135023307,0.00281564955455719,0.000442617898408812
0.0332982526701035,-0.00384243569766536,0.00788202963866673,-0.00449625260869223
-0.0420245397244086,0.000751295932787131,0.00656197719134322,-0.00949093603356717
-0.114635080022641,0.00646818586796451,0.00160999937567952,-0.0135217064336496
-0.139964335179912,-0.0285594595488393,0.0034688408699494,-0.015055176960888
-0.105357727588076,-0.0844068157665828,0.00737797442898639,-0.0138429726930734
-0.0409207648343743,-0.0949094665400959,0.00485185974598366,-0.00981072377746706
0.0280445238865959,-0.0634606420577861,-0.00509395627324308,-0.00231384527417313
0.0836045040782846,-0.0607829639190259,-0.0167582336284895,0.00692177789213008
0.132788162553625,-0.101386599363929,-0.0207811579949228,0.0134282910023164
0.172063282421006,-0.127880574980145,-0.0168875715968519,0.0138190779908051
0.16287104386701,-0.0802789993774249,-0.00736995940984605,0.00918394866534652
0.100390176261513,0.0439999334137887,0.00208593883154951,0.00367344993629521
0.0406775238303993,0.157332673610175,-0.00721338749650473,-8.46769756873023e-05
0.0222800052170248,0.170348838396785,-0.0344992808866004,-0.000959198751506676
0.0214246928210298,0.109707982993572,-0.0471112443544138,0.00130156456494325
0.0241735414274913,0.0475005087103221,-0.0358804212828404,0.00404708483651157
0.0512517689023607,-0.00460499125640498,-0.0258194116557222,0.00526790549311257
0.0803433860024632,-0.0462288141157716,-0.0222980668621215,0.00731200339628309
0.0591507827495429,-0.0604980601425217,-0.00880544068807912,0.0120307311941436
-0.00216564348194917,-0.0498791726214165,0.0141942863072338,0.0156962864109098
-0.0495666678733354,-0.0244014023418573,0.0376190901934795,0.0125248484583108
-0.0753535198547551,-0.00766590644653379,0.0586446713337344,0.00229823358451911
-0.112912282440255,-0.0142657532144009,0.0732365721819926,-0.00806681782286367
-0.153832887027504,-0.0173824891542923,0.0744472168106535,-0.0128762883548287
-0.146525679914535,-0.00623378235755945,0.0606989359935325,-0.013309263048746
-0.08257177018197,-0.00599022096446513,0.0426319801959656,-0.012255852073896
-0.0147480134393917,-0.0324686789604335,0.018363103843041,-0.010390399625214
0.0245217166665155,-0.0739939472081451,-0.0204095675164733,-0.00696915943382677
0.0468764788484089,-0.105634198886662,-0.0571706420078981,-0.00191095353950619
0.0611768327336825,-0.106731857470853,-0.0798668984479393,0.0028363234067931
0.0670545635488256,-0.0756845367697352,-0.0893866709029905,0.00584120046137514
0.0657173056649295,-0.0333570278203477,-0.0770895217577991,0.00685176736003946
0.0597654804341211,-0.00601314189607839,-0.0507388481342912,0.00564497105254841
0.0372342864196203,-0.000575754957525577,-0.0319164849001743,0.00311653954383658
-0.0125926282901702,-0.000348455188351356,-0.0238180113156219,0.00108693699558908
-0.0577177436083066,0.00873390003858347,-0.0183432896372428,0.000558879074296514
-0.0584608745279195,0.0140095735951219,-0.0130300745086386,0.000375390192345296
-0.0213369307344637,-0.00311681669968128,-0.0091947653904406,-0.00116433055464326
0.0232220055923141,-0.0294422896212131,-0.00348077446404404,-0.0034997061005229
0.0545666371641179,-0.0347263061774697,0.00751882578640804,-0.00472857266165474
0.0682893307959864,-0.007675494227844,0.0246863537738527,-0.00352807842220404
0.0839390332534169,0.0321957459862251,0.0482119814332744,-0.000604519569190592
0.10601066882488,0.0597042522777115,0.0730071963354046,0.00136580453970817
0.0955126233029953,0.0684132011340736,0.0864920673793959,0.00104046276870945
0.0376840161616712,0.0544311123701319,0.0815595210477722,-0.000284819479250831
-0.033008581184067,0.0207705649249141,0.0641310560052504,-0.00126809655374574
-0.0874603310842625,-0.0122013154371531,0.0460626639469148,-0.00227193518223327
-0.123353460020712,-0.0278427973434201,0.0377282164025988,-0.00405820705375248
-0.146958645990899,-0.0344133091856895,0.0331702746834723,-0.00603011626562371
-0.14923189624866,-0.0349360340992465,0.0208780969333445,-0.00696225112303882
-0.136552869876069,-0.0177254348280608,0.00575678404631973,-0.00678990763890289
-0.126616728507592,-0.00333381455512664,0.00124667635664121,-0.00575480545792702
-0.103272599455154,-0.000351597942632551,0.00584038288348647,-0.00348752974750947
-0.0454675603330268,0.0186440424859207,0.00899854931866949,-0.000365700032227989
0.0357051046459097,0.0506711845152986,0.0115476197057569,0.00246589297244355
0.102904864910786,0.0551428363128666,0.0134704021528296,0.00434416808082296
0.13133097566422,0.0155970059024406,0.015235844599429,0.0052801765638513
0.114606245649342,-0.0261563039647935,0.0224436401179524,0.00507937055012266
0.0702417738544095,-0.0308837661211972,0.0309170766983261,0.00340724653469307
0.0417792771040175,-0.0109181189699183,0.0330974446343598,0.000349406858330805
0.0349851887606754,0.00663464645673571,0.0296355829539953,-0.00399722066453667
0.0230837321564871,0.0126391466550037,0.0272070635524934,-0.00847688145458495
0.00828923784748746,0.0139824566352368,0.0315057149075076,-0.0107519578269449
-0.000755904667975885,0.0140804687451997,0.0363082370558229,-0.010305023379353
-0.0116515873080457,0.00809148783377107,0.0326371334983922,-0.00851294537717257
-0.0168387152667436,0.00699607152760598,0.0281006592785336,-0.00603921763545975
-0.00641861342646927,0.0114492206586044,0.0294571873047498,-0.0019771234241099
-0.00239289455596448,-0.00319763444278096,0.0289283283313773,0.00673261486264974
-0.0255846010516908,-0.0286507999526244,0.0214283469616649,0.0211773983580606
-0.0524618880273939,-0.0269492388982515,0.0138714657832439,0.0343547222382676
-0.052054715782696,0.00767467757419956,0.0162839415332404,0.036537460543135
-0.0300813585184436,0.0441878958865889,0.0239481162236033,0.0249535089262508
-0.00029748945871718,0.0502244656084199,0.0250601030961509,0.00511886167753994
0.0360839553672543,0.0207975851435896,0.019248101469125,-0.0141307384691148
0.0661504243837169,-0.0184400817094626,0.0140474373467319,-0.0263332629586708
0.0737292733596872,-0.040696814469481,0.0164986577569005,-0.0300192681541047
0.059481912669207,-0.0310539203072927,0.0251366107673009,-0.0276509098531569
0.0293316558210911,0.0222230633183826,0.0351675924353499,-0.0230331697660504
-0.00844596298961502,0.0972019756891151,0.0442837853272911,-0.0186411617677063
-0.0385745076145676,0.134971613719951,0.0457178159164129,-0.0131167120303137
-0.0475090961544127,0.121298339674694,0.0316065074655926,-0.00304973638321882
-0.0449245244838615,0.0977877037180987,0.00468779355426735,0.0103198118253786
-0.0499956509968324,0.0908411503923178,-0.021735811848628,0.020278127382
-0.055284169721251,0.0938981957500978,-0.039216775590875,0.0235362895028329
-0.0438016272638958,0.0976499705382507,-0.0440914982619152,0.0237084532300058
-0.0289739938064443,0.101614655550365,-0.0400713892505777,0.023042713769229
-0.0423978511365942,0.0849158229359561,-0.0379231087635983,0.0194747865696778
-0.0783878254130149,0.0222650284020958,-0.0360493067594814,0.0126503557982496
-0.0848646905752028,-0.0606616469787406,-0.0348181973355072,0.00392750172946295
-0.0338074682201006,-0.106878887190682,-0.0426396438751293,-0.00606166494686389
0.0156018850315909,-0.0903102357811326,-0.0512904314608668,-0.0148927983081508
0.00962533176744491,-0.036510998604033,-0.0434050380017612,-0.0188590508364578
0.00371829799078521,0.0155136240394337,-0.0168607463650472,-0.017367450918094
0.041843729797561,0.0614040632769018,0.0125214920301304,-0.0134418572578365
0.0812337856904769,0.106392619955303,0.0292447657529791,-0.0100915461721988
0.100800076469093,0.119810271249732,0.0356614624604674,-0.00815425729743499
0.127460896215703,0.0670595838331623,0.0398253431764199,-0.00618430255906127
0.161854276376757,-0.0292229063011339,0.0350150988138298,-0.00120079393205907
0.177857627175476,-0.105904506312288,0.00511755511630637,0.00728766009528217
0.158804233803583,-0.126970999432342,-0.0375493777845111,0.0150590981988664
0.102270652130592,-0.0994096649858717,-0.0595711529931928,0.0180596217648189
0.0346122680985168,-0.038147014051157,-0.0595920679141858,0.0155379354618761
-0.057594836047594,0.0343634510243393,-0.0566528209923924,0.0081300879934647
-0.179222715510482,0.0727273284028638,-0.0571655839788773,-0.00153817737257496
-0.245429502595297,0.0637525884578108,-0.049195178577279,-0.00806621286715632
-0.227562794732831,0.0446159610994946,-0.0205695565868521,-0.00873407357433883
-0.175666234308293,0.0378701789153211,0.0137735520403068,-0.007432400164247
-0.126969748191132,0.0340615152940299,0.0324394910603273,-0.00884400271309325
-0.0891918065855791,0.0317168741098612,0.0364930977499021,-0.0127934111391479
-0.0568712722171871,0.0372835789319416,0.0305762734626634,-0.016351275313602
-0.0334599711152301,0.0448289682152639,0.0142923247730758,-0.0168822515043969
-0.0213189040541482,0.0447660804417232,0.00223032874636862,-0.0134973541766196
0.000281130650112649,0.0267332272964324,0.010923334062339,-0.00737969363128476
0.0605067327135624,-0.0134963384377099,0.0290640000845481,-0.000596676159338193
0.134467557783969,-0.0569540736796956,0.0302744807821859,0.00482190573191803
0.15731091931321,-0.0780453351080317,0.0102976744711122,0.00805334191019889
0.124124252799245,-0.0766006439959268,-0.0139743716682472,0.0100517837013048
0.0805433782517037,-0.0659752547046702,-0.0304889071935703,0.0119809479437517
0.0577854261692516,-0.0576457973042485,-0.0389517680893714,0.0131546986960475
0.0576728557737569,-0.062043129850987,-0.0444510192053284,0.0119667341594644
0.044146734587282,-0.0760386863941223,-0.0480010256437779,0.00859919440778755
-0.00603957411333185,-0.0937248321577196,-0.0501614432258773,0.00477558550103467
-0.0488762840875359,-0.109741760519947,-0.0506728956015282,0.0018272905994745
-0.0401399284856422,-0.108646802093603,-0.0442150786839446,8.70592843419532e-05
-0.00117329948723812,-0.089950474774152,-0.0325333927204344,-0.0010695715877962
0.0327151474509077,-0.0636376527193768,-0.0191560744051307,-0.00245675267737276
0.0575309800416117,-0.0349271267713558,-0.00229441837617018,-0.00379324021826486
0.0672442314262884,-0.0211660046684123,0.0142486756797252,-0.00423308029033057
0.0324021487238448,-0.0184907394426274,0.0232334398567486,-0.0039853286235356
-0.0466959673232337,-0.00258603415244666,0.0284971540376642,-0.00399519092345679
-0.119106666387532,0.0293171203536563,0.0353549688979052,-0.0048191738136012
-0.145260397818991,0.0733464852947801,0.0344164238432734,-0.00597452004338436
-0.133201036400859,0.0988010303331093,0.0237866193197951,-0.00603778912169467
-0.110856499202061,0.0599600199016258,0.0132429056897227,-0.00448147996663991
-0.0977813493620074,-0.00622093747945113,0.00501952537239006,-0.00194576344551188
-0.0959819197819226,-0.0361988998770405,-0.00270117913918243,0.000904776910731465
-0.0795234614958411,-0.0485395525033774,-0.010030609014843,0.00354527187895756
-0.0271301728232528,-0.0669047653178835,-0.0151438446062088,0.00557260112692105
0.0357435671147591,-0.0702673088424234,-0.0167060908917993,0.0064135216975234
0.0815921067708183,-0.0610838164081896,-0.0134693029102386,0.00584311559141314
0.109697805826607,-0.0738595952423493,-0.0102850862140528,0.00495435135550631
0.105191425234373,-0.104928203365873,-0.0172207777878023,0.00576886390809278
0.0557156541884825,-0.106479161724927,-0.0274080611473213,0.00885385387397394
-0.0111917931657639,-0.063831437789458,-0.0291085513895019,0.0115442816682367
-0.0487975437863801,-0.0102262632208645,-0.0289684461489235,0.0109978353872651
-0.0392501242248408,0.0299596876445036,-0.0304118999404728,0.00777043767437498
-0.012454042331002,0.0540679136542254,-0.027442363906776,0.00383138032980881
-0.00476877670238178,0.0606755603754623,-0.0214345030232068,0.000152690005934103
-0.0171219584210861,0.046812235464496,-0.0194195912073209,-0.002151889527783
-0.0218286411648572,0.0217001972074015,-0.0202752352030867,-0.00221791013403733
-0.0125783416744469,8.99577335089843e-05,-0.0159139568582859,-0.00127569375581592
-0.01329374405476,-0.0249821120323873,-0.00924430031141884,-0.00141426631977871
-0.0271335277379216,-0.0526694990856059,-0.00540355452989864,-0.00232193779943763
-0.0370607682819763,-0.0563556775584994,-0.00250875662490065,-0.00167113613633383
-0.0432553384935632,-0.0337844297915636,-0.00319037145755365,0.00114215486431092
-0.0568298694001258,-0.01211221337447,-0.00577900012479525,0.00470970681773649
-0.0615867980225136,-0.0102482775658453,0.0013456951796121,0.00727251487081047
-0.0395438034724176,-0.01959534165323,0.0198282525816046,0.00745666203893745
-0.0214035902974692,-0.0109730254358929,0.0393719641455409,0.00553979073332255
-0.0469485242409833,0.0214162184206265,0.0510040244060275,0.00272794470397635
-0.105947148798151,0.0520556323310633,0.0493044039221192,-0.000218468488232746
-0.133224539029992,0.064517120895075,0.0423350823055302,-0.00251250976391709
-0.0954719736321663,0.0532460157744154,0.0358353402991914,-0.00346703305134586
-0.0430028185938023,0.0215941885581058,0.0206166215422426,-0.00279224535855265
-0.00970691879231977,-0.00971765627329464,0.00218415580425177,-0.000751317648181352
0.0143220563285413,-0.0197177729391773,-0.00531048321483793,0.00133515355115134
0.0320000010534058,-0.000782141222997156,-0.0023942008299143,0.00147253388278243
0.0481731766599524,0.0425214215383486,-0.00104437564842945,-0.000822897847475627
0.0670555994064396,0.0962254733024812,-0.0129350086939669,-0.00317265049573859
0.101053149889529,0.116097553188565,-0.0384541542976906,-0.00314012936454402
0.166251533693565,0.0597308504598152,-0.0609343357610279,-0.000322985970465833
0.216382750554864,-0.0250129606917191,-0.0555072190255968,0.00405870724845258
0.178755314529047,-0.0597861553111886,-0.0234300504505135,0.00714119299152417
0.0662595559016448,-0.0582709533272331,0.00218129310906202,0.00689812402924252
-0.0436078157940742,-0.0477366440278418,0.0178801181600878,0.00361078483461407
-0.100017597226453,-0.0042925976765078,0.0460127529336105,-0.00229402982701039
-0.110041077081733,0.0570741858272716,0.0734899519600031,-0.00899836354153184
-0.0808488791421584,0.0712020440001206,0.0650291786160574,-0.0123283333059882
-0.00276502942129834,0.014516781959558,0.00890688923247558,-0.00973095084821349
0.0762386027889217,-0.0513019767367879,-0.0507343790985767,-0.0029123980801172
0.0907456615351994,-0.0623715114679543,-0.0595240221264893,0.00382655267042043
0.0600959498290549,-0.0285926216663257,-0.0303866579584432,0.00707924991003674
0.043186834110823,0.0155313279579915,-0.0106873309001678,0.00673599955277043
0.0424134603217615,0.0648238736582805,-0.0119833471637838,0.00515574966960716
0.0364187360054457,0.106370440991425,-0.0155975292583048,0.00409448580466028
0.0325225950663038,0.112144709532579,-0.0123319250056633,0.00336749331723318
0.0373215711127864,0.0813902092217688,-0.0123879794425303,0.00186903977017678
0.0276839528098276,0.0397197056292629,-0.0185803449821981,-0.00129163129453391
-0.00866861439708413,0.0194895477098506,-0.0112473136375732,-0.00547187897676575
-0.0401232514166093,0.0211475557219948,0.0135532160435945,-0.00843099260691284
-0.0360115032349103,0.0114475235842934,0.0274658907525314,-0.00847157224494265
0.00705700711918898,-0.0148856057941698,0.0172983448616025,-0.00596179955187199
0.0719707674028513,-0.0352840775969695,0.00212118898516112,-0.00315626846100243
0.130345224254716,-0.0415640585303658,-0.00509554063577576,-0.00220312902626954
0.157824939303953,-0.0370244423434807,-0.0129234709473327,-0.00291359986311859
0.147227294593577,-0.027988289775922,-0.0242197382431881,-0.00351980333554889
0.124004706712178,-0.0285990284367579,-0.0323650787002642,-0.00329417826517781
0.117364233175765,-0.0451253139975998,-0.0385437257507616,-0.00297221905110956
0.106885174610074,-0.0563577474841617,-0.0412548604726198,-0.00262926801900865
0.0631051568421086,-0.0431313777025036,-0.0338887523829074,-0.000948492380326896
0.0144625529372615,-0.019135667059238,-0.0175475308070345,0.00291521675615505
0.00552332240509525,-0.00163392009751946,0.00124583490131556,0.00755054122520632
0.0241588693346897,0.00994176838877239,0.0167357305380874,0.00970385413398261
0.0253551042181938,0.0175380598850127,0.0230867717472271,0.00745022394289548
0.0165054001657423,0.0184568380339119,0.0180046873191838,0.00250487940195172
0.039479295143736,0.00751924666116257,0.00807601090532472,-0.00153918952167034
0.0777376852459482,-0.0179484596657021,0.00229770591441949,-0.0024294610009399
0.0822220159640396,-0.0475769609332839,-0.000355064248277902,-0.000642178263216258
0.058322406799119,-0.0646386063351959,-0.00341764525939644,0.00198287977327331
0.0344512073255269,-0.0634436960557216,4.59472521608475e-05,0.00357382562931869
0.015606692412915,-0.0458234151114003,0.00995620519958903,0.00216462960016167
-0.00536289312975904,-0.0212892237030425,0.0169286139476443,-0.00316611798162636
-0.0424711271927465,-0.0148339674065844,0.0203138044446164,-0.0108234860151615
-0.0849251661915706,-0.02734577843385,0.0233351154141697,-0.0170719530592832
-0.10559857273976,-0.0284576615531252,0.0226425884521108,-0.0189790519270659
-0.101304522193254,-0.0202639569420326,0.0108828731551606,-0.0163413313993863
-0.0823948126742555,-0.0192759809192825,-0.00178379202225787,-0.00963069174963442
-0.0552172230131138,-0.0134710992224163,0.0021662324277566,-8.58853754623704e-05
-0.0165825656528308,-0.00386304909724459,0.0138645127594773,0.00860097089199314
0.025701511114997,-0.0024094154820498,0.0178705358887598,0.0132008777087221
0.0361822302897247,0.00089309817586964,0.0137169524898927,0.0136478660684308
0.00430414954698518,0.00961749708247678,0.000783269146904245,0.0114215800764799
-0.0311785637053489,0.0118749486332394,-0.0202900901292588,0.00773423692983778
-0.0424152546508162,0.0120508230689867,-0.0382944540607394,0.00358339021630808
-0.0385899356588404,0.0194230059363698,-0.0474935548725295,-3.88709862367848e-05
-0.0295334686910646,0.0215093769724338,-0.0539358605657264,-0.00248125370822096
-0.0168342366465103,0.022120051028226,-0.0556215813218006,-0.00381869573048121
-0.0131375524924796,0.0454644349035726,-0.0457716096132686,-0.0047546920865229
-0.0249064190957117,0.0774181081972087,-0.0307638150909432,-0.00578196129778018
-0.0414393315144691,0.0846725127227912,-0.0186497175437258,-0.00663660413391702
-0.0595806233710316,0.0773740509378726,-0.00639256348836266,-0.00687605861881902
-0.085962848350935,0.088716182814729,0.00974360931979978,-0.00658120130919887
-0.113292946493004,0.108145681170716,0.0209526819385653,-0.00569820854039063
-0.118803801951452,0.101031672972178,0.0191092937310461,-0.00377893905747421
-0.093492389533898,0.068565625739289,0.0148036525998543,-0.00128906907255792
-0.0515294334992005,0.0340005027600051,0.0182766637819248,0.000662621375845797
-0.0215065513642262,0.000216084087107521,0.0254290977561293,0.00163117034818867
-0.0245730152966053,-0.0458679955238579,0.0290801769032765,0.00211563924604973
-0.0389436989386566,-0.0916349141039601,0.0236988626208812,0.00319474212972777
-0.0273872316101987,-0.108063473372804,0.010077345371561,0.00496768472861033
-0.00280901883113361,-0.119561527381767,-0.00851583610816178,0.00634170797965679
-0.00382240713715582,-0.156314817415585,-0.0241063664209728,0.00662954602217262
-0.0214320303659988,-0.160749434510066,-0.0245091119314356,0.00513663824424152
-0.0266797422456796,-0.0706954373283014,-0.014737502590774,0.00116523945332412
-0.0188192013181102,0.0730337556619234,-0.0104877111054278,-0.00437389904735138
-0.0127643010598749,0.179565794695046,-0.0141645496814544,-0.00907292554859716
-0.0267267099189078,0.213473581823255,-0.016959380028713,-0.0101330077373449
-0.043578702803121,0.184676555741584,-0.0175637994645118,-0.00626116750981284
-0.0389935214578753,0.119430700919692,-0.0162022447428321,0.000848506299767402
-0.0354452354682061,0.0627807182522464,-0.00902306678703625,0.00791359619273468
-0.0309322531835094,0.0422706165434659,0.00271971636254682,0.0118694149353029
-0.00214343507079722,0.0471484897704065,0.0203188136257716,0.0107520548796763
0.0329227184285195,0.0452744054366031,0.0421167967249521,0.00546138033461742
0.0472756171055223,0.0296739435812273,0.0583430874778605,-0.000557122703166192
0.032429685835001,0.0139903981979476,0.0629422012226457,-0.00544650597005016
0.00382063150839587,0.000683683779692058,0.0591752431048227,-0.00986121760897047
-0.0231909340492565,-0.00674726544474727,0.0639567738632811,-0.0132932916741612
-0.0563199176527384,-0.0084199221383083,0.0811275893974532,-0.013731667860793
-0.106017786066689,-0.00661688990281879,0.0870296517829553,-0.0112532656711692
-0.142067482793364,0.00257497557623824,0.0692055799009686,-0.00784168154929525
-0.116873826858492,0.0158955312599326,0.0423887193192229,-0.00386265641830292
-0.0611989362101001,0.0202073143735212,0.0218542664849686,0.000967722400686169
-0.0336902635016748,0.0166817308528605,0.0117670067209922,0.00455322367205967
-0.0182657633322622,0.0126131342958231,0.00490238572138062,0.00400150535300586
0.0465464347170905,-0.00865810052469215,-0.0169055102636031,0.00019151142869124
0.156852060657855,-0.0457463937231611,-0.0517879202963721,-0.00175318204648278
0.202193132377297,-0.0689833746882903,-0.0695278509377288,0.00130359156454699
0.135248617279163,-0.0725077513851422,-0.0516238203673975,0.00728579980268841
0.055929926440979,-0.0580027754636938,-0.0113309088455736,0.0125293163409601
0.0450367030099917,-0.0258342759063791,0.0280903622930167,0.0145523338073745
0.0856360099169279,-0.00616385419993662,0.0512111023902551,0.012046197033962
0.106499491339531,-0.0149900573224548,0.0582559977267123,0.00514620107284369
0.0670125751916321,-0.0204294732539711,0.0595624598408255,-0.0026413824959037
0.0127452086737672,-0.00379556461923614,0.0536004512175769,-0.0062438037045646
-0.0266367264681806,0.00783471173324205,0.0348891706558426,-0.00556791889577633
-0.0733025537869966,-0.00459795666919713,0.018754057029235,-0.00527901273367067
-0.100252746990674,-0.0309222950976185,0.0207458546361642,-0.00792091760488138
-0.0590867467502795,-0.0630727805970888,0.0247349607796474,-0.011286716233069
0.00980383019190716,-0.0853067964426542,0.0137475464458816,-0.0115645989559189
0.0453148943472716,-0.0699085241649451,0.000354278373531347,-0.00788991278157661
0.0461428403770462,-0.0262052259130731,-0.00435697694923202,-0.00316941339304914
0.0424021683011281,0.00239937034941332,-0.00821275654372057,-0.000249548382164772
0.0610468425141393,0.000373903798750075,-0.0209094444609285,0.000932632660681903
0.0825203227567251,-0.00733584018934146,-0.0410733820395577,0.00223748131352701
0.0711304485828326,0.00269316749672304,-0.054019269486039,0.00456344533461332
0.0311810023328664,0.0192650348806116,-0.0527892639756332,0.00680038771692368
-0.0083476192226748,0.0135998404885339,-0.0482315602959526,0.00740545900784021
-0.0311761519244843,-0.0194665501652271,-0.0462281922052331,0.00624032992668534
-0.0419951934588953,-0.0540843886711781,-0.0430942604329942,0.00445041564931942
-0.0488252723246758,-0.0696089938055344,-0.03850406706379,0.00328770870975901
-0.0467034714989178,-0.0732984242111172,-0.0370899864288092,0.00398704747814614
-0.0250098220954459,-0.0781338018794615,-0.0396039344176756,0.00817923920502858
0.0111439461795511,-0.0841779442570244,-0.0399958632625551,0.0157979857746602
0.0465202291320856,-0.0864881680496705,-0.0360417830726441,0.0226766904062245
0.0732241575390969,-0.082496872640951,-0.0344888791677551,0.023882923220557
0.0865486537978361,-0.0740597570430417,-0.0412087556368452,0.0189013406276435
0.0772214738305193,-0.0609058587407161,-0.0513313518843274,0.0110916004048753
0.0447577121542671,-0.0384976373419493,-0.053622383502757,0.00337043284392285
0.00790874478070999,-0.00618829027153501,-0.0422089596270582,-0.0035702093818393
-0.0175014763990068,0.0314682998638668,-0.0252414439667104,-0.00978158191711521
-0.0280672542409561,0.0606632809656411,-0.0120981214877093,-0.0152902036564427
-0.0227389666001325,0.0678524912353776,-0.00126198261510404,-0.0202082182548087
-0.00920978332330967,0.0603876119536137,0.00723339683838261,-0.0226119677399184
0.00138124983890067,0.0438386339410187,0.00353234864734166,-0.0188556506657476
0.0109895855248296,0.0109615497213206,-0.0141755121844947,-0.00871749670812098
0.0175098563954615,-0.0273682584765735,-0.0299664687704321,0.00378879071615094
0.00631545884322455,-0.0490982179791401,-0.0376808221151712,0.0140245571970019
-0.0183804565645089,-0.0471044001042266,-0.0452417280316691,0.0197093685438821
-0.0338888558448308,-0.0288179132594892,-0.0412964236932803,0.0213479026845358
-0.0326788068840847,0.0100878679744388,-0.0155785483612461,0.0190516745950737
-0.0267468320184116,0.0477093871472698,0.0112186397570492,0.0125294228431385
-0.0226243011096775,0.0308282038310383,0.0333674461037875,0.00406095304761325
-0.00663609052199043,-0.0153847151008209,0.0608572389363098,-0.00275467213470658
0.0263132731657753,-0.0297257024769187,0.0756122329842208,-0.00610848541526473
0.052238893473653,-0.0189977654067663,0.0577226981913204,-0.0064493329831857
0.0601783996291204,-0.00769633066163414,0.0173825326371664,-0.00511576346181734
0.06307556342374,0.00682420999502602,-0.0210987652713107,-0.00314480414436896
0.0677119613975754,0.020749548088933,-0.0405252067770905,-0.00140069627713361
0.0673812066798523,0.0289504042004641,-0.0387851365895447,-0.000940559597431318
0.0566134215849264,0.0360302677811852,-0.0262874402179578,-0.00198331646135681
0.0446779776384937,0.0373676963652349,-0.0182323101499266,-0.00374711558525175
0.034405881089836,0.0365675309990192,-0.0233491212211752,-0.00593931045064241
0.00784346825531076,0.0396833907421707,-0.0343492351305871,-0.00856794121905467
-0.0412783055416462,0.0405899020312531,-0.038208356631055,-0.010438303472307
-0.0921941141153361,0.0418753822322188,-0.0230593252651893,-0.0102745166814328
-0.121873977898446,0.0437877141994663,0.0101162384973154,-0.00862130877966233
-0.122748626149203,0.0366266571257503,0.042240987793653,-0.00655946033261793
-0.105487648167563,0.0261741251512238,0.0604319710219481,-0.00463062138987089
-0.0783152478567377,0.025188332666658,0.063445800624281,-0.00350053540291482
-0.0455746473183465,0.0314239097066597,0.0570687110434117,-0.00369604486916051
-0.0222226588841235,0.0343400683706081,0.0506474400785808,-0.00487493625959506
-0.0128225673650553,0.0355636142276222,0.0474817104761191,-0.00576929949342788
0.00248397468120749,0.0402542497043876,0.0429129459822099,-0.00537421712776562
0.0346153629862261,0.0418452231542262,0.0361184531874167,-0.00400625298845394
0.057757823644203,0.0426655533064035,0.03087371286339,-0.00241316374831278
0.0565787318010239,0.0493233801541415,0.0178190823784128,-0.000690062689257461
0.0518152244941649,0.0489460209087449,-0.00688583567739479,0.00141776385566999
0.0487404817094943,0.0259847995997226,-0.0165452806125753,0.00362848494610657
0.0339167285960407,-0.00511423617965462,0.00429776578483673,0.00491886065909409
0.00969211040986429,-0.0208684361219006,0.017931800262554,0.00460913390504751
-0.0164729166498358,-0.0194463551769425,-0.00478374080867411,0.003420052239758
-0.0351701848824428,-0.0184331754142956,-0.0311503166305504,0.00266083170742954
-0.0396720974837493,-0.0460667829135305,-0.0295421670689525,0.002623587705202
-0.0215676067630387,-0.0812497141361187,-0.00834405700682121,0.00235713334047121
0.0164483850889542,-0.0575423049739647,0.0145783826581235,0.000460086386603005
0.0236038560243324,0.0203480443867123,0.0313798366393113,-0.00354703055023868
-0.0124463282036696,0.0808392769252089,0.0383583227750607,-0.00808480415426124
-0.0397665162987389,0.0908522229853256,0.0324456280494576,-0.0106586127651785
-0.0493385735205932,0.0666235910273648,0.0220487147543286,-0.00987546798250015
-0.0665779503385466,0.0461618466967891,0.0179652400483733,-0.00610506004687447
-0.0859294181562907,0.0609910618809426,0.0198411973504079,-0.000939850923108406
-0.0886836128401351,0.0969396351997768,0.0226865693731833,0.00365708964515872
-0.0772040930035307,0.123024614205952,0.0237644699542567,0.00661121540409283
-0.0635692274508332,0.127869606860859,0.0227393535772674,0.00797409670007668
-0.0492912811459011,0.1126596834013,0.0189999999160689,0.00746374375701824
-0.0246850846092288,0.0846375248325553,0.00972353267723048,0.00485841982014613
0.0358535217753643,0.0479812326984456,-0.00937800792552741,0.00118181853201372
0.128863200750169,0.00663265954144637,-0.0319334174028301,-0.00140543866990585
0.185584599176195,-0.038509406939333,-0.0433448495666397,-0.000743433736612736
0.151229071355481,-0.0960782073205727,-0.0414262572502903,0.00285023837933206
0.0583951035249712,-0.145302371790151,-0.0336459869405475,0.00683279072851946
-0.0172338578571029,-0.150275282213266,-0.0276685921086478,0.00978202379071468
-0.0486084600917719,-0.12886943309662,-0.0291053670853451,0.0119008405636571
-0.0507366121294654,-0.10563034497001,-0.0331808887495078,0.0122705016065845
-0.0396396838651621,-0.0573293542249268,-0.0303633321623252,0.0085051577934845
-0.035992012453356,0.0145396213289439,-0.0223408857038825,0.000692988519125592
-0.0482900170394099,0.0620712326552693,-0.0153026530679721,-0.00713096343825203
-0.0584371314952131,0.0685131246394967,-0.0102542143516336,-0.0112396958665741
-0.0524492274673315,0.0598368229140598,-0.00748571855306113,-0.0113641951245261
-0.0422785674163384,0.0580337398537363,-0.00773191010289447,-0.00892463128598407
-0.0424629209334134,0.0678180377707003,-0.0109119947393037,-0.00479467254547169
-0.050549538918425,0.0791939701161923,-0.0122445885457601,0.000744660777410932
-0.062273431935238,0.0750794716655529,-0.0102933809484523,0.00668062879632269
-0.069338911695245,0.0464753123183169,-0.0125192259186894,0.0108008827333408
-0.0558492436225778,0.00233702718826346,-0.0210798867118709,0.0114186724312533
-0.0329476754448574,-0.0285004149149884,-0.0266007533661596,0.00886034664218262
-0.0110809717979362,-0.0298389301603496,-0.0167967144342068,0.00469642925611962
0.0292775268410637,-0.0252521016358255,0.00181525747971002,-0.000141405773629541
0.0807435696754595,-0.0333927486988454,0.00935412149856718,-0.00502700000646486
0.0944576421403888,-0.0538198322915211,0.00773116003578823,-0.00881649199772663
0.0552548451307633,-0.0876019117990012,0.0017999340853433,-0.0107139372254604
0.00511368228563783,-0.112210993676006,-0.0191942401421703,-0.0101809214644519
-0.0279466810903479,-0.105275245663572,-0.0463614072528413,-0.00683648573711482
-0.041438152974792,-0.0793219748640507,-0.0600580103710065,-0.0014115688874633
-0.0407626886188713,-0.0467018785748027,-0.0586287398262856,0.00451830922859635
-0.0470467502222237,-0.0126600501571116,-0.0480598864814838,0.00934349153733886
-0.0616150309574415,0.00204758052707815,-0.0331756869270265,0.0114998178691664
-0.058665948548802,-0.0135842678931702,-0.0192930962841739,0.0100018551554485
-0.0423201408827358,-0.0337705317231452,-0.0106931196255456,0.00547518303865458
-0.0417451380667233,-0.0289608856736861,-0.00864124278752989,0.000194169609076634
-0.0602369390057405,-0.00513776738475552,-0.0104194290313504,-0.00428410539071465
-0.0767069114533517,0.0148228665960776,-0.0145547540767769,-0.00829237604830904
-0.0613998356741864,0.0233543255993836,-0.0220321645520301,-0.010678371033679
-0.0103815016682289,0.0187510797360675,-0.0274116652733389,-0.00907395804136374
0.041856917025259,0.00217007032069539,-0.0261367194456941,-0.00422416596818981
0.0687309453791227,-0.0115363802036129,-0.0277297771621756,0.00111747253117065
0.0889643092556654,-0.0184196018779342,-0.0452414821541712,0.00488324325060558
0.137695783349079,-0.0292014000776787,-0.0708913904371904,0.0059773447241019
0.195917156636379,-0.0493991405831463,-0.083003411708696,0.00493999519816007
0.204934672762684,-0.0698027822450861,-0.0766847796334579,0.00433925340932176
0.151512020363384,-0.0649560314867829,-0.0588795863163368,0.00697306012926279
0.0821903678549941,-0.0265762936952772,-0.03828740108055,0.0124339722210023
0.0292975251282012,0.0182459120535382,-0.0276778540015534,0.0164198637136778
-0.0152802735951207,0.0395959291033488,-0.0288295052041531,0.0149221302416737
-0.0579352200260018,0.0397980634176038,-0.0343954117677164,0.00824153053801198
-0.0862380705995036,0.0360276480884636,-0.0421611318355666,-1.70261690976697e-05
-0.0814694037953471,0.0324227656717273,-0.0483967525544284,-0.0069134370956446
-0.0544776224388604,0.030160962518038,-0.0418413166452019,-0.0121582395483442
-0.0457812192663851,0.0284352000096291,-0.0225100444509439,-0.0166803694930067
-0.0679965505753374,0.0128422524177922,-0.0151435674255909,-0.0208321516291475
-0.0872599652133486,-0.0246605026056307,-0.0268921034530967,-0.0233378139370442
-0.0680381135204707,-0.0615043282606435,-0.0329273006699014,-0.0218312412569436
-0.00658887953658846,-0.0791553679341366,-0.0358102184061556,-0.0153575208417663
0.0632083585833799,-0.0828086997443819,-0.055180419149809,-0.00506354357500105
0.0935685166278066,-0.0632528946937392,-0.0763879970185112,0.00623954706990269
0.0944234528749648,-0.0207869905089686,-0.0800675493735967,0.0149397240923577
0.114200204538886,0.00876405516669378,-0.0709513130823402,0.019950721408806
0.139393761285372,0.0147957136560825,-0.0557411574657821,0.0227664507711296
0.125712485750122,0.0195619203247099,-0.0341581205749109,0.0232779377511941
0.0833407005883976,0.028518156730904,-0.0130103006941217,0.0199446379980154
0.0483536967030522,0.0330039784602479,-0.00286327501235539,0.0127122612471394
0.0307806839062243,0.0342552381849639,-0.00428929826441493,0.00334073144031675
0.013685558640112,0.0396386942550417,-0.0116361903040828,-0.00545605802370615
-0.0204965614244048,0.0461790175669474,-0.0165182169640683,-0.0113473154544695
-0.0545157932561411,0.0363190253837509,-0.0166362357393229,-0.0137900967010165
-0.0602022180605124,-0.00275173403316008,-0.0208422316034936,-0.013855241851741
-0.0451413591883659,-0.0600432236076184,-0.0269998556308063,-0.0127957488590796
-0.0290933277593596,-0.104906041491177,-0.0260446952646305,-0.0111639604856475
-0.0168260110201762,-0.110503980440591,-0.0252302201564169,-0.00895427827939576
-0.0105522947653928,-0.0785826452254726,-0.0310956897770503,-0.00624580726801858
-0.00285688588630324,-0.0325796882730334,-0.0358637284991576,-0.00358944607731712
0.0123334057564762,0.00554759105472111,-0.0351468374469864,-0.00232389716771615
0.00850378420682562,0.0184254188168809,-0.0348249861670572,-0.00347285257433817
-0.02881123025234,-0.00335827717834005,-0.0333379484784815,-0.00527202953166892
-0.0644718884506767,-0.044418747250043,-0.0239232299925132,-0.00470554624411807
-0.073942284070423,-0.075399552684651,-0.0128859164388395,-0.00167658816108029
-0.068298380552794,-0.085066706744217,-0.00649802977708753,0.0014167667019098
-0.0643770281777459,-0.0684004793059017,-0.00119041052838822,0.00340559761272339
-0.0654753594244543,-0.0312375086005059,0.0100767057104357,0.00465363990572355
-0.0602860803368051,-0.00122798954077943,0.0312921377229084,0.00459555852174964
-0.0532124432155257,0.0165208548303485,0.0550517801001967,0.00245672658884173
-0.0475642432551075,0.0244106153273868,0.07451255674215,-0.000698501844081308
-0.029212262908223,0.01057180962788,0.0901699802731277,-0.00286743726558335
-0.00444803599024633,-0.0078534516641514,0.0979812949751352,-0.00309189785827278
0.0140371276938213,0.000330879581547889,0.0928594216752117,-0.00249593811676639
0.0302338054821196,0.022196267868302,0.0733524688243341,-0.00280370962202624
0.0299840619405582,0.0248469432801879,0.0483129516659078,-0.00356830836698642
-0.00151802650789531,0.00435002526008187,0.0321466618077028,-0.00321741831668573
-0.0369367569187871,-0.0181891223318444,0.0261222667650572,-0.00150273677149339
-0.0515974526143675,-0.026617900035557,0.0239328805949394,0.000920342214301303
-0.0418265396561581,-0.0297727351085435,0.0222545481418126,0.00287070362016996
-0.00963947914843298,-0.0409325838342175,0.0210907141697097,0.00335380570140305
0.0244444448525016,-0.0552809829029105,0.0196725748786236,0.00272229611875958
0.0379394311809508,-0.0589130522088738,0.0158771754007601,0.00193272602957862
0.0312686653513097,-0.0500746316800605,0.0140324739676698,0.00182653226791429
0.0196714723297527,-0.038642107211078,0.0256911939421779,0.00249742179748429
0.0141751370876155,-0.0359314999723795,0.0482010006281669,0.00294743098488482
0.0181396470254559,-0.0522841187961745,0.0513594516284338,0.00252910169816519
0.0207809244505876,-0.0801172133739705,0.0218066828833968,0.00203425794809946
0.0112259745331564,-0.0835318722329426,-0.00470083184523423,0.00274582767649017
0.00347583249658634,-0.0409883696619891,0.0040349264121181,0.00402688123912108
0.0094327148073007,0.0162756150694158,0.0380604010789786,0.00408983668232584
0.0100295936307263,0.0555284554980029,0.0732265152784191,0.00362244817182236
-0.0178305229975147,0.0848251046449309,0.0950338880973983,0.00406996332314109
-0.0639452888156807,0.105360770117063,0.098906575746551,0.00462263196598001
-0.0853531656354382,0.0998698603282594,0.0916610184072083,0.00428955685237998
-0.0546847657524874,0.079787975285775,0.0832625812698673,0.00267100860809618
0.0129643988291925,0.0661238410772798,0.0691505960833343,-0.000678283606124312
0.0754587531154597,0.0516105233139972,0.042140576549503,-0.00383102349363602
0.0984002935440946,0.0340492021562749,0.0119231894156362,-0.00344883541940147
0.0938849650021171,0.0293817770609976,-0.00251461339275742,-0.000104628742140457
0.0791041511562503,0.0303892730267499,-0.00166723785500303,0.00173145913465555
0.0475329431288859,0.0142207188325253,-0.00644627767043688,0.000550451847172484
0.0326541140278527,-0.0110422267807277,-0.0194160969032812,-0.000441451169327225
0.0778554182727036,-0.0277371701153576,-0.0286514808406138,-0.000421150200020443
0.129754681952591,-0.029184250669482,-0.0288393327520342,-0.00192655488135408
0.108052785266691,-0.00442739577587769,-0.0178279387167907,-0.00454265326013197
0.0359133055008254,0.0387759295702177,7.95975434955062e-05,-0.00515644911178503
-0.0174113417193899,0.0725340156950839,0.0161432280521568,-0.00283781891129842
-0.0397069689543333,0.0787757419179439,0.0253387132733917,0.000828164970229112
-0.0587053518334085,0.0622028445475589,0.0262538420587763,0.00325455880899361
-0.0649313206454918,0.0365743330956506,0.015766520791782,0.00221114441608545
-0.0424784990023111,0.0133255186096881,-0.00578493131712307,-0.00106023422121585
-0.0221191388462101,-0.00157142155816023,-0.0239925276418904,-0.00222275953648073
-0.0135104271647522,-0.0174917217081405,-0.0308073518029137,0.0013171048270511
0.00267675761088815,-0.0311579055025246,-0.0323921378463892,0.00771130149070889
0.0349829999322432,-0.023013049728042,-0.029462501771941,0.0123213419982843
0.069041145251751,0.00113865341147618,-0.0263897947812676,0.0116561316503922
0.0793811196740412,0.0252109927480136,-0.0295250178730001,0.00638834537825786
0.0678716372156777,0.0452302395117694,-0.0337293460529037,-2.52140152452469e-05
0.0443428115913607,0.0644407384571311,-0.0314374659572908,-0.00524263537407513
0.0148144070804359,0.083897524832576,-0.0249992032816709,-0.00914119734179891
0.000753963197564695,0.0894682314267441,-0.0253613643092176,-0.0117983619451188
0.0112115060256226,0.0779682556170958,-0.0348108599615499,-0.0126613788178187
0.0232423331189941,0.0648227079742244,-0.044753295601701,-0.011667903283464
0.0207930891756562,0.05186985413582,-0.0525555896988797,-0.00937667104393371
0.00600615691028919,0.0310574669813524,-0.0599772622576424,-0.00602636274597183
-0.0145687786911202,0.00876189015337915,-0.0624906612230644,-0.00162670434735436
-0.0196015755307729,-0.00949932618010435,-0.0564889672966664,0.00280039041164656
0.00121329335274629,-0.0325098503459784,-0.0500137505347642,0.00531836251700707
0.032985825409774,-0.0520506364249647,-0.0515479102719711,0.00507623559518859
0.0564981764176974,-0.0505228732475408,-0.0525676143855155,0.00295779735323776
0.0513175540008662,-0.0412380350138089,-0.0434376872435385,0.00039514140556096
0.0134736661134277,-0.0435741006682386,-0.0296216358821271,-0.00169320354540507
-0.0254444656832927,-0.0395326923109889,-0.0176599517249601,-0.00307868409692546
-0.0327848418346978,-0.00921249852305937,-0.00910683494692566,-0.00386138785890965
-0.0140767590808538,0.0249568477674882,-0.00685194342484962,-0.00436929945177216
0.00618266498362514,0.0415382070873079,-0.0117365424928317,-0.00458649325260658
0.016100793673095,0.0476704048093151,-0.0153307606484093,-0.00388777378663578
0.00534247198280811,0.0518580170564492,-0.012451751708335,-0.00188501425022886
-0.0451700233048678,0.0519719521438609,-0.00759574020678892,0.00098600841280074
-0.127614317359837,0.0313218386726908,-0.00144340378813483,0.00316067395535765
-0.200110539838707,-0.00857811839936161,0.00323833116867351,0.00273616831527301
-0.222212421010701,-0.03625085102751,0.00261404817433024,-0.000182493941475986
-0.190070501790232,-0.044442272138387,-0.00189205079563611,-0.00335003847568531
-0.133674598313025,-0.0517810551811137,-0.005331967011731,-0.004612769041954
-0.0783381721635003,-0.0629548813330441,0.00116123601253287,-0.00320857432715023
-0.0395669040285595,-0.0665681537804478,0.017570968962632,0.000131289321637716
-0.0153207296565215,-0.0538925584045119,0.0341883144001937,0.00399046782417778
0.0112171143606826,-0.0288428059523914,0.042798001059928,0.00726646497628104
0.0372942585678206,0.00413828233700005,0.0421736196365706,0.00919198588361385
0.054271731147927,0.0457009715425622,0.0439605094953771,0.00904637058114033
0.0783224577233147,0.0781700738026795,0.0543679910317019,0.00637770813764914
0.1155634725892,0.0829993643959548,0.0567165307877067,0.00205685809575243
0.127619971789763,0.0746294519298709,0.0378562599932599,-0.00149892514044969
0.0884682471581315,0.0642869232627542,0.00802655447671001,-0.00250118734007679
0.0364937412107602,0.043835492879882,-0.0120271630002916,-0.00132296975284367
0.019037642194591,0.015113716466764,-0.011025533307739,-5.3160931486202e-05
0.0226414936521812,-0.00471460299679446,0.00201733614188347,-0.000447917939348241
0.00317555897357236,-0.019567627213687,0.0108922413144765,-0.00186429326376613
-0.0528769186077606,-0.0628155536495611,0.0104979370663483,-0.00286301960015138
-0.126034690445579,-0.124682451337992,0.00795304785321989,-0.00293754471492536
-0.171473625874987,-0.1422280028154,0.0105813191622287,-0.00158000164043078
-0.151810005436842,-0.0862340173127093,0.0163430224041762,0.00101095834947861
-0.091470175811257,0.00738975824569851,0.0212049674706338,0.00334427840948599
-0.043681203042718,0.08363431552305,0.0257121856331481,0.00420717998274998
-0.0393988870527357,0.118855555801853,0.0324200224096899,0.00348017211460147
-0.0687422985593641,0.125350967633883,0.0410499406709156,0.00172123834159216
-0.0865708313285376,0.108531861668738,0.0449285237448637,-0.000426987028443602
-0.0665218712835186,0.0710185580572012,0.0388095246434943,-0.00180616195083604
-0.0206894959354944,0.0377517832208947,0.0265344750126279,-0.00140426080327271
0.0256625689680937,0.0181521022283104,0.0133375735695853,3.49908725683621e-05
0.0595708938333739,-0.00272213565623045,0.002176715073589,0.00155392111136014
0.0890130667770061,-0.0272204356595898,-0.00640762164709772,0.00295776366090835
0.114788335319199,-0.0462812883280987,-0.0150316109894195,0.00365697190001686
0.118620318474009,-0.0545136054790155,-0.0245100155474676,0.00339177364388297
0.10011221836807,-0.0612119696378559,-0.0346138233930954,0.00284507973631959
0.0855604784091448,-0.0779257218537351,-0.0434493278954236,0.00271434771683895
0.0857573330395164,-0.0915539896098054,-0.0481508055772922,0.00342805640859721
0.0886180964694186,-0.0863775430225809,-0.0484569421665125,0.0050761935999829
0.0826549968674426,-0.0660116038007516,-0.0454614710047044,0.00661431125014882
0.0621217894864634,-0.0386368212221447,-0.038656243441585,0.00640159348239432
0.0298848999389838,-0.00371513015521548,-0.0288625577672292,0.00400449533194484
-0.00576706546887723,0.0354532966985706,-0.0209237375976537,0.000671062274453172
-0.035108465230153,0.0591892002875417,-0.017649584069374,-0.00190309431825529
-0.0467019942455512,0.0570644638495584,-0.0164539199352866,-0.00300068621960345
-0.0379741272298037,0.0421344022596677,-0.0119218234481838,-0.00329629489852309
-0.018053868596012,0.026972762446928,-0.000451383785676207,-0.00414504014055816
-0.00268178491603447,0.0140804042912122,0.00811651793178104,-0.00621931110899239
-0.00804241080842504,0.00447593768526385,0.0020601365729782,-0.008473157603314
-0.0279189580035645,-0.00246713323325077,-0.00658123864409565,-0.00864317656031174
-0.0361688363647513,-0.0118230269772507,-0.00380678251783079,-0.00561608583124511
-0.0159494265133263,-0.0287780993165356,0.00442945010036457,-0.000590870696213676
0.0229174550105928,-0.0502188257080522,0.00695601320535214,0.00458724704384053
0.0507458887048539,-0.0594471401345719,0.00484307858727099,0.00826809627285423
0.0587909373619514,-0.0414501947051363,0.0130708210600077,0.0092416771539368
0.0597455739987832,-0.0065401278188322,0.0354451592537528,0.00768591699813608
0.0515668514311564,0.0168794587355371,0.0486085555736451,0.00447187556967664
0.0221408891852213,0.0107252328893462,0.0364701856416295,0.000617422521661123
-0.0335769983077862,-0.00956219266062638,0.0152689743889147,-0.00242096731812921
-0.0946860996229649,-0.012038124562964,0.000323081400349548,-0.00316303647187569
-0.114740204041584,0.00490748775504483,-0.0113340255678474,-0.000738008014361226
-0.0787450920915699,0.017159155716765,-0.0238099262307937,0.00323036845451495
-0.0273354760714933,0.014544121736154,-0.0323464379224949,0.00433475827195955
0.000841118495184506,0.00427864789096895,-0.0268714590276245,-0.000772082143770004
0.00906196602405403,-0.00989301596759304,-0.0113515901611472,-0.0100069190889001
0.0145132153562068,-0.0232256162590939,0.000407179469166793,-0.0165306867678028
0.0184484061975736,-0.0182247429515042,0.00797194093417562,-0.016646306784871
0.014443293245486,0.00395585217278823,0.0164428229884725,-0.0134200234840883
0.00879010192818435,0.00918326315927932,0.024703817289618,-0.0103928149601001
0.0232169061601186,-0.00975464257006361,0.0293045281718996,-0.00724834769078295
0.0719744595974066,-0.0176414279267846,0.0315444694337203,-0.00182036225489179
0.124968672662396,-0.00760275355816283,0.0334872594029245,0.00666219419855214
0.123759227252984,-0.00452768507287311,0.0334797479556881,0.0160795293536084
0.0655587875992294,-0.00800942696856423,0.0332953117517347,0.0228231191200853
0.00744264716161,-0.00283005119152033,0.0337162996147463,0.0243126752729042
-0.016717998081193,0.00829558743875872,0.0313595002283063,0.0191559806144347
-0.016484830688711,0.00927074770735151,0.0245329298952215,0.00794089672750492
-0.0118147996955459,-0.00760391458087162,0.015980295889199,-0.00463231990673812
-0.0222102854024627,-0.017640622852627,0.0083753371675067,-0.0130061976032642
-0.0712494109628987,9.16915447385924e-05,0.00158670563175774,-0.0156927861921647
-0.166655452461892,0.0269638705210554,0.00321035367497586,-0.0144852779598413
-0.26248163411488,0.0540505268952395,0.0203002273020548,-0.0117666368983434
-0.285296218362432,0.0811728558664039,0.036513695466974,-0.00926496712103779
-0.200176848330822,0.0846196220374852,0.0341939620377574,-0.00736870626251042
-0.0523850373079221,0.0618426143858182,0.0241234945400223,-0.00529256724162012
0.0553123805325968,0.04171529354974,0.0262650905505277,-0.00263596652408681
0.0753558610506796,0.026408718523154,0.0299292384134327,1.62260171856481e-05
0.0490139273822739,-0.00258830160239087,0.00921240694840986,0.00272261879371881
0.0294587579218955,-0.041729647880587,-0.0230608679719953,0.00644028929885442
0.0565764246908073,-0.0706794287519547,-0.0408691548707885,0.01082194955881
0.11939436005776,-0.0719593510797701,-0.0461445718234859,0.0130604740584769
0.15246802245437,-0.0633171142361709,-0.0494707609173128,0.0111103577112374
0.137839441824328,-0.0794261906256948,-0.0519271244079048,0.00649881095939035
0.091705716976215,-0.102059448681285,-0.0468529731649399,0.00233797883524199
0.0235930731881667,-0.0809132028405183,-0.0340614863324073,0.000659813004326108
-0.0288022583801798,-0.018732015975887,-0.0169057950000475,0.00110643962172366
-0.0367453477906205,0.0514242374618465,0.00506774087389195,0.00116687394370472
-0.0234195944386716,0.115041917526796,0.0212625708864893,-0.00140043864716204
-0.0311501836209743,0.141608296974385,0.0209733992956725,-0.00587595285770426
-0.05623450726781,0.109607481251362,0.00830694274529328,-0.0091816581506223
-0.0487260752348717,0.0369172003567416,-0.00506822583820934,-0.00863340025015296
0.00397503655531742,-0.037925162088461,-0.00542161632846249,-0.00382514473980374
0.0547774743241668,-0.062432319605043,0.0158662978569608,0.00285034746488565
0.0722347958200382,-0.0345969809317605,0.049136130497896,0.00767029407218204
0.0857188753451799,-0.0312937188568566,0.0714423382949727,0.00801847609308082
0.109157222183651,-0.0737239625165354,0.081876188523782,0.00473731956329529
0.0963207885153302,-0.084358345698072,0.0905360880161938,0.001657254052744
0.0345973229222295,-0.0407799725470909,0.0881155186887379,0.00153730471292402
-0.0280249232935289,0.00307469743725707,0.0689584901969049,0.0037574955438358
-0.0445731536653335,0.0186954289364304,0.0408108798149627,0.00557463165362477
-0.0191116057347372,0.0182729074659834,0.0131515278967871,0.00446561121922142
-0.0187315817937415,0.0181402371045712,-0.00320519417113646,2.48361304532865e-05
-0.0770554259883915,0.0237806926849125,-0.00186872971244978,-0.00501136168918344
-0.136133603651972,0.0376023706314472,0.0136621404489224,-0.00661120111717621
-0.139271507274238,0.0527140140704535,0.0321461680796502,-0.00466031607578216
-0.0969060859732282,0.050585969794526,0.0402873303565994,-0.00347568936836386
-0.048139982085858,0.0284914701311938,0.0361467267609378,-0.00536644534464748
0.000771771637174845,0.000884258208867721,0.0297854130592532,-0.00756376108717275
0.0538754321125483,-0.0274025781636738,0.0285935578687185,-0.00683163719880223
0.0809322887402608,-0.0406288942814029,0.0399002833387317,-0.00431304472414512
0.0679501874025836,-0.029544464546268,0.0638995882215622,-0.00341629167025978
0.0518955544127275,-0.0308433759348761,0.0817862335848588,-0.00426950732095296
0.0628809141001689,-0.0674636285497336,0.0816446528843984,-0.00318893045416983
0.0820719190753241,-0.1073270388047,0.0731729768565339,0.00178209764199031
0.0893441467005198,-0.105061789512714,0.0618072874185338,0.00777839247674611
0.0796373773189861,-0.0531250308404035,0.0464996725343946,0.0113855564148204
0.0527630849519418,0.0102809364277274,0.0351653204319943,0.0125158998815448
0.030678672908067,0.0556984688161286,0.0346652898140219,0.0121122525097651
0.00768169743462541,0.0859023804504912,0.0405647315630138,0.010581818548348
-0.033070413473905,0.0990055111485382,0.0454958415416425,0.00997852680471647
-0.0780112390819747,0.0919600283317817,0.0564664011302459,0.0118304298410504
-0.12849561006265,0.0918353649410283,0.0784314777726535,0.012109935750991
-0.173126419691568,0.123799036558714,0.098157609696193,0.00527037829168563
-0.17387793089102,0.157691382188236,0.107629978817902,-0.0071652842784667
-0.126553092469184,0.143429317388065,0.104717611679009,-0.0184073917323718
-0.0718440948184441,0.0775850963633822,0.0879429055566518,-0.023888623673678
-0.0308932443019271,0.000664742355931641,0.0704966873791137,-0.0239121583608171
0.0243714322561222,-0.0433313705932284,0.0643016541447551,-0.0225197440469266
0.0871780316486663,-0.045692491186334,0.062925637173667,-0.0237110568205679
0.0996627268143319,-0.030718999608533,0.0627663847064649,-0.0271446253974456
0.0606192810188936,-0.0256316444999784,0.0617170327756189,-0.0292305536608511
0.0405462885716257,-0.0459128846740061,0.0431929910369036,-0.0271971725164736
0.0607471093390791,-0.0775722543945843,0.000486125642375435,-0.0177419688713271
0.0683515415158814,-0.0689133947308262,-0.0502386298902079,0.00202206088317371
0.0339247381695791,-0.00159873864181281,-0.0784716365794384,0.0262528443432643
-0.02817965586969,0.0609582890840412,-0.0586467527049305,0.0430725762217123
-0.0822844038616691,0.0762236635288881,-0.00800012115510629,0.0471170641177446
-0.106739510849567,0.0596783760991037,0.0319877908488959,0.0411914622078355
-0.119945462059842,0.0367584714104698,0.0495122478740669,0.0301955837577235
-0.120583414323541,0.0466688399540314,0.0613634342056338,0.0180481413853892
-0.0842210004384588,0.0885789866224628,0.0703347171272928,0.00648933843231024
-0.0326670289528578,0.0971739622100896,0.0592972468317883,-0.00419524129208554
-0.00569922756553594,0.0493296066558515,0.0290805425697173,-0.0128245870844678
-0.00198056321245244,-0.00663948264348715,0.00144842219585823,-0.0170428672370732
0.00486520672044303,-0.0367192369497589,-0.0119348980454734,-0.0156752905966568
0.0117620920716711,-0.0236821481349433,-0.0179914074351979,-0.0116269781221771
-0.012468326739396,0.0425532878854288,-0.0212913218802724,-0.0105712573950562
-0.0499665965462725,0.107118047082927,-0.0205366418862006,-0.0153520967945904
-0.0461657611420802,0.098967248860399,-0.0223282208371292,-0.0234427938313548
5.91637122751981e-05,0.0131311289953981,-0.0305894347237121,-0.0289739284629045
0.0499432615782107,-0.0939914084660666,-0.0380871245780638,-0.0275057092461243
0.0825535911175345,-0.152638731948759,-0.043408127815777,-0.0198593624170724
0.074147657661721,-0.138420915659247,-0.0512064297134089,-0.00935679749640572
0.0250346655954619,-0.0844597792191529,-0.0540083760173185,0.00194113484797397
-0.00638653935666914,-0.0553402129183543,-0.0469664459555908,0.0120679011767141
0.00140363103607957,-0.0618321262792883,-0.0411041158091452,0.0189019605621933
0.00854870262322743,-0.0587153274588373,-0.0423248360095178,0.0225729863871529
-0.00884812686882183,-0.0398277443419229,-0.0476841051483059,0.0243841893949163
-0.0354060564588662,-0.0115671369482803,-0.0537850845992555,0.0238194896977158
-0.0345228812322691,0.0220404977801829,-0.0530650500518684,0.0192811498516375
0.0173769477497236,0.0237393732985551,-0.0437192780443183,0.0113598570167269
0.0909849289039125,-0.00698319913775363,-0.0285705042225598,0.00426730399247955
0.139661078725735,-0.0273523040944848,-0.00138125000514166,0.00206643817502837
0.161529944404805,-0.0347383711092121,0.0289331991706508,0.00346142337509415
0.159362712832187,-0.0390301305975679,0.0360070263689459,0.00364521827997316
0.126043688910098,-0.0384506200519343,0.0180827569058746,0.000628572612579686
0.0740085084746799,-0.0425325879691877,-0.00191826552633383,-0.00366465548002357
0.023172673652421,-0.0542651744403775,-0.0110634884192993,-0.0067583702143461
-0.00379459512675556,-0.0669939829906509,-0.0176607102536034,-0.00779413829411639
-0.00030126557224483,-0.0808315250553792,-0.031517638620226,-0.00712685070899205
0.0135232826303983,-0.0984176156099345,-0.0437637591387867,-0.00510616440288119
0.0164543125086855,-0.10639156209316,-0.0460154159571171,-0.00250280637397042
-0.00299747334926419,-0.088913774485737,-0.0492138971455209,-0.000359712726194602
-0.0372989010037147,-0.0583007610884708,-0.0597784121625998,0.00144348543733565
-0.0535920585866453,-0.0316255744696362,-0.0671751786232804,0.00341270160456001
-0.0257935939073696,-0.0074561974261497,-0.0632253616503547,0.0050715496561724
0.0211456054715738,0.00732100129766362,-0.0532374868189302,0.00579867721141316
0.0345964785876157,0.00420792677603415,-0.0471431568286576,0.00630505253731072
0.014213792200686,-0.00799092001583556,-0.0501609282039203,0.00755789139371254
-0.00451818067201842,-0.0165911680189248,-0.0580589205973815,0.0086015937908809
-0.00358136694138017,-0.0168738203739357,-0.0569212776241476,0.00751522282324594
0.0188061525889408,-0.0148771592228891,-0.0393227022684529,0.00423442920005564
0.0457497556890081,-0.0245020863472786,-0.0147815244050607,0.000539881125099768
0.0616870689401164,-0.0508972956111767,0.00551196459670242,-0.00186027805513295
0.0692535584528279,-0.0734222574493884,0.017718792618466,-0.00194837752122382
0.0825504173161189,-0.0798058509902015,0.0210270881245332,-0.000317622661778651
0.112040416287561,-0.0852495451369936,0.0168656873549855,0.00153651821920234
0.136674488168446,-0.086732164799529,0.00977244795490455,0.00302646767553933
0.120005058428065,-0.0696129814073166,0.00845001378668721,0.00367728972579063
0.0630383025003166,-0.0442979414931336,0.0211476000647644,0.00290619987057772
0.0157446048468603,-0.0251110589217553,0.0421829288939771,0.00137898491330717
0.0102423993534046,-0.00969715034577862,0.0509334659365076,0.00042367738379131
0.0118594873941376,0.00744784702954887,0.0471644169354286,-3.46436875036324e-05
-0.010579454561002,0.0316001272200322,0.0471468815436836,-0.00125964604045679
-0.0311149643746272,0.0664914902037696,0.044503953374594,-0.00353100232884219
-0.0293322900509274,0.104816562664451,0.0332880589345368,-0.00556717924660865
-0.0212320279063853,0.133103836104015,0.0286523936418734,-0.00602749428459878
-0.0155106480167774,0.137704198855739,0.0409945990622774,-0.00406005212274663
-0.0278045689423675,0.123295783320019,0.0589152440502313,0.000503607129065539
-0.0898464652724453,0.101136602288228,0.066861784786544,0.00588557960439622
-0.184587772222528,0.0756120922698027,0.0712067384195483,0.00956049779175358
-0.244184108390621,0.0703216052180639,0.0806793518138093,0.0102617569118582
-0.241523252309218,0.0804904832503271,0.0765156012693367,0.00753987695536735
-0.207098095756529,0.0521698241125529,0.0452371294100459,0.00219768719765095
-0.16077779664478,-0.00874607002553141,0.0114158411786219,-0.00348002656583044
-0.103344275853083,-0.0279978187947286,0.00383467820924499,-0.00895213888234169
-0.0277056341464852,0.0229679586517695,0.016835483434475,-0.0161989638699891
0.078461000652874,0.077729857705444,0.022175542680406,-0.0252709111660312
0.206002104896478,0.0559725051831202,0.00386960515038236,-0.0313952736980942
0.288901124879858,-0.0262814926702786,-0.023870442593491,-0.0291769255257203
0.27740173701557,-0.111465831481941,-0.0428223275515236,-0.0187408566750873
0.186699623944876,-0.163530933035514,-0.0474259839709174,-0.00437672574644024
0.0372860391955346,-0.128895461810864,-0.0184719336755094,0.00992409018695752
-0.118201061304146,-0.00706121104699131,0.0384109029392165,0.021025887728659
-0.220674633788776,0.0940297863593301,0.0730602874908118,0.0264459841188297
-0.238147725958151,0.11111827916473,0.0675362903797419,0.0257789686231658
-0.165169846705976,0.0958816718768768,0.0481797135009192,0.0209202009385383
-0.0568120056472295,0.0991459976155592,0.0364532411983155,0.0142494768996914
0.0145030733828095,0.109574439139844,0.0365099550372309,0.00744559502810614
0.0111139492846022,0.0968955661075757,0.0420888435945028,0.00101153084821383
-0.0330619458147633,0.083952335416657,0.0507743055396823,-0.00551443545223607
-0.053721925186496,0.109267241033122,0.0654000939564382,-0.0123992132900993
-0.052081491950546,0.125938588614886,0.0703071674589098,-0.0187674491396912
-0.0516708804058967,0.0661666994714149,0.0498921855725731,-0.0215693583993761
-0.039163150086392,-0.0407264263640111,0.015378870295182,-0.0171731717383958
-0.000580662847705422,-0.104158199957612,-0.0142366417211821,-0.00674451135391117
0.0314963225255291,-0.0844334363581448,-0.0245397072252476,0.00314127719687668
0.0203109563949099,-0.0255526834738251,-0.0191898441920469,0.00749215325002014
-0.00887780319665369,0.026991449102581,-0.0216448752897478,0.00707350299743344
-0.0253381613794007,0.064735437231105,-0.0418407156492137,0.00484545813429178
-0.0203534517907335,0.0655303140821342,-0.0621122626955682,0.00195325887854432
-0.00205698626661335,0.0181741177322706,-0.0656452372810701,-0.0011281077165018
0.0137644667160275,-0.0397130792544717,-0.0561336547475772,-0.00296316900243263
0.0259706365832162,-0.0618136201472816,-0.0423968724164941,-0.00293850720495698
0.0258001591333798,-0.0270616674680825,-0.0288418570516102,-0.00212333637603503
0.0427268771504145,0.0293063592274213,-0.016984724904732,-0.00205069601842296
0.114206409779226,0.0468609116233209,-0.00609272649426018,-0.00405417134399623
0.188750117755571,0.0139475357068891,0.00387386149634846,-0.0083948675251551
0.193484404421808,-0.0274959287319432,0.014037871661683,-0.0125757519899348
0.137956852230208,-0.032846162121445,0.0189071402815016,-0.0120427521331491
0.0774579344526865,-0.00461746832467525,0.00414489724942001,-0.00470137916291899
0.0212921393617533,0.0247050128222139,-0.0251147088760012,0.00626205738418376
-0.0403945936431516,0.0303840906486929,-0.0496757050098544,0.0152214863421749
-0.0891382280975849,0.0170388344380669,-0.0631990531787045,0.0189417359004566
-0.0804259943328123,0.00462005177078886,-0.0682482446994315,0.018638026383138
-0.0142833016386216,0.00499303488419796,-0.070250281499801,0.0179766603804209
0.00304401158589601,0.0298933995629179,-0.0698387356187038,0.0187050030003447
-0.0781168180479009,0.0591292117142205,-0.069809784433388,0.0189599914610091
-0.155630808631043,0.0476654758142828,-0.0777768464181408,0.0165096073679032
-0.138363334118981,-0.0061360118294819,-0.0859385807235947,0.0111234118176745
-0.0533531723598481,-0.0658512789187445,-0.0810715842347076,0.00312381325060353
0.0267035212514035,-0.112138978667125,-0.067046685769743,-0.00703163822528637
0.0735157614756069,-0.137775973915868,-0.0531509199577609,-0.0167079982187201
0.0913440987330838,-0.112187849700709,-0.0378795610055129,-0.0222281061514045
0.0818741312477806,-0.0334924992092626,-0.0248386421694625,-0.0230922193661303
0.0540963370360194,0.0363962166439362,-0.0265605004178897,-0.021884308640355
0.0122597671040057,0.0663077164071527,-0.047239774135373,-0.0200985762721432
-0.0230171789879622,0.0781631649943193,-0.083099180355798,-0.0161800244182193
-0.00305340473347716,0.0790552012966836,-0.118034619515369,-0.00877828621735478
0.0681834885873965,0.0603029414018182,-0.12614232913909,-0.000267662398880562
0.116732231889424,0.0380068017194417,-0.103778138615725,0.00542038625995027
0.104692218891804,0.0361702298473222,-0.0759929724562059,0.0068726069242663
0.0803421242566759,0.0331670412602232,-0.0548186836034195,0.00623229293231266
0.0658903686172118,-0.00660999264945346,-0.0306806269081054,0.00630548403522765
0.0334302848110375,-0.0687480279257391,-0.012632926457966,0.00756671534648668
0.00230191751085317,-0.0944120996839868,-0.0149021689437811,0.00885350727007496
-0.0179407203225806,-0.0597815614595853,-0.0212309201835558,0.00887063457982762
-0.070489100718568,-0.0188990997267077,-0.0195533452061702,0.00689762893321039
-0.14974067165051,-0.0175157299183391,-0.0239659518558687,0.00387273105522784
-0.197681545151168,-0.032634116744841,-0.0304871098456406,0.00166589485522076
-0.172434500786461,-0.0414131156304049,-0.0206888651049206,0.000829701986324045
-0.0977474066472715,-0.0433033075203926,-0.0042402724803969,0.000728529599493781
-0.0354446413724328,-0.0365204015513783,0.00365931615355215,0.00083420795233516
-0.00632975935957157,-0.0360059044840243,0.0064226551469585,0.000972062408135869
0.0062520929112064,-0.0441165918792223,0.0120411479086408,0.00107533330389586
0.0341662563980045,-0.0494953652824036,0.0164302759930751,0.000794371099716516
0.0826504181986499,-0.0529377816105453,0.00950789936824223,-0.000342967270408019
0.113605284502354,-0.0502035726476376,-0.005601510959892,-0.00194671042676004
0.107350332573761,-0.0377382479796318,-0.0255652258822203,-0.00325768317268828
0.0742569312803486,-0.0225294518779999,-0.0470036491939046,-0.00419660383760429
0.0299840060584091,-0.0120356934625617,-0.0573742859453517,-0.00494630015606051
-0.0136146596573254,-0.0108196019428077,-0.0560722911376141,-0.00573798100603102
-0.048823369496272,-0.0171293493722472,-0.0508815645724635,-0.0067303367020398
-0.0695224419325024,-0.0197787683102294,-0.0407169767196919,-0.00763986813523862
-0.0789538443171785,-0.0137743616683213,-0.0269101492223071,-0.00791495538639916
-0.0811538133469585,-0.0101013305743257,-0.0138537510363954,-0.0073367843391569
-0.0776689162516177,-0.0172073350274329,0.000683895359097141,-0.0059446361012733
-0.070845788086917,-0.026936745062785,0.0170394981259396,-0.00348404117334098
-0.0589528451275087,-0.0266628491600376,0.0301167376609021,-0.00035620504433205
-0.0430530471640036,-0.0161421387403143,0.0357583078211117,0.00167025333795928
-0.0185552035878116,-0.00745089943586309,0.0350293752214134,0.00148403523272223
0.0186275664684763,-0.0124423240171935,0.0334699874385553,0.000384672828491697
0.0511486575258875,-0.0296356121368978,0.0382629134168136,0.00218954448725998
0.0725887321534607,-0.0492282653887118,0.0557177495317034,0.0101147932543019
0.0873813769699178,-0.0608674664732817,0.0874394055142313,0.0203965688380535
0.0764225567325113,-0.0471366803440098,0.118819458288897,0.0244988027307523
0.0417044926910805,-0.00804808522765551,0.119089962581213,0.0188984927948417
0.023751647967786,0.0274120637928034,0.0848244195418462,0.00833171034928902
0.0329000196083156,0.0437902701990925,0.0519542503974824,0.00146191557221739
0.0346929353051308,0.0523226588252998,0.0405667131685152,0.00187793411642273
0.0150185429740485,0.06043287277417,0.0394502556332402,0.00345026234668433
0.000951060715239496,0.0658289454979719,0.0412006751492702,-0.00103863485695382
0.00250938592130477,0.0669065706709438,0.0413696609171269,-0.0110539798419683
-0.00664742580191301,0.0630826951645958,0.0347534435806709,-0.0204742389189227
-0.0330365519403129,0.0615424275703663,0.0247436919556204,-0.0246914210526702
-0.0502112585819834,0.0609340882693579,0.0128495525369273,-0.0234148033657147
-0.0486047471685334,0.0494538972805115,0.00699700039628512,-0.0182319214074494
-0.0675299743302739,0.0350552678216656,0.0138888162567402,-0.0118353866529877
-0.114172932027926,0.0255921781812453,0.0211169341621024,-0.00672068528043505
-0.129251628098127,0.00925174166339892,0.0224721416290315,-0.00216811151097519
-0.110195060891984,-0.0163101488457204,0.0247981817776447,0.00405391570801525
-0.0744297782602542,-0.0454652695372065,0.0199759635037277,0.011799958159176
-0.00744884518106237,-0.0797425756556829,-0.00247848502441057,0.0182428910381476
0.0564086131777118,-0.100112802107001,-0.0135476541756377,0.0215700248256901
0.087435130550066,-0.080250616056464,0.0112249560156536,0.0238034919308712
0.115839611954273,-0.0324370115230057,0.0428225987907113,0.0257456578500423
0.153981794617803,0.00891091102314251,0.050850630902915,0.023543422732598
0.172602236606971,0.0299379595198338,0.026703006417727,0.0157024637312232
0.151143784688495,0.0533475371222991,-0.0238703362343505,0.00601297528664283
0.0960116099607939,0.0921029521234692,-0.0689614306470813,-0.00177818686835556
0.0328802418034458,0.121620479227009,-0.0796989148779298,-0.00684145733728821
-0.0162602916500693,0.131683587754836,-0.0641948753935256,-0.0101862125659275
-0.0604933529089428,0.145583241589284,-0.0410267336407902,-0.0132011141759958
-0.13203648052262,0.1734749867467,-0.0117288600093361,-0.0171115879754422
-0.202829687166739,0.166392437270993,0.00985147527016422,-0.0222974038761737
-0.175847724817191,0.0823579800433126,0.00620760110159425,-0.0279393544146347
-0.0381604150501793,-0.0328808976790609,-0.00226087642850432,-0.0341440888418326
0.095055857182046,-0.116646754712755,0.00389096282706727,-0.0402363391303919
0.131329756009656,-0.170738188172521,0.00910006516320268,-0.0399663138798938
0.0845972590237728,-0.210066288882307,-0.00318733189776827,-0.0272051209712653
0.0137584187982685,-0.201585610510681,-0.0222570543510161,-0.00421264116775178
-0.0397346309123717,-0.145846556532565,-0.0305826367005836,0.0202799955868374
-0.0691574208779558,-0.0928571140743347,-0.0291601183147485,0.0370515572187541
-0.0699402614837007,-0.0390051841326679,-0.022117182156396,0.0412449551320571
-0.0411357807823686,0.0376864725700148,-0.0119356276659688,0.0339117260118537
-0.0118641311805392,0.102789592279544,-0.00869898561535313,0.020670802993892
0.00877993153675295,0.120797098839503,-0.0142995620115414,0.00846481895351591
0.00861279780579819,0.105330985025047,-0.0161973280778537,0.000934854553316232
-0.0228877939775783,0.0724384661512602,-0.0147954193902807,-0.00234756988594409
-0.0516630278085847,0.0362973025101943,-0.0191729267671749,-0.00338351533671198
-0.049575452585913,0.0242997009033625,-0.0232450839118533,-0.00418305220830628
-0.00884316627091304,0.0257816489853871,-0.0224228106917658,-0.00599918403177356
0.0147506405238059,0.0120345046720354,-0.0228762651333328,-0.00893297132195465
-0.0273095269679564,-0.00477398961582486,-0.0325684896973558,-0.0107798817893191
-0.0778731618343958,-0.00671157728372772,-0.0530970322743588,-0.007995741757611
-0.0801340427403897,-0.00410023000676618,-0.0718356679525586,-0.00123146150236928
-0.0358474301421884,-0.0103029435165025,-0.079692037249242,0.00350467235268212
0.0248422170020738,-0.0224087287918003,-0.0839556957933986,0.00305534538759911
0.0757853753071144,-0.0184383499744818,-0.0871849593294978,0.00131085428408695
0.121352310545121,0.0127238846228206,-0.0816423548511214,0.00128423588423765
0.164858718663873,0.038594694927336,-0.0699585213117172,0.00018274760299755
0.179219003152372,0.0221093505533537,-0.0643932001792914,-0.00404588655332444
0.14142025421321,-0.0259972423301149,-0.0679368723980975,-0.00827722737071632
0.0623220454978289,-0.0691591053775618,-0.0693567539278788,-0.00873669487671692
-0.0116290620586465,-0.0861057548000373,-0.0567335862956183,-0.00500792871616976
-0.0372566123814483,-0.080404176734872,-0.0359093166041126,0.000668082628748127
-0.0244903812776588,-0.0629358852028431,-0.0234675623211431,0.00599265438365076
0.00535969868611033,-0.0421328929632144,-0.0202101829893802,0.0102473088254468
0.040271107641438,-0.0168473744743948,-0.0165137152863785,0.0130123534904542
0.0242039189599244,0.0303200860991454,-0.0108661112853901,0.0139201619650938
-0.0776099035498675,0.0868517831510558,-0.0116768230514457,0.0142111732159258
-0.18574105362642,0.116366786170182,-0.0217699748636414,0.0159210187157794
-0.18794824657103,0.116157033421212,-0.0294377160322391,0.0185237164282329
-0.0973898988110077,0.0982770763650829,-0.0306345324927637,0.0183835256509312
-0.0248349114088224,0.0731378337748849,-0.0301561311563358,0.0141699384392801
-0.00216324957496908,0.0657392226702176,-0.0248876408753274,0.00893355730765305
0.0115814910039669,0.082624079204229,-0.00804579591369583,0.00492057969361851
0.0148446395241884,0.0951431978933852,0.0135848560658643,0.00130653856042749
-0.00853515725867882,0.0808446298498472,0.0192320898312183,-0.00264720164260833
-0.0285782709155606,0.0562030499425604,0.00802134771901653,-0.00612940225638596
-0.017184157605444,0.0375466865085668,0.000379268646592601,-0.00773525837554964
0.0118884780365007,0.0194068434245839,0.00312834058817802,-0.00671845501649884
0.0102126250256026,0.0253482649743219,0.0100823338709486,-0.0051341399324158
-0.0361746914481141,0.0685966174956269,0.0120511006033858,-0.0061841482148232
-0.0757306852826951,0.109464800278431,0.00755886167183614,-0.00904264578688512
-0.098829976598776,0.0967167901667206,0.00251484559573456,-0.00997436517009848
-0.113258840332305,0.0253457921731259,0.00344833419017031,-0.00793954172259995
-0.0995020701457753,-0.0360115014834027,0.0174759417853194,-0.00488888808054028
-0.0693143749788337,-0.0267146217677469,0.042504608692765,-0.00290565152961562
-0.0476409266220214,0.0265806983673882,0.0676300726261976,-0.00306487868842715
-0.0447670052843983,0.0534604042349025,0.0785999052486948,-0.00297052673283147
-0.045938020449923,0.0502143389108035,0.0754734959260712,0.00288359775706625
-0.0222468239409418,0.0576364138004567,0.0646279496798321,0.0149306931045958
0.0404309922301505,0.0363764473453915,0.0449753374097723,0.0284421500059305
0.112020763244279,-0.0478077908128923,0.0259418509789264,0.0399796780701187
0.124888207519502,-0.101455381119331,0.0232020031071132,0.0445666663601579
0.0624838660608065,-0.0523127465437676,0.0422954683020014,0.0376051920396802
-0.0321301849485622,0.0531166011005713,0.0723265067625331,0.0222113726480101
-0.117920690627858,0.154905208779851,0.0918000143326797,0.00548327144833004
-0.161803248259096,0.228474524917458,0.0878817513209032,-0.0089623296147994
-0.132642189913925,0.235490829959811,0.0610046283424558,-0.0212482581434505
-0.0405444211340852,0.140111030164583,0.0213444318948574,-0.0312435231008839
-0.00867825545477017,0.00566363776252934,-0.0094804165860846,-0.0388671079413729
-0.138227507043749,-0.0608949029339378,-0.0126854430583849,-0.0457960741284561
-0.318488889835489,-0.0704582836862327,0.00494399985368136,-0.0517555619598287
-0.366858099507337,-0.0996461233886251,0.023787699329348,-0.0524868136343303
-0.259304451399796,-0.141064443323666,0.0355439674585555,-0.0440161011676412
-0.0983090681809687,-0.142326888348055,0.043809959001862,-0.0274195267888457
0.0329414654537026,-0.085202927862967,0.0626907869816478,-0.00807281189444732
0.10473989508062,-0.00411034341003272,0.0845471225942084,0.00879341988274829
0.135656103712015,0.0356476301127962,0.0717057673895324,0.0208172114986088
0.158370648214499,0.0109098606235244,0.0192324754517278,0.0288733441568959
0.210721405956216,-0.0524951395776222,-0.038671752559252,0.0354006108459841
0.30839577865191,-0.130254265461682,-0.0754440575338971,0.0403738633198752
0.358324872376174,-0.188274332667807,-0.086291394337743,0.0409897676423689
0.259531656659952,-0.180683149998729,-0.0856197424229207,0.0361211852586677
0.0741726838617978,-0.124437390912577,-0.0890906374014734,0.0266372154539403
-0.0510105830004917,-0.082674318279178,-0.0962739030588153,0.0136251387934316
-0.0711275417462225,-0.0766003136333929,-0.0994203565326811,-0.000708213632366513
-0.0345945544008856,-0.0889093245205468,-0.0955638046678482,-0.0136520112359859
0.0199076240919587,-0.104181069675762,-0.087217102298262,-0.0230708650015095
0.0711610319991637,-0.101636586387697,-0.0750700209361324,-0.0268303295462498
0.0937570906330903,-0.0683635933482991,-0.0506380378763556,-0.0246685402178785
0.0886734271786013,-0.0422341587223663,-0.0225542622617227,-0.0199184582356739
0.0692280710471899,-0.0536772489573232,-0.00821688688468485,-0.0157804728698232
0.029724144128099,-0.0695312768230012,0.00882162366870715,-0.0124343941005135
0.012240875749068,-0.063018721544914,0.0432581499709551,-0.00946092924325331
0.0606456258575016,-0.0528552466246036,0.0793531008376033,-0.00758503029244441
0.119871298960951,-0.0523945655423518,0.0973599902364911,-0.00700836747860731
0.137523574539007,-0.0516370086964685,0.0853963813631472,-0.00614920778667909
0.120565316900636,-0.0649401406026271,0.0469676088808728,-0.00293155549116355
0.0851088312636197,-0.098680720216445,0.00237590462066739,0.00252445174225088
0.06114673563652,-0.104349787191729,-0.0343935140531762,0.00622895959715486
0.0680601736790349,-0.0686394259261924,-0.0602322786630685,0.00420679345018896
0.093633567206258,-0.0243195105976193,-0.065104900194641,-0.00231674383704843
0.0894665539613194,0.0169743081911484,-0.048694737780011,-0.00924667557816059
0.0321890520838655,0.034272337518059,-0.0326313870349131,-0.013624158499425
-0.0180979918793512,0.0195306913278415,-0.0327189045370245,-0.0140163029507618
-0.00617147199617555,0.000571684858107602,-0.0480482397244956,-0.0108859065943652
0.0574019732719228,-0.0320430219981822,-0.0719298221808402,-0.00567524988019745
0.0978289310813976,-0.0878872294266958,-0.0900848188642786,0.000789547231149178
0.0565207725554977,-0.126154041279306,-0.0754508752791103,0.00728609405624353
-0.0208150479121107,-0.122664023474207,-0.0311010971574765,0.0125157253448264
-0.0720236808692926,-0.0913503210869863,0.00913210860617088,0.0169151615932612
-0.0815103232301469,-0.0429376659452139,0.0444424080402386,0.0211752487443846
-0.0296514929642127,0.0147228278582215,0.0772059355521547,0.0234255666413457
0.077368279641984,0.0582369178093947,0.0842088348485914,0.0206780820500979
0.164734839095539,0.076536934686899,0.0625346914520837,0.0135786860456645
0.174453701526632,0.0682411749227804,0.0342811847095087,0.00586005052739147
0.141056657805738,0.0264723699316157,0.0206731528604602,-0.000580260697057848
0.108984322600157,-0.0126745726665638,0.0272317616938401,-0.00613671853041063
0.0830756590122848,-0.00446615425370852,0.0417474644631655,-0.0110518595961627
0.0822025193521214,0.0266129680198085,0.0547614053771975,-0.0148998735252284
0.0852687494535992,0.0465137654207015,0.0679939732182761,-0.0172945124369957
0.0236310648337532,0.0608620544083632,0.0749170745800198,-0.0181349513500178
-0.0865418071716328,0.0720432002667507,0.0705218320580854,-0.0168758182872045
-0.172386480208525,0.0763948345927977,0.0712848052645579,-0.013123385552803
-0.221762904747858,0.0865116331442377,0.0821787150457332,-0.00811138596670996
-0.233457093168943,0.111639461846509,0.0873034704873777,-0.00383837427919001
-0.200034597984616,0.137762052885923,0.0862754886208309,-0.00136189703185089
-0.154313864409659,0.139052939573029,0.0812903494828305,-0.000395870776565777
-0.114230985423353,0.111476826313149,0.062740075131726,3.04868751660218e-05
-0.0682609604749677,0.0702884382215685,0.0351326248873927,0.000621413570769663
-0.0192066174685824,0.0186830270140186,0.0143956420764521,0.00193033736111532
0.00905941762557499,-0.0355688948510838,0.0105915884436381,0.00493768146325626
0.00990698310450847,-0.058490136999414,0.0191786968601829,0.00965788180793753
0.00419171052025032,-0.0463787424972954,0.0228198901817091,0.0138974446282883
0.0298173719803463,-0.0705748692421468,0.0130842228999346,0.0152470969188341
0.0875811463272922,-0.137351258827435,0.00114333044372256,0.0134094981039156
0.0908894098394546,-0.152918653802381,-0.0048447776926798,0.00964634769227816
0.00602463524210547,-0.0825027356608737,-0.0160240285204818,0.00554144382960431
-0.0864816721263562,0.0334174256149402,-0.0311534743692324,0.00280670725077527
-0.111695191711084,0.126577873422241,-0.025041339728997,0.00129029512722607
-0.0652551110441906,0.153194050961465,0.0103759658506304,-0.0012652493539305
-0.0168631426881574,0.133091231631315,0.0481281446433815,-0.00500828437562193
-0.0446957424178385,0.114068271248966,0.0668340640461681,-0.00700319617075565
-0.145756316658506,0.131130097598612,0.0688097017425808,-0.00486664020193199
-0.268644087760064,0.16877255332845,0.0599942938628147,0.0010488515850281
-0.351295371049742,0.176464643865134,0.0504597987764131,0.00791643811506855
-0.334621988002134,0.128240881729306,0.0456215521205186,0.0118232054432819
-0.222991849081853,0.0457517797346168,0.0434273085166962,0.0109440161842592
-0.0889075209390173,-0.0126042599730893,0.0458369723129541,0.00781339871775964
-0.0369655382772996,-0.0292379980915368,0.0517334426255827,0.00701138089588648
-0.0763232227974202,-0.0270341839627247,0.0561014023328029,0.00960748103004943
-0.113910661247837,0.0418407519452321,0.0604827815981985,0.0117170004862142
-0.110643036069292,0.206332259499571,0.0672899755051397,0.00958456238429518
-0.0696509145134061,0.368596294109436,0.0675695979646226,0.00270150154382825
-0.00301042668384088,0.415554737378368,0.0525328773037592,-0.00706044671454911
0.0534500941581937,0.328350910265949,0.0435488569888141,-0.0160690997992255
0.072722733483266,0.173330101891646,0.0579145128509471,-0.0209030007775934
0.0744624952743489,0.0259517459436837,0.0610811990962288,-0.0211520861712681
0.0852890737956686,-0.0775920906048424,0.0397340000209945,-0.0183763755905874
0.0428951438283471,-0.145729991353967,0.025539398991621,-0.0128165081797725
-0.0753471760395525,-0.199896922606631,0.0158378343299379,-0.00344138348272983
-0.131425349388015,-0.238316545133724,-0.00930467592671468,0.00888962712169894
-0.0807140595242852,-0.240504231155094,-0.034764675764736,0.01984131021901
-0.0541713810195652,-0.179367737447323,-0.0465831407276819,0.0238469991662197
-0.0755512350117429,-0.0819588377184554,-0.0560145243479714,0.0191513282373035
-0.0334933647080056,-0.0110250456890086,-0.063055007899141,0.0102398226660924
0.0831575540331443,0.0239959846595772,-0.0655127858405186,0.00283129354137829
0.150812191507195,0.0329906777715575,-0.0756271765965353,-0.000403500331381275
0.0931608571285158,0.024627972173431,-0.0866600047530007,0.000841607852363367
-0.0070071418156939,0.0172591632335901,-0.085789046619095,0.00429238344740524
-0.012795886493133,0.0078191720208774,-0.0706054539009465,0.00648816075534791
0.0782497295701567,-0.0172445569266104,-0.0438879442169834,0.00588228263774208
0.162407832573168,-0.0419952235846776,-0.0235648943190657,0.00285443456380878
0.193721002389743,-0.0522845922042394,-0.0235405478230626,-0.0016864894919807
0.186946859952129,-0.0667266316735502,-0.0396211633704261,-0.00580062425912438
0.144407412835758,-0.0916507820957371,-0.0532838995212089,-0.00700368214336876
0.0803675212175519,-0.103428852175258,-0.0491081552680504,-0.00557702660207227
0.0358844553429949,-0.0815816437845188,-0.0401565329137669,-0.00487043107848446
