-0.00944281904623264,-0.00427622133170188,0.0150791170310639,-0.00691100758696853
-0.0094398280099891,-0.00679996910814425,0.0168739066661226,-0.00551804352848697
-0.00900273436924397,-0.00951227184549274,0.0255738513911009,-0.00383980706344409
-0.00570766266363794,-0.0142240490500996,0.0391355348903478,-0.00119460669886174
-0.000919266970737905,-0.0189210416560238,0.0443068081714615,0.00217668213187195
0.00625085845251136,-0.0202551318844442,0.0324479019988243,0.00495462530969118
0.010019900937352,-0.0200212057179785,0.0126169636199912,0.00619037944626367
-0.00065372043765804,-0.0216069974315316,0.00169216046706691,0.00595345352964537
-0.0212090907087739,-0.0251252143985524,-0.00147801936465725,0.00485941156646548
-0.0339882932577957,-0.0250578255353621,-0.0037050571976484,0.00368791257335589
-0.0299455955660229,-0.0206723184924582,-0.00302499073210875,0.00266433391865144
-0.0139657384834274,-0.0193287966845718,0.00137144288653987,0.00159830795872747
-0.000644926487588682,-0.0212018410769718,0.00268581589562171,0.000807725160568167
0.000246700882812773,-0.0220572499596787,0.00178618657259907,0.000862051542784241
-0.0038952620980329,-0.0238374606717696,0.00552542246728054,0.00157440506717287
0.00141033562533385,-0.0270535833401731,0.00891521063982979,0.00199430641442137
0.0151733968453453,-0.0297391632489788,0.00815057596406359,0.00160421851598513
0.0227697449902329,-0.0319404316123926,0.00831048425110319,0.000845334658319175
0.0210720201431465,-0.0331394053417733,0.0100653862630806,0.00036393590573037
0.0160156409967245,-0.0354112403023742,0.00560774757104006,0.000463244318947985
0.00755801466176125,-0.0349270794832099,-4.10965854949936e-05,0.00101607805418902
-0.00795458108111585,-0.0233011447030501,0.0047411592503358,0.00195371054727992
-0.0313622061352205,-0.00324488565686609,0.0146418490505413,0.00336507713986304
-0.0599426841517254,0.0128727907391306,0.0260213560312874,0.00458141632315119
-0.0813239143283883,0.0182859905676617,0.0420678105404875,0.0049410503544331
-0.0804784011684326,0.0187738449976133,0.0539677674072543,0.00467948005261934
-0.070241299263224,0.0176450480307877,0.05058252870666,0.0042598436459531
-0.0659588608512367,0.0101786758782269,0.0335891555176015,0.00417998611084293
-0.0515677881242317,-0.00120559230407314,0.0157225730532687,0.0044806707063869
-0.0258752372855273,-0.00737492044656768,0.00504438875663522,0.00460199042570051
-0.0130313171312207,-0.00960054058706064,-0.000693981099386596,0.00455109316416719
-0.0136156244754451,-0.0125573568981274,-0.00389492359729435,0.00468246444455662
-0.00746825340511695,-0.0168250203166612,-0.00531934423827468,0.00455518273587044
0.0103302117705695,-0.0230098508194546,-0.00899090008268699,0.00382419282751141
0.0306397322321452,-0.0288349513446023,-0.0130129971672007,0.00273827842036051
0.0451618513124888,-0.0332154609560696,-0.0113926438981504,0.00109024348800078
0.0466316927184241,-0.0354174046956352,-0.00513865015814714,-0.000977530732069467
0.0369772349848708,-0.0328245507497396,0.000856888969095768,-0.00254157686895475
0.0298022928112251,-0.0239790273445476,0.00289081987708486,-0.0031372905572227
0.0376274325263557,-0.0144889207081272,0.00292732633875846,-0.00260253112453337
0.0530731979973156,-0.0179941277172685,0.00246988848200148,-0.000916120364312662
0.0537000469848237,-0.0340216821758352,0.00330334911892739,0.00140620638387818
0.0366445928483745,-0.0441570471496571,0.00923459783235037,0.00322267519332957
0.0182935941493935,-0.0407629406594453,0.0133477590984566,0.00376493353130274
0.00798276226792786,-0.0337273567031223,0.00989581905545736,0.00359143359268406
0.00788578672168894,-0.0298385047575937,0.00607888234004046,0.00314560213621617
0.0221803253515221,-0.028937028157314,0.0050345921034329,0.00251499228648094
0.0389259968800021,-0.0270330393573108,0.00690471126788026,0.0020249694263627
0.0350993240710122,-0.018513043009147,0.00950537559922481,0.00142218943595601
0.014879635004136,-0.00886251078655391,0.00848892505726656,0.000451625996452599
-0.00307363168112244,-0.00615196295571068,0.00686133695065207,-0.000518672112066099
-0.0112149775981215,-0.00542604331783745,0.00756943203386111,-0.00117653430122879
-0.0084949191128639,0.00159168566222111,0.00635951446755913,-0.00169250429476594
-0.00250323345919822,0.0102146728932973,0.00411783611469513,-0.00237717629839114
0.00177289639695851,0.0109940142275181,0.00429425466148091,-0.00317295386967999
0.0117807913944402,0.00911853714380895,0.00351142044369289,-0.00376026469138819
0.0285133111625384,0.0059390442388233,0.0006179278574766,-0.00376658507852508
0.0455926034089205,-0.00844256209559486,-0.00132103739176872,-0.00301323016118961
0.0602117818566596,-0.0277786818038303,-0.00126620932872862,-0.00178137963144066
0.0702809179186848,-0.0432926579021536,-0.00568510702171433,-0.000692624452651834
0.0700223962374381,-0.0491607278766794,-0.0126634190586386,-0.000435060212668601
0.0594873120021256,-0.0403949710009553,-0.0137755699476632,-0.00126690338290858
0.0486438051198616,-0.0277985245582266,-0.0110475743587766,-0.00255262092880478
0.0351502293585992,-0.0188585974625668,-0.00644765137148449,-0.00340746294325203
0.0188658005891218,-0.00517231404150932,-0.00235280877176628,-0.00389924458318068
0.012464625253056,0.0154645976793328,-0.00231915330925644,-0.00505195392158706
0.011257718227695,0.0257123480682121,-0.00514643931629677,-0.00660187178306038
0.00534735656267294,0.0170065728808399,-0.0101194909255131,-0.00636367483219726
0.000820826084495213,0.00515537046640601,-0.0143177012875302,-0.00353076202729018
0.00822030211736098,0.00129384734896926,-0.0175558085418786,0.000263056275826735
0.0224971479284368,0.00165922520919215,-0.0223016014678936,0.00326062646015116
0.0250102268225726,0.00139570837486594,-0.0251547444309823,0.00448582740400705
0.0200246906694015,-0.000167454947550029,-0.0234128325515771,0.0036155797547543
0.025601448225198,-0.0014089129744523,-0.0216688217666727,0.000962185798263502
0.0399135662441421,-0.00212889990661186,-0.021926111231598,-0.00247549436787551
0.0589786973017006,0.00230102782325456,-0.0217201872298095,-0.00473949881614556
0.0687340503023554,0.0138905930663066,-0.0224964870599315,-0.00466196028789063
0.0462145355076108,0.0219191854915658,-0.0232118232671226,-0.00294866667734373
0.00235858619845454,0.0216409674932996,-0.0191925371270376,-0.000688687885462613
-0.0397505291264583,0.0217496847575447,-0.00921680268635632,0.000842712139809609
-0.0745815374878742,0.0278101109496841,0.00373275140521255,0.000673354609396625
-0.0974637772109302,0.0340968899095301,0.016097901625162,-0.000708471903670123
-0.104369593799247,0.03325702797988,0.0208852895446581,-0.00208813165523994
-0.097336945754294,0.0287298537446989,0.0136387484908258,-0.00251312455009769
-0.0842386069421581,0.0258711589566683,0.00234696782671868,-0.00165998036059977
-0.0720460835722917,0.0225638507565755,-0.00476395377615039,-0.000154137179838729
-0.0632690596122695,0.0154340086394881,-0.0086175617666117,0.00115311155266738
-0.0613470809578063,0.00898983231025174,-0.010383995792413,0.00203628444173829
-0.0579286604654428,0.00919091273234655,-0.01196136047082,0.00220459900174712
-0.0392016277246072,0.0121624538968445,-0.0135889146142941,0.00133644050233837
-0.00707556798130285,0.012372529733515,-0.0121408178995343,-0.00016106448556821
0.0315801737056499,0.0105568861505112,-0.00813594655236138,-0.00136227042520202
0.068383005897081,0.0126285431655804,-0.00727037245646075,-0.00161552199851138
0.0903577406078023,0.0181608103618089,-0.00876876809232792,-0.000975396428414286
0.10050432185396,0.0191577749420242,-0.00780974412536704,0.000119219889477876
0.113721012103913,0.0165951272707916,-0.00756178485468262,0.000830027049470232
0.124489088173164,0.0168680979396244,-0.00836215615597567,0.000445037261745496
0.102510677067416,0.0185905239478108,-0.00729830468569177,-0.000890310248338996
0.0429788967466297,0.019568397555299,-0.00586761008860708,-0.00223216902806341
-0.00672328199077715,0.0175764550003848,-0.00841068547935612,-0.00259481460397271
-0.0174159537227005,0.00931034010699328,-0.0109036458105292,-0.00228535646224719
-0.0254012797878447,-0.000612111404732183,-0.0103597597355452,-0.0017614059452878
-0.0547322396686424,-0.00481252108497654,-0.00830565144547822,-0.000309781541186664
-0.0780064628875661,-0.002839964149779,-0.00135564173668316,0.00245496156931541
-0.0758845688310511,-0.00181517727609735,0.0041820659778758,0.00560555771999313
-0.0596358725950295,-0.00562036460264153,0.00481544819798354,0.00775740752755271
-0.0443082154086778,-0.00470433173189864,0.00702309104273555,0.00822746650307874
-0.0310569271196446,0.00537580765811694,0.00978835341871672,0.00697173169210878
-0.0236230724139322,0.0141099629952736,0.0164977807809311,0.0039608359382501
-0.0259708521063569,0.0175644279502511,0.026022536798798,-0.000592648368522197
-0.0162061170638086,0.0170894655298913,0.025987661188075,-0.00529127270633313
0.0188731448962576,0.00590335814302117,0.0185105706510223,-0.00804153087471613
0.0527281518797276,-0.0192146207481358,0.0146428462072945,-0.00773529311805914
0.0662546600505633,-0.0450826796854641,0.0131070894145692,-0.00501746239420595
0.0677477385668467,-0.056740192508137,0.0109019580210833,-0.00179993901769995
0.0673601783039537,-0.0540957676076065,0.0109994271816895,0.000430474645253389
0.0646663579686116,-0.0456851554923607,0.00840896116106013,0.00158112701953288
0.0578357717270047,-0.0384894886520687,-0.000509691797743538,0.00214178384333183
0.0514168938237422,-0.0369158913468017,-0.00728100482514361,0.00241555081990771
0.0469373780983299,-0.0362649479294406,-0.00798845963678363,0.0024824301612132
0.0401285148480379,-0.0299570073592789,-0.0080192988320647,0.0021854130576402
0.0288046679942498,-0.0255583337251676,-0.00701156760219653,0.00134365871775338
0.0151215035532167,-0.0234186363547168,-0.00336065321428909,0.000255485219110624
-0.00118356257477814,-0.0122180776967875,0.00137870132662937,7.90470035208642e-05
-0.0176082576363998,0.00722073705798884,0.00806175863654351,0.00137296303446385
-0.0254530560420095,0.0295428770420651,0.0130686570380113,0.00239596795746138
-0.0205304202580526,0.0493884134315353,0.012942155049421,0.00160287831993545
-0.00922042768371351,0.0462658808262018,0.0115414122713878,-0.000109795395877816
-0.000514833361111654,0.0104265145065184,0.00692040983287898,-0.00123990559939421
0.00668486656588569,-0.0335827716224834,-0.00206706725089663,-0.000995063445348522
0.019204945858517,-0.0619621672802341,-0.00911230674467389,0.000495311022644105
0.0385924426884604,-0.0701461289491668,-0.01062011369486,0.0019698174665505
0.055324983684718,-0.0597500764578486,-0.00806669238823947,0.00218528549818041
0.0563204978293291,-0.0421714487592916,-0.00512243306668409,0.001208254100811
0.0469211878798676,-0.0298152471544594,-0.0033452530852704,0.0001132988187504
0.029454608698556,-0.0144140661784273,-0.000981667660564935,-0.000639670992835184
0.00222611950092627,0.00284759265091227,0.00146774083565753,-0.0010098814267971
-0.0118657549660316,-0.000700943762320644,0.00217817385350616,-7.32265287444534e-05
-0.0015663622196583,-0.0182743798964273,0.00457535540541241,0.00201288982433659
0.0124918734163901,-0.0218647024554207,0.00628545798745622,0.00332459023808982
0.0167666940997121,-0.00443296925909626,0.00072779629798145,0.00258403325074274
0.0204390849199608,0.0193835600073093,-0.0132275751371648,-6.05305574269046e-05
0.0284135283628158,0.0320755118577665,-0.0261372880352261,-0.003147020753663
0.0315951555651122,0.0313923345938836,-0.0281857918688907,-0.00525984486452358
0.017790994994495,0.0236521892408403,-0.0235750056475979,-0.00611394245508725
-0.0136118140214029,0.015079922825344,-0.0130458882020995,-0.00535162534428651
-0.04334803348744,0.010203924361097,0.00262521130035007,-0.00310128398266496
-0.0509225246107712,0.0101611331161175,0.012189841635848,-0.000802927390278273
-0.0352836496759343,0.0181265553715237,0.00864766844695847,0.000749152950795524
-0.00720682806238257,0.0348195805035656,-0.00540364688926209,0.00186879111649895
0.0159319508320009,0.048836773846601,-0.0175198725118047,0.00267624476522756
0.0198372338469786,0.0480115415305319,-0.0216501634049753,0.00303108698761993
0.0130787649575195,0.034069002579376,-0.022827322703265,0.00260153451528495
0.00893403834191336,0.0197584215943565,-0.0235550788412519,0.0013210094575085
0.0123913080470827,0.0145665180011705,-0.0191269914151518,-8.92547162227608e-05
0.0226558821562329,0.0177821807268313,-0.00583277780669365,-0.000818941813411725
0.0272772689552119,0.0248694519841375,0.00998290763238691,-0.000984766263318634
0.0186628133639667,0.0276874194563407,0.0198952767520501,-0.00137931507087093
0.00149692836238259,0.0220130327774849,0.0169844489282757,-0.00220203600513027
-0.0237125424275409,0.0165580025794687,0.00679520410175473,-0.0031736839385267
-0.0497543447489272,0.0168310466972416,-0.000891160634723616,-0.0039789261007296
-0.0575359999422577,0.0166998351285647,-0.00693546824509422,-0.00402458376488668
-0.0431034942980698,0.0155960502719069,-0.0137260265476836,-0.00299729728606231
-0.0249581895856085,0.0166797713277506,-0.0173306999284871,-0.000940060158860374
-0.0207255617029432,0.0165519191889251,-0.0118545516638117,0.00157000878629777
-0.0263835712122701,0.0122400648532274,-0.000898487412533136,0.00296137076479446
-0.0301875988053182,0.00590323017551009,0.00804738029933329,0.00218797163113207
-0.0336412647849233,0.00222434683149521,0.0113493924827611,4.70196137542767e-05
-0.0386965354431495,0.00216357706711992,0.00791061314016556,-0.00169240476599527
-0.0398829068530968,0.00273006724606184,0.000721581150731863,-0.00225558729761232
-0.0367912550300431,0.00471357146299583,-0.00314579760213063,-0.00242312351887877
-0.0314563943676793,0.0150825703451126,0.000362393015975428,-0.00289646811593891
-0.0235523340837575,0.0314751383640973,0.00381113688874026,-0.00361032745883839
-0.0142767935102898,0.0344743719411099,0.000644291718580844,-0.00409506292970758
0.00110565199986622,0.0195038183192711,-0.00225835154339645,-0.00366410547610302
0.0126366397361717,0.00390015278451155,0.00122836763859093,-0.00255685772830007
-0.00657194661548504,-0.00364107217588053,0.00621821552800241,-0.001434559443346
-0.0428494377783497,-0.00469754583386608,0.00726029921125647,-0.00021568943745304
-0.0595060438145655,-0.00651884468725415,0.00744179616827268,0.000677014328967509
-0.0533936782898522,-0.01660643615266,0.0059859917301318,0.000459102016009352
-0.0395494308227797,-0.0260231294260439,0.00299963752478252,-0.000533421990034322
-0.0310425580770656,-0.0233870278174644,0.00424098301255137,-0.000796363610968408
-0.0373181629439304,-0.012732818809109,0.00881721837275554,0.000672271447166396
-0.0462399863811708,-0.0035930178829775,0.0160069577028997,0.00285743846962308
-0.0414717614978695,0.00499166390331731,0.0230138060804843,0.00405594757028018
-0.0314658818663478,0.0320632009845892,0.024750261465593,0.00374420370440389
-0.0258389547443875,0.0647370337417306,0.0181281629688268,0.00303197849665524
-0.0207848888331808,0.0547070581389584,0.00492891779509245,0.0036772732493551
-0.0115219760421009,0.00680922581654313,-0.00404283462892946,0.00565053306633936
0.000241817710317633,-0.0317840285616409,-0.00693598134919759,0.00689804976561767
0.00373689411418886,-0.0418381056390453,-0.00826294739705638,0.0058837025047414
-0.0024443506867548,-0.0314945848941778,-0.00721869064295609,0.00257906996127634
-0.00308228781560355,-0.0119107630703319,-0.00185419527860031,-0.00184181589241919
0.00380290555003023,0.00188357587907266,0.00211706163599649,-0.0056402977124331
0.00491914960676051,-0.00211754262085182,-0.00134146968122593,-0.00725984780793813
0.00455856505236724,-0.0136336012712732,-0.00483851446251785,-0.00579634779770932
0.0107713256954905,-0.018830476030076,-0.00690223179292522,-0.00216690116038629
0.00846547702529115,-0.0209013615681386,-0.0109032504467506,0.0016156411082997
-0.00749980221911093,-0.0215598959254651,-0.0122181200753934,0.00441172807717132
-0.0192154884227695,-0.0172730655078506,-0.00900120078016344,0.00574418258140528
-0.0177136818444143,-0.0124028594814636,-0.00780426472841267,0.0054644499347728
-0.00895114550415373,-0.00799637949741375,-0.00989659535328156,0.00436187432843576
-0.00172644761518177,-0.000381610104682887,-0.00920771466232484,0.00338526034711331
-0.00384628813184409,0.0047972791550294,-0.00680693757337921,0.00284167975587233
-0.0167091634192884,0.00215640619291054,-0.00628937414492851,0.00293524831275952
-0.0322845393920285,-0.00283518530696691,-0.00706017791592593,0.00350733006335758
-0.0450110613520985,-0.00229477111090051,-0.00643760907552697,0.00361415345875787
-0.060312313142105,0.00552036953483413,-0.00305055694416866,0.00252609529849971
-0.0691218619237998,0.0107475070448033,0.000423077853998925,0.000676873740088833
-0.049736968091033,0.00870206602592802,0.00444084452315904,-0.00076289955608346
-0.00273044978861733,0.01456821898794,0.00955495912201153,-0.00124580095404754
0.0512352048503351,0.0218036295351073,0.0120023422211582,-0.00119719005916186
0.0876789145168903,0.00954868669047083,0.00780574476681426,-0.00122991893953992
0.0893431893929671,-0.00907300878512206,3.51841299059304e-05,-0.00137709021488855
0.059573958543509,-0.0161411099989794,-0.00254697925441991,-0.00112971830980131
0.0217854565761367,-0.0117524369778105,0.00132829662488849,-0.000472165532491379
-0.00379101374237342,-0.00231942629161734,0.00613636924477523,0.000354377759767536
-0.00672577596542241,0.00723760852061368,0.00731020113421364,0.00105813282818997
0.0110074809249228,0.0135840658671984,0.00733678834833188,0.00103379465903427
0.027290103549261,0.00643391438971543,0.00517210346927182,0.000124428928159295
0.0236681895981597,-0.00887973085850467,9.22360414612137e-05,-0.00140774994409888
0.00942044186671007,-0.0154690668048231,-0.00470134053710592,-0.00282965254163513
-0.00157441455813308,-0.0188806416053613,-0.00756427569666833,-0.00278014048626324
-0.0099799427690489,-0.0243563021484487,-0.00804516778525159,-0.00070784658316196
-0.00747976102140919,-0.0268576687849025,-0.0118393267553151,0.00215929656580457
0.011693073689066,-0.024469921959089,-0.0153521480864503,0.00391728750040257
0.0295482380896895,-0.0141028931781187,-0.0116810774703236,0.00352213899418959
0.037019962468656,-0.00105611200150013,-0.00699947894448938,0.00149253159920628
0.0478743268071519,0.00478095050897427,-0.00564472871083045,-0.00076265916018015
0.0613795244519278,0.0021395382312942,-0.00637895974369081,-0.00230975069814255
0.0578007613823225,-0.00330939904966339,-0.00976109165122341,-0.00279123413427808
0.0396082662739022,-0.00537975540392806,-0.0146953677241959,-0.00228597718060012
0.0299415517011911,-0.00440226664845573,-0.01719742898148,-0.00144960371604284
0.0329316095537306,-0.0045896586117344,-0.0165040592731775,-0.00109492512704893
0.0345023687271463,-0.00711352631685438,-0.0128296966411463,-0.00147075321252049
0.0287678995683811,-0.00718410206763378,-0.00221229274964831,-0.00183665659682774
0.0221825837304715,0.000682444250647653,0.0113646360227627,-0.00173139391100783
0.0219083297458854,0.0134354672128028,0.0186639195279524,-0.00183659176669522
0.0218764332085454,0.024029813915558,0.0209948901757575,-0.00253173108774458
0.0140127274477126,0.0261291896668921,0.0219125487636241,-0.00313193375227549
0.00644699438139328,0.0176370993324628,0.0202473721301556,-0.00285446339915704
0.00673041877883341,0.00936491534542058,0.0182249012221208,-0.00163051546196234
0.00762808872002006,0.0107543614990762,0.0134117287082696,-0.000177534132244718
0.00561019061417323,0.0159295805789084,0.00231503107330493,0.00100861534109673
0.0097577709723936,0.0198008804897788,-0.00767607643228489,0.00230804373937306
0.0222509396356578,0.0226782882318056,-0.0125674283674526,0.00353419363795656
0.0343650380073205,0.0257436760937578,-0.0157696825560855,0.00382725336943952
0.041537488447638,0.0298447226964612,-0.01734830796338,0.00321770420905607
0.0369347345937313,0.0305964165724331,-0.0187844186737256,0.00234716510272931
0.0147921434862931,0.0294307318024897,-0.020676692064924,0.00186866895492332
-0.00487267054201492,0.0306081800145178,-0.0203562841306391,0.00189086416816636
-0.00150802462047257,0.0284185744362752,-0.0193376888319776,0.00157923604893948
0.0101004700330795,0.0206564266023632,-0.0159218785956866,0.000637930954746995
0.0059534413615736,0.0119560076828885,-0.0107657580037893,-0.000285577774337758
-0.0178122640977563,0.00701009126780888,-0.00755061261156028,-0.000887324666699294
-0.0464172452368,0.00701112660350062,-0.00373633994381794,-0.00148160553457402
-0.0637011969226367,0.00718956373468637,0.00105140175952248,-0.00213043883588202
-0.067060927342651,0.00441291428564729,0.00478345934430999,-0.0024639167940826
-0.0558057763978574,-0.0045975346434237,0.0101843441925065,-0.00262093905913083
-0.0392649605850862,-0.016912555643229,0.0150310606169031,-0.00295605533909684
-0.034145271667172,-0.0190068761578406,0.0168166765943541,-0.00311561780878087
-0.0315716910496795,-0.00920166124377629,0.0198210428972961,-0.00235428973317014
-0.0142008141545187,0.00355042417192439,0.0227464609307331,-0.000899237884493742
0.00830538920850549,0.0137893365554345,0.0217125920029008,-8.04124206350175e-05
0.0190950298966004,0.0179845236836344,0.0184321279527863,-0.000200387647977325
0.0182387492111094,0.0194854805028718,0.0162971182574993,-0.000571935947115119
0.0133480199367849,0.0195922091821143,0.0117101808897746,-0.000755912796811676
0.020257036845649,0.0104189975752479,0.00255391648674361,0.000110894431102661
0.037341505474432,-0.00200987998294015,-0.00234083577167763,0.00244544637121352
0.032340104277014,0.00455719614806258,0.00134635900714556,0.00487428885717576
-0.00738582001051465,0.0345619378462643,0.00766956804577653,0.0054092494277423
-0.0546320604868595,0.0564042931732755,0.0108721617559085,0.0037624867390707
-0.0751601269036793,0.0428744039648649,0.00673654760007486,0.00164879048568878
-0.066575793545977,0.00646312398722939,-0.00236521614109652,1.74890523607675e-05
-0.0481299873135261,-0.0311488007856542,-0.00783093233877187,-0.00166458990799161
-0.024014113903241,-0.0594414222041574,-0.0088419028724045,-0.00311198257958839
-0.0026846813566177,-0.0708683685081902,-0.00849874094954442,-0.00321185647116703
-0.00695075301126456,-0.0621423048699791,-0.00380216179891339,-0.00198894048828238
-0.0320453416820238,-0.0422842822696847,0.00405301597000999,-0.000930786347833125
-0.0471528131247748,-0.0275890626653648,0.00845149998458157,-0.00136151393884498
-0.0401920187022604,-0.0224606840386026,0.00855267357841358,-0.00298464598556594
-0.0244374975238048,-0.0196613663362238,0.00874702197205568,-0.00447289142257401
-0.0127390986352144,-0.0148470268684118,0.00888019843019655,-0.0048813406133074
-0.00799814953122913,-0.0133726781453944,0.00427090449852453,-0.00377699883774006
-0.00455852352868395,-0.0203021017150126,-0.000537998542566935,-0.0013490339993314
0.0040517910728183,-0.0284776107288095,0.00147973774102664,0.00107624719388965
0.0138642334949823,-0.030531802051251,0.00587068825851837,0.00232860499218919
0.0170588394402058,-0.0304240220081038,0.00655659117363021,0.00246102093676652
0.00771428982998979,-0.0344382992057297,0.00295002783267735,0.00211049256631441
-0.004430954849003,-0.0384866987960238,-0.00256634070374492,0.00196418453441592
0.0057139320654106,-0.0353146325744732,-0.00713789851163944,0.00192089594059099
0.0358957332743062,-0.0267324417769081,-0.0117606746631285,0.00121319648456877
0.0596140273874891,-0.0177989455290349,-0.0172709452807762,-0.000356349504075519
0.0628290050296145,-0.0133520168092512,-0.0174137158656597,-0.0020175960530198
0.0424936352159962,-0.00852496361408737,-0.00977800543143933,-0.00279875616490593
0.00555877094273315,0.0104527308809835,-0.000114904810579439,-0.00287564514504522
-0.0312280820844509,0.0279755293606402,0.00727035732559141,-0.00311271854220456
-0.0541579845644075,0.0194701372894125,0.00965601646631183,-0.00316306704176671
-0.0615346626751219,0.00544686929557299,0.00881972080656046,-0.00195955972756694
-0.0581108223669258,0.0072195134804882,0.00226626440246808,0.000220980497710291
-0.0379997613710625,0.0101606545919647,-0.00777216449050292,0.00219720018203424
-0.00248883913670514,0.00130749816955445,-0.012039886580563,0.0032724578657643
0.0245273663297122,-0.0119088104977504,-0.0121919951541507,0.00344708024095275
0.0280324689672341,-0.0154027890562518,-0.0104146231612336,0.00284300428055549
0.0181274312017736,-0.00798275646607861,-0.00619980280163972,0.00130230752924373
0.0113927162785906,-0.00267538239820955,-0.0016928388301351,-0.000589502042610975
0.0162213991407841,-0.00559699623496675,0.000843666645157947,-0.00148314239191168
0.0196604880482985,-0.0151726121538941,0.00538929318404673,-0.000710231937563766
0.00271837252627465,-0.0277856031405911,0.0137210660224241,0.00106766466074013
-0.0140781997480706,-0.0314974946236931,0.0156741412993116,0.00288352110865627
-0.00494014147674497,-0.0231682518489626,0.00723689519262137,0.00422480630210868
0.0114883471050582,-0.0118936527908119,-0.000871735797268548,0.00441291894740261
0.0151880172365207,-0.00530444511746796,-0.00368276339088495,0.00308263691221795
0.0130941592507041,-0.00655980965016274,-0.00719874310962819,0.000712657297400521
0.0158038867114629,-0.0122469935566785,-0.00929640571239509,-0.00167886803058253
0.0215546576746045,-0.0176492290232459,-0.00607471277077871,-0.00305669850979904
0.020760632007506,-0.0213223785547566,-0.00535630324270636,-0.00308355966167224
0.0137331498582053,-0.0245839876265517,-0.00879027212071909,-0.00209303627069318
0.0161509202609172,-0.0271105156117492,-0.011587390344724,-0.000688132752263188
0.0363004610805031,-0.0271190177641808,-0.0144470849811332,0.000815318668469643
0.0613153942686324,-0.0249061260841589,-0.0177087528000247,0.00237697330980819
0.0821441411589737,-0.0203817967509247,-0.016679103145359,0.00352669647268529
0.0933143960068537,-0.00731361599462228,-0.0116744179503484,0.00343050868423825
0.0834188664802345,0.0158721720525807,-0.00741962551832957,0.00171934155742499
0.0601085705552368,0.0276828834172411,-0.00334482823808698,-0.000934220963198409
0.0442259706370056,0.0166303891861893,-0.00162880679770357,-0.00296152879833582
0.041463179222887,0.00466282878340526,-0.00295263946671865,-0.00290110154407908
0.034737699566451,0.00138000417519502,-0.00306269276890879,-0.000616279197177059
0.00862261100350021,-0.00401257884385759,-0.00252764625505813,0.00250137567758047
-0.0237642513508353,-0.0102943881286419,-0.000673878913482834,0.00474269694209469
-0.0427547297775532,-0.012197420480045,0.00730058120393586,0.00527809158563854
-0.0475043077655984,-0.0142616657752591,0.0148052984228181,0.00425867794475644
-0.0537540706126166,-0.0179350029922059,0.0156372015678642,0.00237167835818445
-0.0763763371704577,-0.0149024041127021,0.0192577332431035,0.000211290104729498
-0.106954341071658,-0.00342903807145454,0.0245193326478019,-0.00149898830448376
-0.135421685040622,0.00634235563296036,0.0189471717241422,-0.00175636948318606
-0.153821603506056,-0.00514029175889084,0.005663904767833,-0.000836586463547707
-0.123314421659688,-0.0396617314680657,-0.00592215233782892,-0.000190465096976469
-0.0374393090151961,-0.0590552526029024,-0.013931665909132,6.40986964966662e-05
0.0473562294057773,-0.0490790219299577,-0.0206448918193887,0.000860236888556495
0.0991990211983384,-0.0352718818789887,-0.0243725564655056,0.00180751497110797
0.124141189215647,-0.027616565858437,-0.0205517087739677,0.00150413296488687
0.121380375168439,-0.0197360585605181,-0.0107004047615598,-3.18346069660648e-05
0.0951595400611957,-0.00888185064210603,-1.05158748881472e-06,-0.00161560883997573
0.0602450289964644,0.000323211183653721,0.00880528610122058,-0.00320296774498137
0.0190258698724829,0.0103273696065706,0.0149542759852981,-0.00455321753999897
-0.0237592611275051,0.0251471595488241,0.0134729588564688,-0.00432607338544414
-0.0537445501845482,0.0306285221462389,0.0047351665742475,-0.00291966476864147
-0.0642701106208674,0.0178037079623375,-0.00379819909763831,-0.00225757839629564
-0.054530172825589,0.00274419693989101,-0.0091529042727086,-0.0027801640654582
-0.035201992519468,-0.00399415430952616,-0.0101040287213689,-0.00334786344808204
-0.0258362959725928,-0.0106219018279067,-0.00665732322560444,-0.00296156626940587
-0.0254732495278274,-0.0202449939483296,-0.00320743730671694,-0.00145565083828888
-0.0153327324875698,-0.0282060945532419,-0.00266731580573318,0.000399588836145303
0.00267929508207736,-0.0302121376871508,-0.00292810687168605,0.00150706658575596
0.0079631693245636,-0.0275455501632135,-0.00209884335797949,0.00152475549666389
0.000281470265523207,-0.0229035109738198,-0.000516968022977956,0.000826367276839823
-0.00928040292572047,-0.0147307225258929,0.000705303159224558,-0.000206506573709357
-0.0203336894020555,-0.00510370678067439,-0.00172243029950605,-0.00136810974496957
-0.0355516562028487,0.00191958308725993,-0.00497730570837117,-0.00241921117116411
-0.0440129468166283,0.0103946682639458,-0.00358460009534669,-0.00273519533773678
-0.0365187221336882,0.024406296243443,0.000659624006418103,-0.001893251205756
-0.0246254056891107,0.0376951232480797,0.00581053977762709,-0.000764754162622333
-0.0113101710290522,0.0512896381839642,0.00709207954550235,-0.000388216514255948
0.00047410471079309,0.0656353510027304,0.00234176902717197,-0.000598237437858587
0.00272391799064565,0.0510656939628973,-0.00255207521971858,-0.000873722566259925
0.00856073092770544,-0.000742691921070363,-0.00413478615557818,-0.00128510484844136
0.0236057581769365,-0.0433959710895184,-0.00192039012897649,-0.00204064718552765
0.0309046936815705,-0.0560606075734599,0.00170311026730392,-0.00265635862751877
0.0235114709535205,-0.0546391705141238,0.00302147259266472,-0.00254262167956628
0.00456801352457517,-0.0427652467660931,0.00360263754011404,-0.0021442112936521
-0.015247090759973,-0.0339932518078363,0.00112120176590447,-0.00219467634237154
-0.0113551512116826,-0.0349962308714083,-0.00904880341977937,-0.00224447628039528
0.0198390317718715,-0.0269046551920562,-0.0190039490028798,-0.00136510878222048
0.0492180818711904,-0.0178078878312921,-0.0209811519815118,0.00029748543826438
0.057361281326611,-0.0280715260255857,-0.0178605765488183,0.00170788665883942
0.0580594292622457,-0.0455780413177748,-0.016213248769832,0.00249202560954467
0.0668507713496897,-0.0487905847581709,-0.0180426612845978,0.00315562922386413
0.0734231733716819,-0.0348610257259054,-0.0176666094013161,0.00363104840096866
0.0637800947024636,-0.0166857469572435,-0.0171752155212757,0.00315071842769652
0.0432344217636357,-3.41148899385343e-05,-0.0181839585694802,0.001815902220072
0.0232161049730457,0.0233759593426701,-0.0131630946390941,0.000816197941930689
0.00357768798129492,0.0553383757977319,-0.00298454870747917,0.000767038439995369
-0.0148696995860061,0.0824176048542811,0.00355327283022061,0.00133126334952367
-0.0213537304322533,0.0822763829075034,0.00487481579669462,0.00212469320326111
-0.0182891127470199,0.0549539868167825,0.00993745360267936,0.00272581186015595
-0.0183467986049085,0.0323023468325012,0.0152471576803742,0.00271959212654544
-0.019191451987058,0.0308606372004154,0.0122930941443131,0.00235248800442408
-0.0154236266590423,0.0367525676049776,0.00743544716478031,0.00208740308711451
-0.0128000831366589,0.0368624511477528,0.00465075355450721,0.00187985318196227
-0.0195891505237115,0.0351351397455706,0.00386982086715363,0.00156484227536416
-0.0359266678639541,0.0419955341435295,0.00885380299005521,0.00115885733619391
-0.051179409512966,0.0577445275941862,0.0157668906752948,0.000859835397805022
-0.0580869559488842,0.0652464834693563,0.0172282616733059,0.000886672152416915
-0.0546213501070175,0.0533767258745678,0.0149287392510474,0.00122494211055723
-0.0355739305775491,0.0337166349836071,0.0120695562334248,0.00201681242832618
-0.00623861263461151,0.0183013121659048,0.00906653320238861,0.00325164294115886
0.0131689144546104,0.01080550788944,0.00758203972823673,0.00407696876797066
0.0149189098687833,0.0101842277903928,0.00617107335579625,0.00364425411582135
0.0119466333269895,0.0118215749319232,0.00543098261063617,0.00196882456626713
0.0113390764536925,0.0158804692304142,0.0079675618032376,-9.16787680244838e-06
0.00875009429587822,0.02516216326915,0.0136631522031207,-0.00113980952987976
0.00235382642205046,0.0346684317934976,0.0221335733813905,-0.00152991598391673
-0.00596699712028865,0.0373280294247181,0.029604602369068,-0.00150036461785644
-0.0147120377326291,0.0362370211087016,0.035126238916952,-0.000728674401390789
-0.0233989755851016,0.0385214141772042,0.0371286261076514,0.000356165595633806
-0.0279547142157029,0.0504862676293507,0.0323056568176316,0.00129778765373602
-0.0214405897264713,0.0726154651272523,0.0220594800414384,0.00233218451016393
-0.00700557798957459,0.0922596678509235,0.00986045449678831,0.0034331534511093
0.00235686002043827,0.0981239183472212,0.0020386727092947,0.00382334340240608
0.00326988012171592,0.0897594477332405,0.00171183232840913,0.00289858474810001
0.00481360491084549,0.0783036935267183,0.00404275344034237,0.00143662848145999
0.00764402505866137,0.0751394683652413,0.0075557756798511,0.000489337006227679
0.00526799161361474,0.0718703879579467,0.0138505129178994,0.000137492772589713
0.00189486325021092,0.0579981179478938,0.0171935568005671,-3.46800538120786e-05
-6.64731882094732e-05,0.0397051296415079,0.016028366205061,-0.000650418786278305
-0.000449093142861748,0.0236174115392989,0.0147219655185806,-0.00206690614100561
0.00719378881456499,0.0112488604281781,0.0120365697404249,-0.00371735308218466
0.0175451278240236,0.00502102480290083,0.00655135954848069,-0.00483324625713529
0.0189276134920235,0.000206941984242007,-0.00166624681964651,-0.00517381976735511
0.0136054708434541,-0.00434168063966506,-0.00823256170961146,-0.00451275055208435
-0.000701664326658087,0.00401490913431333,-0.00414103222687552,-0.00259602299131837
-0.0340481773662162,0.0189390657255179,0.0111390470637054,0.000456182337834374
-0.0660457703620036,0.0198788266852639,0.0259123991980679,0.00379951267470261
-0.0628158014413652,0.0141994751039588,0.0322412441672664,0.00597646658020779
-0.0269839558645928,0.0170275171386269,0.0319670206475919,0.0058294373358442
0.00711182479576337,0.021309052974408,0.0249797612014227,0.00359896868543185
0.0109232415530638,0.0200522948769471,0.0136218073111861,0.000956551255333586
-0.013404745844685,0.0148496578992024,0.00587127307551479,-0.000831500569559711
-0.0310554171079436,0.00536142605063875,0.00507383990441018,-0.00236382589325179
-0.0187419103522332,-0.00831788893843783,0.0053314281703021,-0.00502996878694454
0.00692914929625996,-0.0199264310029548,0.00300828258260576,-0.00873107338204971
0.0367070134928474,-0.0212954933140166,-0.00238192093181255,-0.011275220936356
0.0588889335115878,-0.0165378517152165,-0.0111477913107629,-0.0106530474071688
0.0379598801232239,-0.0157503936601489,-0.0210520103274221,-0.0072020543902629
-0.0194889607648095,-0.0181720647889091,-0.0290470979793256,-0.00263312947623036
-0.0666145176571866,-0.0118371057019255,-0.0304367733887174,0.00107675552038182
-0.0769626803841773,-0.00348829102246353,-0.0277766199734061,0.00270302160049771
-0.0511296826399953,-0.0140341137131439,-0.028512876724774,0.00297620068928422
-0.00886596410056975,-0.0294048181505128,-0.0304572713934342,0.00310335147555693
0.0088910770646959,-0.0262161358147485,-0.0276743324868753,0.00289773985202398
-0.0275233622992978,-0.0117911575458452,-0.0226377125973503,0.00153163194515287
-0.0835300131794065,0.00254948921310574,-0.0191739617120848,-0.000823173333031213
-0.0960373566154744,0.0101034353394316,-0.0174599392898546,-0.00309015997476863
-0.0668892419506646,0.00728487606025221,-0.0142010363811808,-0.00411538938662045
-0.0450814795265053,0.00100048131777195,-0.0088647481601819,-0.00310466432024989
-0.0336812174920354,-0.00750329199392915,-0.00452546264480849,-0.000593846274049558
-0.00799783393108569,-0.0189884173291902,-0.000880872125149926,0.00135780019746673
0.0166601598014099,-0.0291769720701681,0.00205214237253218,0.00107859811175422
0.0224555092382281,-0.0259684438115788,0.00305576097532559,-0.00106692315337949
0.0228284091247774,0.00368104878750558,0.00109956550491599,-0.00330393737167631
0.0172264384418127,0.0332483425891841,-0.00199673708260197,-0.00437546500842474
0.000682226686170934,0.0274222640384212,4.42603668556426e-05,-0.00398536215598297
-0.00508850323928203,-0.000121989953841134,0.0077294377835871,-0.00242985913679881
0.00587754308130203,-0.0219972338127161,0.0150036579763141,-0.000978433836917289
0.0179022021141859,-0.0307695506963737,0.0199307579644118,-0.000841696259764317
0.0210213589986988,-0.0293944699940714,0.0214490802619728,-0.00194859475942121
0.00856930305513411,-0.0258157181738494,0.0195436057654277,-0.00314576615230028
-0.0163073721342896,-0.0222698857190913,0.0137782810681148,-0.00324808251221036
-0.0410000423841695,-0.0169946913140825,-0.00334538164902597,-0.00236036387157124
-0.054959695941279,-0.0105025598694139,-0.0244384450197124,-0.00159507932764276
-0.0559968448332902,-0.00358537395333973,-0.0302093416411509,-0.00136459196222555
-0.0467652095263777,0.000507835302089581,-0.0209320483349639,-0.000687087483272698
-0.0291690663185541,0.0014544673320443,-0.00809814047155113,0.00117027886706915
-0.00816149924082643,0.00273911764577072,0.00411065369742991,0.00344631032375839
0.0131523926398594,0.00753945737504913,0.0183333829315687,0.00454205824692083
0.0331379318949062,0.0142771097094186,0.0293203122176054,0.00369439796337707
0.0476203310981671,0.0160421556261977,0.0252081022576252,0.0022418658744699
0.0554073272371493,0.0116847604529062,0.0125037760014289,0.00194227712404994
0.055974558209557,0.00869785449976305,0.00604854193352467,0.00277196293989501
0.0493618555784664,0.00870402512962026,0.00423529888792004,0.00353137422123134
0.0389076270343018,0.00685809841126873,0.00333527824985206,0.00363797281459126
0.0304269905448854,0.00172315542455266,0.00417237439751605,0.00362836402282021
0.0306382650810655,-0.0053534773965292,0.00463633841493583,0.00396026808360582
0.0340204067410562,-0.00844947086797935,0.00630908057979129,0.0041829254190662
0.0284178886342915,-0.00651437702736263,0.00919443285466634,0.00383505471064825
0.0166705371177262,-0.00442331725536649,0.00945577154768249,0.00300099365173542
0.00867471564419962,-0.000572809931033615,0.00971142485148646,0.00184495709087938
0.00519632595282144,0.00253686066185782,0.0110201676390692,0.000500905317515828
0.000971273066160728,-0.00157946546981085,0.0109886579668785,-0.000613669276870628
-0.0037554860325828,-0.00880315429337489,0.0109471481635185,-0.000829022115039687
-0.00571719162508556,-0.0178100873605221,0.00996248804263848,-0.00030131862116531
-0.00929141837022522,-0.0297211614824107,0.00555394034813526,-0.000122054855385401
-0.00560902812503723,-0.0327608329705443,0.00495154663760058,-0.00026036732345227
0.0256890674594885,-0.0232397856384914,0.0139117332099079,0.000376996712432513
0.0684876191913612,-0.0155392256835054,0.0185970934709666,0.0018858865439629
0.0949985186223886,-0.0161747944628528,0.0136020010501889,0.00367390395348225
0.105664937586083,-0.0173161365610903,0.0103530247814505,0.00572050472222679
0.0974088236053556,-0.0187665229878724,0.00561946649690251,0.00829623596481557
0.0692064611704206,-0.0250947460154299,-0.00463800580484019,0.0111458042934211
0.0460742927109208,-0.0302578926598823,-0.0107081893334646,0.0131168882635526
0.0471689647006295,-0.0274333591311326,-0.0134663940859308,0.012523657869423
0.063358069465856,-0.015672632876499,-0.0169010141765127,0.00886965194129467
0.0712593653515571,0.000176585302150499,-0.0146230798119844,0.00359081235612546
0.0574598638105971,0.0123163863074709,-0.00682575550791824,-0.00178559378013986
0.0289639805460654,0.012387411911085,-0.00239188514493958,-0.00656510699241741
0.0054423501915246,0.00165331881860387,-0.00236027167136574,-0.0100004516821996
0.00269715444530577,-0.00586266800989223,-0.00354084160394745,-0.011144677703227
0.0118919910420919,-0.0131689487226349,-0.00566764227039098,-0.00950062840235827
0.0149980536967555,-0.030856704500494,-0.010035637442987,-0.00553921397446594
0.0131638542845945,-0.0445395472581609,-0.0178147849213165,-0.00083236290362494
0.0162022920254587,-0.0393296799483772,-0.0236713059953838,0.00265217478647553
0.0193326850967919,-0.0264479063563731,-0.0238222782087173,0.00406805619914446
0.00932310342335747,-0.0197961112326711,-0.0203220850103601,0.00423582445259539
-0.0139605440248658,-0.0192760706169006,-0.0156889595102077,0.00429326406095747
-0.0401330924138859,-0.0311288693257134,-0.00940824651487398,0.00452747424561855
-0.0532786682561027,-0.0593531848156224,-0.000489854497486789,0.00453201577397909
-0.0394582443785889,-0.0682585220511055,0.00556311479377635,0.003757395101595
-0.00695287330799495,-0.034811926726768,0.00220829068364207,0.00218643850093135
0.0277247046189607,0.00148040209500999,-0.00833888486782549,0.000414712656769568
0.0565384897700334,0.0157438069051416,-0.0172458327811477,-0.00163205320000315
0.068206569375913,0.0193096871235582,-0.0164299119069859,-0.00437283485609804
0.065464613693464,0.00617517978967753,-0.00996986584381714,-0.00700196025236689
0.0798099685228005,-0.0199243728818424,-0.0107549666724677,-0.00830485295063669
0.121757665706,-0.0287849017837235,-0.0150521928421666,-0.00813397440752107
0.150231068346681,-0.0165996382280724,-0.0124554312390932,-0.00753441128821579
0.128392981829696,-0.0108836913001933,-0.0105442225911286,-0.00739798944631921
0.0670015740562473,-0.0240429812009732,-0.0132039375125558,-0.00654711024786367
0.000105917246431761,-0.0395837709952273,-0.0137472613468763,-0.00309284961725188
-0.0447337746540804,-0.0409757054863854,-0.0107011578257288,0.00265658109436106
-0.0661905637525312,-0.0184197452785929,-0.00437688361472363,0.00824825433913673
-0.0854659550639352,0.0221461152552899,0.0079730037840783,0.0105828265210008
-0.102770965822676,0.0406580566616629,0.0228578971023494,0.00812860360209689
-0.10080316656462,0.0169514170797437,0.0257371654034979,0.00242770513124028
-0.0823964487723912,-0.0157343874112926,0.0152767002642929,-0.00360889161335629
-0.0614753163588279,-0.0260386923061969,0.00575414380820598,-0.00813259126586023
-0.0437087329170546,-0.0137731775236911,0.00353113028290569,-0.0105593480296072
-0.0258578139725211,0.0060768874594445,0.0037786863402493,-0.0105727230340635
-0.0108950202909078,0.0190393509344782,0.00223915249107431,-0.0080089965353378
-0.00928528138355666,0.0148421722678789,2.87093018974567e-05,-0.00418745598268918
-0.016062922122191,-0.0066751212221396,-0.00353994711661348,-0.00109223114754614
-0.0143330886780932,-0.0249657896131981,-0.00977915291209919,0.00111063076529805
-0.00740329489298414,-0.0256971405862931,-0.010676195233788,0.0033490277097862
-0.013479662015971,-0.0221048830781875,-0.00797450226172636,0.00590772090295429
-0.0253059193741953,-0.0275156377117438,-0.0104537523158026,0.00795034614528529
-0.0227681403826708,-0.0340770023479926,-0.00883660565996745,0.00739798243697803
-0.0130348351898138,-0.0351122373294192,-0.000692028304878695,0.00238162884642138
-0.00639258098237375,-0.037512602938488,0.00274543516700225,-0.00546703873050768
-0.00713406465983776,-0.0440320488253344,0.00294753000809867,-0.0114125254867203
-0.0268513954982187,-0.0463115489324436,0.00368332713846316,-0.0128126437270503
-0.0482396081881303,-0.0379803437610402,0.00165838483295798,-0.011183811754082
-0.0417587913332899,-0.0283389698750479,9.08107638140877e-05,-0.00914157090297006
-0.015018852067408,-0.0275553608645526,0.00301948950618019,-0.00675758332402169
0.0058575530155375,-0.0226144338397317,0.00680669209720144,-0.00205036771264146
0.0131579402935972,0.00748098023039759,0.00614448820770567,0.00439696586832118
0.0183226209513043,0.0419377237483071,0.00552986173970799,0.00881421155355124
0.0237607835143332,0.0374206921184044,0.0094465018912271,0.00879213181491618
0.024078762182183,0.000640787120577256,0.0110132279155605,0.00561378338697602
0.0227154174876117,-0.0314510059584219,0.00560716271881396,0.0018767919523793
0.0151782549201179,-0.0427864189357378,-0.00313479767455994,-0.000898825697164221
-0.00376486068882213,-0.0339566094758623,-0.0092547026699239,-0.00179870658023889
-0.0233389157653134,-0.0211971606638479,-0.00924837302215199,-0.000944959032762453
-0.0318489798246175,-0.0237019193083064,-0.00768335820654918,0.000136662261734948
-0.0358542736709822,-0.0275365523179704,-0.00862066679187517,0.00024000505201019
-0.04679712637929,-0.0142622470298436,-0.00719216376289418,-0.000986208322802474
-0.0537026340447594,-0.0024867127118323,-0.00305898652536396,-0.00319032571645286
-0.0524320111953539,-0.0079820941656768,-0.000380239516302049,-0.00529292293733322
-0.0614628592857217,-0.0125454598820851,0.00360244382056962,-0.00651175716076691
-0.0706944170615214,0.00488034980963372,0.00852673921665366,-0.00699477941620226
-0.051962617021546,0.031462575693823,0.0117282312761367,-0.00685386163035195
-0.0181273689309427,0.0296739718003637,0.015150177755828,-0.00588678617417473
0.00698920939854326,-0.00267554330351438,0.0155078156170866,-0.00425714949793877
0.031025958610932,-0.0199205433519271,0.0115720124376094,-0.00256080221655678
0.0556261822131462,-0.00764074315805288,0.00734420300743058,-0.00197092835782969
0.0564470067206419,0.00244073697946348,0.00359729579772754,-0.0024790135546208
0.0338169226439073,-0.00476134777676743,-0.000400232780287432,-0.00182484709204494
0.0185941049906431,-0.0130290721711181,-0.00353322621820137,0.00121864572747906
0.0110332970027629,-0.00507767972287951,-0.00204008048739318,0.0045041014884478
-0.0103184216910364,0.0078617580497202,0.00361552328563504,0.00545898107176624
-0.0340057446682757,0.00672544073699924,0.00680540044410674,0.00454232044400346
-0.03597484566521,-0.00671111192762132,0.00745206801550206,0.003591755175687
-0.0224081666822374,-0.0198831684350646,0.0100898463218582,0.00328571476683479
-0.014269173198625,-0.0246439477052131,0.0131381991292625,0.0033642075128184
-0.0186261879547237,-0.0205842830673094,0.0147337029278636,0.00326146636082993
-0.0247738061126039,-0.00864839532099033,0.0141607744302697,0.00264415270902527
-0.0148954907059252,0.0123605432383595,0.0121451472506425,0.00170091037969074
0.00416201126917326,0.0309000173161439,0.0116024210166806,0.000725020940625163
0.00877222027857539,0.0323938813064875,0.0084150156337351,0.000121076697776166
0.001184273039484,0.0276594555830803,0.00513398590706701,3.24367598435876e-05
-0.00599972658054018,0.0244192965455843,0.00335852960723119,-0.000111119111229973
-0.0112111345701791,0.0170852217525591,-0.00522772560938523,-0.000347177493115446
-0.0221551421785169,0.0116407788789261,-0.0133035615262142,-1.87600396385022e-05
-0.0436137133368053,0.0157168451746782,-0.0136172149840358,0.000933885897205872
-0.0589128370032105,0.0311464753350818,-0.00873924386964259,0.00227668840795275
-0.0549252487594428,0.0482030419075576,-0.00143115092645856,0.00389873672104117
-0.0405726269943693,0.0506658971068084,0.0053638216657425,0.00534933086751623
-0.0282211920286742,0.0371732045600052,0.0114598790696395,0.00607892789679797
-0.0187976074626728,0.0174624829738787,0.0107876829174831,0.005778062495308
-0.0101562644663195,0.00462357288890851,0.0015443462801091,0.00422265789051811
-0.0112697424127209,0.00570239563570819,-0.00476023926735946,0.00193931539012683
-0.0218995304775392,0.0119001170236983,-0.00129093189151139,0.000260404517600373
-0.027447915595193,0.0109390121195249,0.00475875111469966,4.56890835535007e-06
-0.0217537709643584,0.00198311458045241,0.00328043567356951,0.00136655611486964
-0.00717488369123344,-0.00497552027739751,-0.00290225716171635,0.0040634826794071
0.00789202067760365,-0.000934173129709402,-0.00365662250925872,0.00638756115218156
0.0143193009219928,0.0100843862068401,0.002790037652858,0.00634262211888788
0.0150799072729701,0.0173034519264618,0.0101088577013735,0.00416594166260018
0.0115942588777944,0.0156954843759385,0.0160690056970197,0.00179989165070677
-0.00542898311427802,0.00695560583164243,0.0200145066300031,0.00086591280070123
-0.0310100745876559,-0.00243502766900803,0.0218886744914625,0.00167424911060013
-0.0426661017844986,-0.00982052911890256,0.0241653215293998,0.0031672265186069
-0.0275787314245372,-0.014056245884729,0.0239167080815802,0.00365762667276751
-0.000636761046279737,-0.0058039832351236,0.0252379898452859,0.00205023455845453
0.00930101999892122,0.0147635923546874,0.0281322031910352,-0.000868149096854019
-0.00295217697711847,0.0317981549000962,0.0203177717882908,-0.00277291927853624
-0.0209547078217473,0.0346330447088342,0.0101538197577845,-0.00194000900092496
-0.0344522367085344,0.0290110676371132,0.00685191795355018,0.00121835912270379
-0.0411854550665827,0.024242007846989,0.00173242587511824,0.00426250136799598
-0.0387186210980318,0.0183677747232871,-0.00517924860803028,0.00482596342019248
-0.0327423508947383,0.0131393852070329,-0.00921973189834051,0.0030275523980503
-0.0303971992791185,0.0140336631086843,-0.0098474511721813,0.000589662389174663
-0.0243240547853674,0.0150877434670736,-0.00917586449705132,-0.00124496025962265
-0.0136814686022272,0.0120921559894454,-0.00572286992127843,-0.00196950317653268
-0.00255925409569045,0.00595439782392794,0.000609507047293324,-0.00179115831177795
0.00412614839368654,0.00163137709718124,0.00204329237938071,-0.00153531303114147
-0.00693615929864052,0.0127254876297228,-0.00139495703929211,-0.00170280750658204
-0.0311392229353067,0.0366444074545995,-0.00283152050964291,-0.00169786195507085
-0.0547786768063318,0.0499344954994588,-0.00256674757632336,-0.000645654006141581
-0.0688445317445841,0.0439185533912162,-0.00284647443374045,0.00127208172979132
-0.0606303434539185,0.0278621875135055,-0.00581348488077398,0.00285723063924024
-0.0291986229929157,0.0109283886881823,-0.0106871031983234,0.00327164738010312
0.00851257250163811,0.000442356023959738,-0.0107729383712238,0.0026575043553099
0.0250026936614815,-0.00426444627455983,-0.00542555449157658,0.00135542516087829
-0.000419329051431041,-0.000144285197218311,-0.000290461671422881,-0.000331107423080728
-0.04778507210085,0.0160634478973235,-0.000670196731098367,-0.00194523848326233
-0.0786934204009857,0.0246504119026175,-0.00471585053170283,-0.00352600920009379
-0.0917164727983421,0.0121202674058565,-0.00852777277210937,-0.00539507230807748
-0.0864313706630972,-0.003149545438432,-0.0128515868484147,-0.00603548728679108
-0.0466889330932238,-0.00214140911100562,-0.0145134934965603,-0.00373049251490061
0.00287301310210956,0.00884861930034394,-0.0079507936268705,-0.000147144721117084
0.0279040937477116,0.0135936039486472,0.00289209373681006,0.00169043647022571
0.0470953390861832,0.00656330766071367,0.014504214530185,0.000620142792387834
0.0773235038081852,-0.000180308544276682,0.0258921675485601,-0.00239763417522421
0.0929267529531089,0.00674155973785863,0.0294401091325994,-0.00539784450343574
0.0864738566670154,0.0157086508622201,0.0183572713959242,-0.00707690321855649
0.0691486236472534,0.00876680195985865,-0.00304776584023597,-0.00647423594799238
0.0432143154626144,-0.0094612774463886,-0.0211122705106709,-0.0024928767566386
0.020545524371245,-0.0240943190656184,-0.0267823227658805,0.00350728757389713
0.018619113204038,-0.0295481946563491,-0.0229235080150787,0.00772694006374499
0.0379476429505201,-0.0260508462859673,-0.0133973513205581,0.00773403732538292
0.0555013222891227,-0.0154385074272655,-0.00319930868016966,0.00394536865266852
0.0502607151427597,-0.0058652427481721,-0.00371139820343036,-0.00119260518968925
0.0272424486079324,0.000114786494373811,-0.0096072269475669,-0.00515932100671633
0.00452508373698945,0.00475114729506693,-0.00865282198784113,-0.00712781370146913
-0.00643458130059239,0.00628416882857361,-0.00543013850490811,-0.00716361202524076
-0.00890908585404011,0.00490566384725252,-0.00562416406055954,-0.00511599574776718
-0.00699584721817743,0.00191281551415074,-0.0074481619400857,-0.0012277760308163
0.00556551066867112,-0.00156288746189228,-0.0108376883616019,0.00287175797577834
0.027813249099447,-0.00395963193248121,-0.0136088702571184,0.00491308981114166
0.0480404514385462,-0.00432656728873361,-0.00971086418042309,0.00391819531587409
0.0586747031313385,-0.00420898840952028,-0.00211696978566245,0.000633296758205453
0.0617579191903062,-0.00583684651394831,0.0007847567302612,-0.002914832010455
0.0601812883291616,-0.00724174930493285,0.00255677118356183,-0.00473605229258307
0.0522017053953187,-0.00754001135365593,0.00948837991354001,-0.00457152865347211
0.0424353230780413,-0.00896794472092485,0.0157578594886694,-0.00349853638977554
0.0389934978935068,-0.0101668926003784,0.0173478593890119,-0.00275581680327785
0.0426909775654713,-0.01197414010772,0.0188135360535414,-0.0028279701829025
0.0502932193315405,-0.0155000809884592,0.0201414309208624,-0.00332162036920663
0.0561413215219503,-0.0160274264768157,0.0218636660450714,-0.00367405286967282
0.0566515128289786,-0.0143298721616594,0.0244362491639243,-0.00363553728815753
0.0528474346770265,-0.0162233573289207,0.0242257092143877,-0.00336737474860776
0.0478987633363557,-0.0208453334611895,0.0228881310322084,-0.00280317883903137
0.0410060385158522,-0.0211893780713536,0.0211965267452164,-0.00141360887119992
0.0281690346921506,-0.0143737460796888,0.0185083580397184,0.000800742379142759
0.0132825847877112,-0.00785439284678866,0.0152168735012441,0.00327074473702765
0.00334671204570634,-0.00741525459832977,0.013594194099818,0.00535911099899983
-0.000928562321832993,-0.00714761758689637,0.0129159316108834,0.00614952828008855
-0.00241898160810233,-0.0011094153512513,0.0105227116614817,0.00532482008651255
-0.00168443455775659,0.00596130578630431,0.00833787837274347,0.0037583959696606
0.0015563461003994,0.00537127548200227,0.00569819106284521,0.00226680250198408
0.0118133508100184,-0.000565338672090578,0.00125860521191371,0.00116749013951216
0.0357640834933423,-0.00153758162523191,-0.00333706851446785,0.000784950638193993
0.0628616123133381,0.00155181605217558,-0.00855374237685391,0.00144479930794646
0.0776367378805339,0.00389100421780903,-0.013458565507177,0.00274672423874159
0.0797899246379434,0.0089289397694778,-0.0140171759457553,0.00327878590035005
0.0791396469180449,0.0148471479380932,-0.0115272308564238,0.00238839556448132
0.0833801027737437,0.018215503870388,-0.010500997608224,0.000782183096821381
0.0798116062827718,0.0228260828241727,-0.0103671067219022,-0.000715277108293902
0.0588804051008281,0.02629211941377,-0.00963481762341962,-0.00130913830011335
0.030113173933265,0.0229586831333254,-0.00483862592026477,-0.000138486898260953
0.000365198992124699,0.0184195260344185,0.00445780534508521,0.00226073959088489
-0.0172951084708033,0.0170651266962962,0.00694552757611448,0.00393064253049547
-0.017516731277417,0.0176542650358862,0.00257911961119372,0.0039493484471818
-0.0142142336962573,0.0191757753183476,0.00269700788540777,0.00271529992125643
-0.0152698951203508,0.0172630936602211,0.00572718851142303,0.000934507178675391
-0.0421887550625791,-0.00576590879631893,0.00815876755690363,-0.000841213714488834
-0.102270001040062,-0.0557217053252991,0.0106795936015042,-0.0023840314169417
-0.129018650794088,-0.0834658715062066,0.00899820937143948,-0.00317555426546285
-0.0798332909246032,-0.0567304736147428,0.00539177031985494,-0.00283090549932355
-0.0133238756050321,-0.0100626535334245,0.00176731428606081,-0.00166241027507948
0.0174741554771468,0.0263116945814229,-0.00368726099137845,-8.56509039204138e-05
0.0230534683752531,0.0388873965046541,-0.00874255393027453,0.00142052790792856
0.0288607177240636,0.0211313180542683,-0.0136949881376046,0.00240963603587658
0.0454360624329095,-0.00241400756612734,-0.0183246863588803,0.00303357230372947
0.0596551098001952,-0.000912163570731204,-0.021378802007514,0.00368240933571497
0.0563790905208375,0.0223162941044152,-0.02127296747848,0.00386165270710378
0.0385874765259911,0.0310488692547078,-0.0164076952115291,0.00279227321557728
0.0212977785444738,0.0141005369782496,-0.00908537464072407,0.00119959205322979
0.0188186070628834,0.00400098140301993,-0.00201426752763816,0.000244847801767732
0.0248620314094354,0.00741056232566279,-0.000340060550533997,-0.000816982383008011
0.021250114297359,0.00168809775607502,-0.0058198869519668,-0.00295221033823912
0.00326191251749611,-0.0130620384185656,-0.0085856349766986,-0.00503715062177238
-0.0207242677248748,-0.0249578463823317,-0.0052660622014552,-0.00542519985949521
-0.0375863026783793,-0.0289349571524326,-0.00278790638903595,-0.00381890383277489
-0.0406926262626311,-0.0241446436844437,-0.00232022287766796,-0.0014902019839636
-0.0417965802405534,-0.0144021768279839,0.00201179564396928,-0.000134272268709007
-0.0535504508552129,-0.00722715350676944,0.00875962245274937,-0.000406527137349704
-0.0678446107606665,-0.00201908476078946,0.0117077114347212,-0.00159057600591437
-0.0697683833996502,0.00701875713082742,0.0121188674741756,-0.00264222277020741
-0.0640051599407279,0.00718861149853578,0.013574252388338,-0.00356475620884916
-0.0616523088569181,-0.00501788819950842,0.0145322278078075,-0.00468794887368413
-0.058152028901758,-0.00874992929854479,0.013615913107522,-0.00540421909724068
-0.0494625432492161,0.00388782386990827,0.010875473702261,-0.00515597103727651
-0.0415555141860178,0.0285845906999566,0.00875132809165657,-0.00453599955527468
-0.0406764060392015,0.0611793222466461,0.00989129026233635,-0.00437787728558017
-0.0437774928731134,0.0796406766635719,0.00641267298172777,-0.00421171751192652
-0.0394858125373728,0.0576696755631624,-0.00427156143167985,-0.00284881798487625
-0.0276903913546441,0.0126671379290827,-0.0129245250704979,-0.000398367860021313
-0.0180974196098096,-0.0160520313016987,-0.0169795625582953,0.00160315973220723
-0.0152923831133588,-0.0213309699156945,-0.0178462227915696,0.00206936892702712
-0.0179475423853003,-0.0158727798706515,-0.0171614867488851,0.00133348694687331
-0.0151271830759885,-0.00680650707964321,-0.0183233022484659,0.000136852687291666
-0.000804033277991774,0.00167917066164986,-0.020979035501604,-0.00103259668118895
0.00762298608700794,0.00605779435614925,-0.0207180619741322,-0.00152311795848941
-0.00856405448812186,0.0124383786831519,-0.0133468359394041,-0.000774130126659972
-0.039955959992423,0.0264221440161029,-0.00287747409421885,0.000651474560368955
-0.0614414030382909,0.037610748082426,0.00382851110248765,0.00170557582209561
-0.0619393653322311,0.0402166615456788,0.00474789319493627,0.00210207663000954
-0.0467433170660886,0.041865785294851,0.00317821936433118,0.00244209708408437
-0.0242890220856165,0.0462289381935732,0.00232575877824884,0.00337373902580734
-0.00370006222537318,0.0484966205260839,0.00139579077645229,0.00439225346554076
0.00718254831311892,0.0433979243589301,-0.00322095647209051,0.00480616947400972
0.0072633688879718,0.0378043499547504,-0.0088601420432398,0.00495715512654271
0.00221958777441013,0.038223532272789,-0.00829479863284342,0.00542315501844946
0.00286281133210503,0.037057830167252,-0.00665227891485451,0.00570814675431262
0.00963192806104178,0.0374887883424933,-0.00711292032105248,0.00436308323993572
0.00873625399300925,0.0427534866355595,-0.00541677893186038,0.000673057250290278
-0.00213869231295038,0.0379262275685037,-0.00606853340125133,-0.00422825360024769
-0.0121578852434493,0.024805406126064,-0.0116343486943583,-0.00744205239864881
-0.0153532684584646,0.0161110404488219,-0.0185288600536054,-0.00620859514720844
-0.0123340255027916,0.010392221929549,-0.0236504093530365,-0.00054491004403399
-0.00745730296071602,0.00243096417824894,-0.0204164079965625,0.00676477132038146
-0.00529694735679242,-0.00917844215234153,-0.0118210845040371,0.0120843070658612
-0.00547947312104486,-0.0225626096237229,-0.00818673780546727,0.0132886272642468
-0.00408250251550272,-0.0348820412743163,-0.00566744246340727,0.0108233674347651
0.0116956572910628,-0.0371829850465259,0.000310484243749928,0.00590508482362937
0.0407676611172148,-0.021414855085825,0.0020980566295026,-0.000337323190552194
0.0518435204334858,0.0022748969428024,-0.00485085460191323,-0.00621573560859271
0.0347588626199743,0.0199690267308834,-0.014148906282204,-0.0100331055753541
0.0106536658165239,0.031913589892525,-0.0171806768634651,-0.0118361453819907
-0.00828640488571098,0.0342098797762437,-0.0159895534515046,-0.0118964184034883
-0.0152499802484107,0.0211906369876148,-0.0156542452936793,-0.00798729286259652
-0.00199456572961038,0.0012900743475479,-0.0174431064141894,0.000393316122251904
0.0163944845491821,-0.0167011954561185,-0.0183928902927257,0.00899158558357483
0.0182649072427961,-0.0229727553218429,-0.0132626438844762,0.0132067813848434
0.00213744949869937,-0.0175519994623244,-0.00706034433412649,0.0122526131189982
-0.0235291724566685,-0.0164915988753015,-0.0082001934313614,0.00921058258440182
-0.0438937488227948,-0.0115231047446298,-0.0127264507690353,0.00745566543849095
-0.0427383491913822,0.00718428146115749,-0.0121722244333884,0.00703179787053793
-0.0187762858554542,0.0170043820171081,-0.00635945718262485,0.00512706940785916
0.00860846155619191,0.00548926152899575,-0.000946729586242966,-0.000133971384985268
0.023250597838887,-0.0171642109832298,0.0025050040891878,-0.00721106081184824
0.0251884615160939,-0.0313431976845142,0.0114154290847043,-0.0131938136431832
0.0202076516580471,-0.0238716891070501,0.0302223681165131,-0.0167035314424944
0.0215361114938582,-0.0077985870301405,0.0491072688935026,-0.0177982795785524
0.0307252947100207,-0.0020372672756403,0.0539967329090697,-0.01686093139853
0.0293655804975616,-0.0107015962814816,0.0456129453365393,-0.0141807249730123
0.0170378150657023,-0.032646154096209,0.030440965213309,-0.0101903319686466
0.0111445800173116,-0.0591117261024728,0.014445915555728,-0.00631487575207274
0.0130603475995608,-0.0714434936945549,0.00260395347426894,-0.00451577001728519
0.00980126556787723,-0.0652078490037006,-0.00602952280082024,-0.0045069524581337
-8.61147255810414e-07,-0.0504811112927716,-0.0110976476912151,-0.00352385974318094
-0.00604889133506397,-0.032416997496065,-0.0111745201757037,-7.15162621806893e-05
-0.00910016836480859,-0.0145023901974188,-0.00655519247316284,0.00445864910848702
-0.0108717777507666,-0.00409424601400507,-0.00116043607941797,0.00749955753362102
0.00305367642909805,-0.00158601288610843,0.000666398728281324,0.00713328063348215
0.029470181767809,-0.00246829958162286,0.000277824927153728,0.00341062820145563
0.0379210940900158,-0.0111432144568194,0.00103968199054608,-0.00136188075480226
0.0342871148920686,-0.028984251773106,0.00310359670068464,-0.004729527755041
0.04338622550694,-0.0463186031217138,0.00244346407413538,-0.00636099691117149
0.042373383191774,-0.0564111832574542,0.000263343161646917,-0.00731972069785899
0.0135366262848526,-0.0582576184949064,0.0046026570931565,-0.00805030677834102
-0.0115767321081159,-0.0499303500934796,0.0143448058885323,-0.00780377592039121
-0.00735571458516206,-0.0298602818255417,0.0210597923448859,-0.00620402184413775
0.0088523221892677,-0.00861834007272835,0.0190165185503145,-0.00395485387928089
0.00656178548848803,-0.001499514198193,0.0106714452479472,-0.00160185584109119
-0.0174491092167995,-0.00092277175396302,0.00329504787072379,0.000577533606151385
-0.043285899393242,0.00727834181417064,-0.000164617869969318,0.0021043418079127
-0.0560850559835935,0.00886599212611402,-0.00314776633488598,0.00247267642956016
-0.047168001834718,-0.003595476117732,-0.00626843727874261,0.00212763794108988
-0.00874939514346288,-0.00589561197231425,-0.00418413431743107,0.00219835508688971
0.0453822630961686,0.00648467554486121,0.00324959053474975,0.00290254329289892
0.0822327364778901,0.00987293066124338,0.0101672679682754,0.00404306438975503
0.0939939212228117,-0.00457585044875958,0.0086798323273778,0.00566005015049038
0.106962216262975,-0.0256595814713637,-0.00172416047333758,0.0072783678186129
0.127114718485202,-0.0438769547199222,-0.0130597724195242,0.0078948295641417
0.119293241479201,-0.0525903706893692,-0.0235625860081652,0.00676286588903007
0.0709863206987028,-0.0507213893574217,-0.030278754759771,0.00434891152518858
0.0190671666491542,-0.0480454766445665,-0.0310858888403471,0.0020071089473198
-0.00607326452905801,-0.0421585582745501,-0.0287609126677266,0.000589691252725303
-0.00567374996596411,-0.0251417666995499,-0.02196998746913,0.000220865887692147
0.00640804271653841,-0.00769437205457666,-0.0130812235112886,0.000549888861408843
0.00987128063091744,0.00305735023303858,0.00155100191356365,0.00105054613383024
-0.0154595565873322,0.0227939443294052,0.0273997859512938,0.00193346146120707
-0.0718050484143629,0.0459701796146052,0.050487750239633,0.00407122758973013
-0.129855021780587,0.0244574651794678,0.0481512951782918,0.00751009613863871
-0.146329034832954,-0.036344588997091,0.0194997084492149,0.0111928373044956
-0.119434978863994,-0.0643953890753369,-0.0093715560062735,0.0135471051577435
-0.0768610304773028,-0.0441187290411204,-0.0199251762978353,0.0130549887740043
-0.0161236406803256,-0.00756205806207144,-0.0211766663618967,0.00964860433199204
0.0504208301388415,0.0333288709766438,-0.0288108351140773,0.00511727236878231
0.0770975941233851,0.0542366606655407,-0.0384239960885413,0.00164629832532506
0.0635955451962332,0.0395055025523432,-0.0313098855470054,0.000238080674535112
0.0320559271373695,0.021438285854934,-0.0139393183784384,0.000366194475960216
-0.0144191233147947,0.0152288110303652,-0.00874681975654787,0.00131238811880859
-0.0502704122229418,0.00539071630569727,-0.0119547192527867,0.00295379276171757
-0.0467007355400503,-0.0083794786614356,-0.0110707251589128,0.00466420579017211
-0.020953495129134,-0.0168843712571895,-0.0092021213064829,0.0055179250963
-0.00988874326510358,-0.0181990413065181,-0.0109566084665477,0.00525087773567651
-0.0172037884598134,-0.0181279691585874,-0.0121166017416004,0.00380150743559166
-0.0236858464024029,-0.0179320679504356,-0.00701246557004806,0.00144537704165233
-0.0209436330608801,-0.0133817029506977,0.00385290362104196,-0.000877344907158008
-0.0130158519579218,-0.00319540339100354,0.0124943786874794,-0.00211511238798234
-0.0111464285285727,0.00854982709045721,0.0177781425428393,-0.00184723936059668
-0.016831166852018,0.0133903038030057,0.0234676766595878,-0.000757759267436978
-0.0226711028616691,0.00979962606745057,0.0263084197372588,4.04949503864539e-06
-0.0306766387353509,0.00390621183968379,0.0266717346444324,-9.37889415075248e-05
-0.0477464460683235,0.00351516347576208,0.0281302149289075,-0.000652915816364875
-0.0656731403225222,0.00970282861350535,0.0274196071839326,-0.00124640801501189
-0.0672950111047409,0.0150510959333009,0.0208637392106946,-0.00198884711404761
-0.0602269482469629,0.0163024524760935,0.0114772337445493,-0.00282790475403139
-0.0600566061659865,0.0127803948956213,0.00283331607460256,-0.00306598881907109
-0.0598418050056381,0.00418902012821464,-0.00422076092798553,-0.00231166676659418
-0.0479776550467124,-0.0059535483251264,-0.00763542137538973,-0.00141670359830683
-0.0258600183027158,-0.0114848257364989,-0.00840085048896336,-0.00146689868401903
0.000161171054283104,-0.0146541908672058,-0.0101399416691894,-0.00234234610638817
0.0301643299028198,-0.0255397751312309,-0.012556801243156,-0.00264618726074008
0.065826020827304,-0.0373634251582077,-0.0141138667379433,-0.00138901196214355
0.0986124008400166,-0.0412863807810873,-0.0154181481463344,0.000555681155407699
0.113120381493797,-0.0439738345520774,-0.0160572817945777,0.00142543346120682
0.107413595282389,-0.0487761811567393,-0.015450070240303,0.000456254313873572
0.0940756267270426,-0.052162841113613,-0.017452248368156,-0.00149571892977148
0.078043671573912,-0.0514183226792325,-0.0157278111084132,-0.00301786154707309
0.0550364850394624,-0.0504565849919923,-0.00694914994620057,-0.00327548305450949
0.0320108524749026,-0.0496359406595813,0.00248566468537545,-0.00235570232231798
0.0232181902245245,-0.0438430519722181,0.0151411088011621,-0.00109802046556197
0.0192571865918876,-0.0338076694373938,0.0265717912635028,-0.000316453962454444
0.000965127073878622,-0.0235860708987142,0.0295479689901719,-0.000721578567440639
-0.0494840857477883,-0.0185365185872681,0.0256942434956402,-0.00263945963329452
-0.128793865538308,-0.00470241127862181,0.016182245665147,-0.00478039611690177
-0.175434495083748,0.0337113010974265,0.00305552572061063,-0.00546418188014416
-0.145850915415037,0.0771763739248296,-0.00754940929330086,-0.00487762863040549
-0.069832016576813,0.100342768959164,-0.0100079490695176,-0.00418948417423361
0.00259924317296986,0.0808438911149231,-0.008068571445829,-0.00328545715722838
0.0404419844400829,0.0173425299659067,-0.00990639070064649,-0.000912148848322132
0.046834043604843,-0.037784590145212,-0.0118979240931229,0.00264434725286383
0.0538609800566171,-0.0429083392048415,-0.00967763978225381,0.00523168610640135
0.0743625274968183,-0.028466070220334,-0.00878919035568862,0.00545779976224246
0.0934164172306981,-0.0364009660723465,-0.0121289859626509,0.00373121127641497
0.101856942928154,-0.0532184934926621,-0.0179996968685464,0.00139605815145742
0.0999541751318615,-0.0517560474902976,-0.0206181790945621,-0.000614478199867633
0.0902872350744201,-0.0346315753686352,-0.0112914603636592,-0.0026024453837594
0.063811340660522,-0.0169769250584818,0.00294393534395352,-0.00512432960433958
0.0123561825567585,-0.0038816553268621,0.00982808247072756,-0.00756638845899705
-0.0403257485162232,0.00865470797104427,0.011710048848601,-0.0083083277118675
-0.0650190787380905,0.0192871460715996,0.0101340549362802,-0.00643881831716269
-0.0636143807739168,0.0243035920448187,0.00614662290769399,-0.00303303897662716
-0.0555439190489464,0.0235123117983226,0.00291956073152788,0.000270016841237848
-0.0526925606396094,0.0202720412239632,0.00346827094430898,0.00300228433013099
-0.0585033764631114,0.0213368369232559,0.00744897731295193,0.00540740815861185
-0.0634085199622607,0.0296159764225853,0.00951053856693887,0.00738573284613779
-0.0529417147909884,0.0430168693819654,0.0120018364796714,0.00777545972656847
-0.0359823234227014,0.0561099617262915,0.0139946264224051,0.00550683224175764
-0.0236107235216505,0.0610114670834334,0.00913168415007892,0.00168258630689506
-0.0143294026350646,0.0541330151661417,0.00417394951342662,-0.0015321644312925
-0.0115615171617998,0.0381867216648893,0.00456874412712643,-0.00309366145647316
-0.0155602292925142,0.0227219198196629,0.00326558135442941,-0.00317847880958932
-0.0200774673435246,0.0154346005881339,-0.00149763433838816,-0.00255266991485001
-0.0214365772160492,0.0142283643452648,-0.00421003312564215,-0.00209226394364117
-0.0180453059936891,0.0161245141553878,-0.00304560904699328,-0.00226018303275211
-0.0114646100562152,0.0188444059938242,-0.00220426727351253,-0.00266432331083251
-0.00580130932773512,0.0221676073574235,-0.00373978767615232,-0.00261424573361314
-0.00366592157839722,0.0307172695254026,-2.50589352295519e-05,-0.00248892258195331
-0.00577057872737742,0.0449590588700541,0.0070165960266723,-0.00291425097490227
-0.0104737764439574,0.0616929537000864,0.00631054192787812,-0.00310156557246238
-0.0174891095144723,0.0784625883014192,-0.00265051373751578,-0.00176690254542169
-0.0241142185855569,0.08970894307061,-0.0152960055292298,0.00185323651627794
-0.023675270401887,0.0909808941910826,-0.023506499497632,0.00722520424523111
-0.0177785466202988,0.0836406122365649,-0.0245170789647336,0.0119982718147811
-0.00755175572633984,0.0735621939175205,-0.0238492223347483,0.0138546342384311
0.0109971942844838,0.0633574249686686,-0.0252792954378119,0.0121900494125475
0.028576454618049,0.0513047378383033,-0.0267653748554561,0.00788626021073897
0.0329656770874316,0.0418649956101862,-0.0223983946187972,0.00259956646444461
0.0289244570596227,0.0364813000746505,-0.0142818370031707,-0.002045916278864
0.0275662299725967,0.0287096722639598,-0.0115145597006596,-0.005201940929376
0.0348063688723093,0.017596915868909,-0.014544352004095,-0.00688186932903304
0.0470713121006273,0.00859992843381888,-0.0172854453302725,-0.00719470206327737
0.0520585811226949,0.00905709364737395,-0.0159478390525215,-0.00595870361202963
0.0437910073733928,0.0178129229598936,-0.00641799232860427,-0.00391538787281887
0.0275234717313887,0.0207694982342869,0.00874105375611694,-0.00337070493081422
0.0106753512609808,0.00717272464353758,0.0272611172562821,-0.00543452145802749
-0.00580543882174626,-0.0107395884204201,0.0517785256488657,-0.00803240680734282
-0.0208963064979954,-0.0113749169309582,0.0687677058777349,-0.00916278500230475
-0.0254608828477753,-0.00210945041513546,0.0608448101856663,-0.00873995636242207
-0.0205979730520706,-0.00540194000578074,0.0347270823274128,-0.0064133802239481
-0.0183700180209648,-0.0224777571533442,0.00659119274226874,-0.00169763134475556
-0.0180960515392453,-0.033807218059888,-0.0153304667154837,0.00470949941263234
-0.0137663005487688,-0.0250968054578461,-0.0284791801119471,0.0113929413422396
-0.00892483946055852,-0.0050675652401161,-0.0345370260735487,0.0160779162352624
-0.00531536509059167,0.00767818084581606,-0.034442309802784,0.0163039850548883
0.00119835160664213,0.00684415575694058,-0.0289766279840397,0.012202562676045
0.00814709262676853,0.00367245165024582,-0.020559858897608,0.00653751840440669
0.0045915386259594,0.00138512992506443,-0.0140176854217427,0.00156658337111809
-0.0100014866177605,-0.00566650933739679,-0.0106101171405954,-0.00203544547938653
-0.0208445237361234,-0.0153492552614436,-0.00474498441268432,-0.00412898664442098
-0.0203696145215231,-0.0244198198110347,0.00122323084167841,-0.00473934964445569
-0.0131048648197474,-0.0294478682283966,0.00453387023833115,-0.00456996359061591
-0.00841647618515971,-0.0311825707321668,0.00878208843440699,-0.00493288131121262
-0.0114221853632192,-0.02939053046486,0.0135995971587501,-0.00591105215584494
-0.0171243937393328,-0.0125148692796531,0.0183442520279781,-0.00647117427689059
-0.025078205765105,0.0168174618687398,0.0204595036298787,-0.00732486676898757
-0.0324859664845173,0.026466426079229,0.0202736068819145,-0.010245275684781
-0.0392570979141342,0.00556728505190406,0.0226110445250195,-0.0145627724851724
-0.0509165735282867,-0.0181917849370905,0.0260077969934175,-0.0172307633059764
-0.0555592633793433,-0.0349726151883423,0.0290505584384192,-0.0157625127888357
-0.0516627095162726,-0.0511741111559945,0.0297991400244715,-0.00999866588020012
-0.0489250163758396,-0.0575230779884664,0.026932858465467,-0.00209447576315184
-0.0384126856114422,-0.0528372680144572,0.0233474569190052,0.00419907659223925
-0.0164242759221622,-0.0495648108944099,0.0199348242040392,0.00568104237493181
0.00396891052852667,-0.0484295260276357,0.0151883394957991,0.00267071357259079
0.0129076075255165,-0.0431063480061274,0.00728053900191768,-0.00108796445946724
0.00830794046031958,-0.0347742323128973,0.00145017837565447,-0.00174868667331726
-0.00274292417120428,-0.0255574130881352,0.0027967619302086,0.0019837624438121
-0.00413080451828002,-0.0160570362093143,0.00619026333038957,0.00770000106934025
0.00720141416821981,-0.0106015070845555,0.00401619134295025,0.0107726230266359
0.0192384548515318,-0.00857284756380136,-0.0013332447267496,0.00877564205719896
0.0312780625556852,-0.00600866731716114,-0.00409191465378745,0.00367506170448262
0.0491859824887509,-0.00492322501403899,-0.00882890837813587,-0.000508386415943727
0.0688187934306957,-0.00882336998997116,-0.0152603555053874,-0.00160878249538376
0.0721973793505204,-0.01816940075916,-0.0192575991659888,-0.000378432778595644
0.0431987824244581,-0.0265671292233606,-0.0184233099962947,0.00126727570149094
0.00316040807419893,-0.0249469566785872,-0.00963451120529604,0.00166967603337212
-0.0147638148875333,-0.0101271399136629,-0.00117192679682629,0.000647450726986548
-0.0118405608967001,0.0137560021914736,0.00333101855977484,-0.000712641878416033
-0.00520837075895386,0.0384730919990565,0.00799834958787669,-0.00179799546159782
-0.00931046620779027,0.0562009423727309,0.00878008206261235,-0.00256490324518813
-0.0269351042222049,0.0559399420107158,0.00405474798580709,-0.00293623958998494
-0.0332962041335566,0.0341190202168122,-0.00343423266138445,-0.00244831112172318
-0.00773408261303984,0.00736865913828029,-0.0121042252601862,-0.000727910461416994
0.0401390319799653,-0.00959716747707374,-0.0184805850283854,0.00131679082402066
0.0896957568024399,-0.0180902881390222,-0.0205503655122428,0.00260389128130653
0.122053559074262,-0.0210539372409847,-0.020061555286899,0.00301904548340982
0.126339613953089,-0.0198027539650726,-0.018335600148221,0.0027743502278779
0.104595145240777,-0.0155415689433544,-0.0140044412796082,0.00240765704380681
0.0677009013785935,-0.00675774691012817,-0.00438643202020794,0.00256291647846256
0.0292990534523613,0.00416634239185967,0.00472321421711301,0.00322435094448782
0.00517039074720518,0.0116559293124767,0.00431896706316582,0.00418280439216844
0.000182962827550186,0.00870563046053249,-0.00440319797681607,0.00536207547835072
0.00301007223496504,-0.0048628945621161,-0.0146289252927462,0.00632765804870549
0.0130198134745736,-0.0140960816116683,-0.019802393746564,0.00654295284303308
0.0338762507917379,-0.0146369845292724,-0.0217168861433492,0.00595877476684498
0.0497838844256215,-0.0140824816355497,-0.0252509285502631,0.00497916229283015
0.0498801046786879,-0.0108415411156158,-0.0272700063006744,0.00412121106388756
0.0448330093179676,-0.00502954882823653,-0.0230418505305176,0.00357583642761857
0.0462538913639402,-0.00466089011867335,-0.0141338689593976,0.00306012370126527
0.0533552976269418,-0.0109192572035583,-0.00820351768369304,0.00245993717671748
0.0539844681756106,-0.0164636632239076,-0.00829920419272618,0.00224674088595078
0.0446834741353686,-0.0163779522479147,-0.00798259616631776,0.00328374806773772
0.0449957906503455,-0.0151527637078477,-0.00432930105764412,0.00602950064995011
0.057966367612471,-0.0204526479292017,-0.00225857117681602,0.00947659682447838
0.0632009918762921,-0.0288546219527571,-0.00159728418108599,0.011770905026911
0.0565736454023125,-0.0344783972305179,0.00193628734768356,0.0124349673728091
0.0446026081563875,-0.0359440142985086,0.00823148698511859,0.0124026628507116
0.0344597713771631,-0.0341339811300395,0.01403131497163,0.0121934315273794
0.0287552577096469,-0.0319950635187455,0.0123435039208843,0.0114387217975079
0.0135858901909678,-0.0251730020149677,0.00543368791076894,0.00888871413684013
-0.0189173168524905,-0.0112132216861493,0.0040426164384721,0.00354991874300547
-0.0498312755077555,-0.00242003535649996,0.00522898627847849,-0.00312516221258037
-0.0642763869217814,-0.000949475031478172,0.00188205388167478,-0.007903950232181
-0.0827883095479482,0.00546480809019176,-0.00301757499274328,-0.00924638782514622
-0.109008263869023,0.00913516905738028,-0.00562755443499374,-0.00984864271505156
-0.0977787618328462,0.00519409625520114,-0.00700042537989197,-0.0145674030387433
-0.0439908543566253,0.0184185867853477,-0.00482643767704891,-0.022928646593338
-0.000443984549453574,0.0456945275330317,0.000174501000581199,-0.0281171648864407
0.0149299971171961,0.0472002949114708,0.000291078552288277,-0.026145908931874
0.0196948590919011,0.0294365433738253,-0.0014310626325161,-0.0189079396893049
0.0169661256389183,0.0329509331728668,0.00197406280134245,-0.00974142803994142
0.00869704026300216,0.0451428936202275,0.0075614041149915,-0.000594243977028029
0.000840294087572795,0.0351825256716526,0.00990884480997722,0.00831814580816379
-0.0193878924271617,0.0171220486142961,0.00806306250664597,0.0168054193441548
-0.0570116234765041,0.00918305248563196,0.00716712133769632,0.0237003226508523
-0.0771488089528088,0.00607282258370601,0.0100076863551015,0.0271803988557001
-0.0645459688739947,-0.0153505101472199,0.0130589625982763,0.0249595870896185
-0.0439345895582221,-0.0601941633165596,0.0143853294851739,0.0163743745999245
-0.0139177180453174,-0.0818712942274624,0.0134733734215757,0.0046211765987082
0.0215910895355616,-0.0625277560655096,0.00916275062763982,-0.00556615483469212
0.0342525551327047,-0.0402223678519588,0.00243557516074026,-0.0119029473913737
0.0331521632738635,-0.0274709060330845,-0.0047829070247034,-0.0150162083912659
0.0360128824899401,-0.00704298049662451,-0.010662486921577,-0.0168255539927991
0.0336824221789597,0.0266458804971021,-0.0133144180247027,-0.0186115796687002
0.0226099121622143,0.052458308138376,-0.016470169398597,-0.0200775522029976
0.0138396262158614,0.0524353532230623,-0.0217624045933672,-0.0203101532617687
0.0113238224639035,0.044362510015292,-0.0237495288344913,-0.0188775049596179
0.0105575018198589,0.0423238239680452,-0.0215986062228425,-0.0160349076581811
0.00509259175736548,0.0412488450846454,-0.0202141316173879,-0.0123515530283501
-0.0132708646893513,0.0366368661469647,-0.0186177776987548,-0.00876614703858379
-0.0358946033212626,0.0258206124748538,-0.0111642563453376,-0.0062361335925819
-0.0471475630523752,0.0163717519363085,0.00272655037032584,-0.00513901927556737
-0.0531602081738184,0.0075105485275427,0.0222497182882982,-0.00517277631738788
-0.058799272512744,-0.0133799317631432,0.0351976370063157,-0.00532827815147937
-0.0509803627490889,-0.0361422503686572,0.0235625855804569,-0.00461834142132561
-0.0320022661120903,-0.0444136630951382,0.000764389335022295,-0.0029206153982753
-0.0273990493940719,-0.0404762419500715,-0.00588817151044862,-0.000564777158463184
-0.0403506696085765,-0.0311003502561403,-1.80494678527991e-05,0.00189039873778477
-0.0396576470755213,-0.0179976378525078,0.000481536536564019,0.00332376407331155
-0.0153418756770648,-0.00174875226624558,-0.00415322062752131,0.00277677198011542
0.0115979463095523,0.00964033848652873,-0.00610097957765371,0.000799983581154912
0.0291722146754572,0.00276252833237633,-0.0058835321053541,-0.000665179259855061
0.0322014320417666,-0.0166456853382653,-0.00912027382374158,-0.000398900722311934
0.0202131747123964,-0.0264766616573976,-0.0175070333419228,0.00120709165835621
0.00609511263355969,-0.0195027593171024,-0.0245425168076303,0.00315148798060549
-0.000269500832945462,0.00163184594734356,-0.0278107566002186,0.00467594758388709
0.00462589595350852,0.0201579212043991,-0.0313679218417864,0.00559377665912013
0.0248368330111088,0.0100888174881848,-0.0342626651960818,0.00623054325481797
0.0453186356718706,-0.0172772605629531,-0.0332914061649696,0.0067822336857872
0.04388301728898,-0.0320709750342794,-0.0287572514676754,0.00708256591271613
0.0280612039682831,-0.033854409880058,-0.021906202520217,0.00708491113729923
0.0135525366352669,-0.0336290214238458,-0.0166172447377987,0.0068027367270133
0.00152004069025977,-0.029120338290839,-0.0124049193905606,0.00622583409651658
-0.0110227001087113,-0.0192006450692671,-0.00457285103292773,0.00541166552209922
-0.0246602282053366,-0.00906734495112894,0.00338823590101099,0.00456755041618236
-0.0368880612314947,0.00300759496219764,0.00844293740683458,0.00392792431698172
-0.0448650063853208,0.0174305994214621,0.00921071791327712,0.00315973418757355
-0.0464754546836348,0.0265007474347234,0.00878216215934008,0.00188384127777733
-0.039651572100097,0.0228800777542267,0.0167801607878737,0.000686458156965993
-0.0288948227105362,0.00802282048438207,0.0284713365096443,0.000476064289438576
-0.0280251380163599,-0.00627466352696047,0.0355247333471053,0.00152064574650551
-0.0413421714988406,-0.00977853982645658,0.0378082808144397,0.00331186547067633
-0.0602860961625837,-0.00623336065439901,0.0305882687580754,0.00510082858467644
-0.0637334701775566,-0.00486114985545332,0.0145830135684984,0.00664048020033312
-0.0380049778766934,-0.00118586296429528,-0.00284473605587647,0.00795392258691682
-0.012411699292158,0.0117791882194521,-0.0159138453581515,0.00876049329037234
-0.00471664848080605,0.0277738764106806,-0.0185800095254359,0.00912554877880198
0.00610644221321593,0.037512529944407,-0.0128680326609359,0.00957504401414314
0.0199670200248007,0.0430674702808582,-0.00425850968522466,0.00993120348591647
0.0241392117217419,0.0488688340085144,0.0059157880619941,0.00939880389452428
0.0183019868310595,0.048832927680683,0.0098196224430485,0.00775530128507049
0.00611795242117089,0.040544078189405,0.00349422334239849,0.0059148218101749
0.00699720759952394,0.0319357959996656,-0.00437408026573693,0.00497560310772002
0.0275773584514214,0.0289710075105803,-0.00781045588494833,0.00508983426229566
0.0417093732490761,0.0292076864095031,-0.00703195386994522,0.00542379115911248
0.0328434236842159,0.0285393212489223,-0.00424323191369346,0.00484025720593641
0.0134701143144152,0.0282998349257961,-0.000979395026777636,0.00288619209212215
0.000564630298068636,0.0259103882204685,0.00543376576262989,0.000163028207320839
-0.00300271760648946,0.019278614307881,0.0132517146831382,-0.00217685193108694
-0.00366344661796779,0.0172674403163756,0.0191332208208033,-0.00351041369570161
-0.00785981759080406,0.0154238330054723,0.0259241309370797,-0.00425731002118761
-0.0171987826562447,0.00228154103469365,0.0318484826978629,-0.00488004408362016
-0.0259859566817715,-0.00470965352805863,0.033673448567143,-0.00511526012471441
-0.0288485688194905,0.00817673185219345,0.0274802485101231,-0.0045619004118338
-0.03821580512841,0.0197747056242225,0.019422726168419,-0.00332489131965236
-0.0618943961001504,0.0153710071578733,0.0232899123697904,-0.00217652211171718
-0.0738535493353307,0.00784748036536726,0.0323932143248542,-0.00176276938738339
-0.0611511371174661,0.0146975568330398,0.0340056264154481,-0.00184302940477749
-0.052151909742845,0.0238368416302351,0.0247468287122534,-0.00188319061849351
-0.0393286342792173,0.0109411640221843,0.0104164655290186,-0.00173231235209886
0.00931134485204996,-0.00587751520359111,0.00353538998453992,-0.00181191975410342
0.0568237404096597,-0.00206828045869602,0.00409505935531842,-0.00234000579227316
0.0602626552539208,0.0108441880034463,0.00220188852187913,-0.00283016777128102
0.0380472630454514,0.0172956099371434,-0.00534889325910514,-0.00290046150244085
0.0163789714424735,0.0135376867416385,-0.0107760380818611,-0.00259481100683422
0.00554866184207771,0.0043352019321728,-0.00716145227607589,-0.00227548008553568
0.00864243098819804,-0.000251198999095127,-0.000549423529520915,-0.00234735762270271
0.0200119422515527,0.00265460830379884,0.00312116973716563,-0.0028468580190851
0.028743155222448,0.00556165560097201,0.00569548661860291,-0.00345993604360762
0.0261797209041768,-1.23408927880271e-05,0.00585796510002398,-0.00381493752253784
0.0172631505743677,-0.0136015406005944,0.000464943889254836,-0.00382864492421408
0.0129342589673529,-0.0255707867268181,-0.00637026430004914,-0.00386423321606719
0.0120107858934813,-0.0315730421416198,-0.00979730304702363,-0.00443479594253322
0.0104927194201046,-0.0353447015536331,-0.00808299484226515,-0.00532281407985642
0.00857659708858519,-0.0395686542066082,-0.00413224899616318,-0.00565800346958003
0.00247830721699611,-0.0427044060183667,-0.000787031875764743,-0.00491109567682972
-0.0119351231756176,-0.0383983620700228,0.00542907871999767,-0.0032540113463763
-0.0324863873055169,-0.0261975845402824,0.0131683406411589,-0.00128879054009375
-0.0479216179482461,-0.0142221707043311,0.0182023630973973,0.000344988573957178
-0.0523760201137479,-0.00626379209533089,0.023015448185758,0.001280662597205
-0.051776971760709,0.000596617471587045,0.0282790832208,0.00165275176938135
-0.051276794862842,0.00880406604086207,0.0297784957522337,0.00163239642002974
-0.0500781224319604,0.0174073633554196,0.0279495140114072,0.00104410876435657
-0.0420864082102314,0.0193956729653221,0.0271841368452535,-0.000103721175157681
-0.0248957568214657,0.0100996610868409,0.0249722720698744,-0.00125899503296746
-0.00453995190997796,-0.00437914622847103,0.0193347261070539,-0.00158149929776725
0.00798782392371013,-0.0150926141067077,0.0153148690520836,-0.00079666665534133
0.00858886413492485,-0.0198049297689235,0.0112475222995823,0.000435816970576871
0.00905350349773516,-0.0245257246428845,0.00103098337012493,0.00163809204999932
0.0226720925643289,-0.0294243886877903,-0.0103589986020988,0.00256635996764737
0.0400115425818451,-0.0281016993477794,-0.0139154719412308,0.00259869095493366
0.0374988600341329,-0.0210997047527314,-0.0121103000614219,0.001603130987101
0.0176722579112849,-0.0134678953525095,-0.0103486795364402,0.000198730991093117
-1.53411016527768e-05,-0.0107943892306397,-0.0102247475570315,-0.00100245037184198
-0.00922138319653911,-0.0152199421933042,-0.00799796531747173,-0.00170173601010208
-0.00939684456125638,-0.0181167083479893,-0.00105324748880008,-0.00191809242304646
0.00763517315177728,-0.0112432831594293,0.00380716029106511,-0.00196376244422625
0.0372778363354145,0.00532052745979791,0.00519193503581245,-0.002138187499367
0.045708980516708,0.0274107268129797,0.00899874882815281,-0.00239568355652612
0.0265052720214873,0.0414046246813692,0.0137784644984322,-0.00220007842085792
0.00444025815156322,0.0383641067409568,0.0163965569755226,-0.000745014313778629
-0.0140597575388273,0.0261858980138947,0.0165890706052223,0.0023938800837644
-0.0265791778111941,0.0155986361794144,0.0149861638772409,0.00620180768093322
-0.0323571791889443,0.0117726665695834,0.0122243308004302,0.00840886834941191
-0.0366501069421551,0.0130431131623574,0.00878545103651285,0.00818993467626629
-0.0338524633888082,0.0134061691236882,0.00678226600573778,0.00683519886458341
-0.020039781082745,0.00699302693060425,0.00430060087673901,0.00532588800863011
-0.0036714742416707,-0.00127494365786784,0.00256872485097511,0.00373025435536939
0.00784949186686108,-0.0018991294946807,0.00488613827797171,0.00219812030938188
0.0132746987431143,0.00224669646454931,0.00803376562927915,0.000401812488092177
0.013146817532309,0.00684764462772274,0.00919442118327856,-0.00244830181518631
0.0126007667287981,0.0122149997712028,0.0087016547436005,-0.00563094924893791
0.0149251817413094,0.014940513141245,0.00843211283254661,-0.00731952856514519
0.0182896751297225,0.0135015330805635,0.00950279976645557,-0.00746982055256573
0.0183044079375588,0.010146556812754,0.00839726507769578,-0.00749582443202116
0.0124229267449477,0.007023782021445,0.00447742861873268,-0.0074272352196456
0.00884843227217942,0.0075287669205057,0.00190983930483739,-0.00638533283930826
0.0120050443365112,0.0114830971084085,0.00270206093885451,-0.00416083865817935
0.0159206313782339,0.0145173922339706,0.00336414404487552,-0.000811377451783704
0.020280902538853,0.0124359871324823,-0.000577098906386965,0.00322241116816312
0.0275499626789544,0.0050059646561111,-0.00590831690429737,0.00672540418503648
0.0296462931503926,-0.000502402801339646,-0.00862969886625151,0.00852359173051396
0.0188837026218578,0.00466933236395098,-0.00989941901929068,0.00853967259863718
-0.00472812320646495,0.0175789867449268,-0.0103611362501791,0.00724350427452808
-0.0304642115801319,0.0256212857582513,-0.00881674220727592,0.00496228654258762
-0.0371800825419102,0.0234130989774439,-0.00581205522747676,0.00220592170495961
-0.0218709278883605,0.0163428995119778,-0.00325524582938177,-0.000512666423762769
-0.00435398564774245,0.012700682758512,-0.0033749290359373,-0.00265230119721761
0.00241771205278568,0.0112906791324984,-0.0063021750962257,-0.003788755378629
0.00718066735836547,0.00387509249462392,-0.00974169322108172,-0.0043373849522802
0.0224078606171292,-0.00669208001978257,-0.0110171589023225,-0.00489566268229487
0.0434793434572717,-0.012966238860705,-0.00946901874846911,-0.0052630016971935
0.0612856768816402,-0.0143001083500591,-0.00878689755740854,-0.00507003181809833
0.0694127417911774,-0.0150777426513781,-0.0104690034726917,-0.0045421824591881
0.0617772820398919,-0.0182702235762491,-0.00896745060753334,-0.00390412730744124
0.0425931144608386,-0.0183870628736548,-0.00549641467609733,-0.00308772068511892
0.0231409929274435,-0.0102295069602063,-0.00583589772522771,-0.00211021034953263
0.0105422184359161,0.00286689747544429,-0.00797093062760069,-0.000863084138553087
0.00375738204310465,0.0159935270628334,-0.0102092473494918,0.00059681742505624
0.00313901263543258,0.0292968305821534,-0.0107480845944781,0.00171407157068954
0.00643195021093114,0.0423512479274015,-0.00832826329685479,0.00213847106623458
0.00454230774663105,0.0499696730566631,-0.00688016039105722,0.00216259952620715
0.00104516339391916,0.0459446133177206,-0.00831700669906056,0.0024250126499255
0.00301847805117223,0.0304964591241241,-0.00967546040214776,0.00335999862692107
0.0039419515409266,0.0146520357678238,-0.0101819258504093,0.00460737992207422
0.00225296439694948,0.00674850374530879,-0.0122621409975364,0.00514758505908679
0.0014808005199157,0.00478353731417758,-0.0151015747782047,0.00417491902209506
-0.000118128438833989,0.00579501043751798,-0.0146216965334089,0.00163440771590122
-0.00376783595794474,0.00521336031086042,-0.0104489916894519,-0.00203774344422666
-0.0125596505025644,-0.00220377942577525,-0.0076072747097499,-0.00593566933118357
-0.0236283143957595,-0.0137554151170438,-0.00696891639993316,-0.00849809042487493
-0.0308032532674433,-0.0233559293529917,-0.00128048953193795,-0.00861391032911682
-0.0334232174341738,-0.0336566814636699,0.0125744678555885,-0.00632883809250739
-0.021771073315014,-0.048638430389939,0.0228901233147183,-0.00231164732253429
0.00179383828746618,-0.0592756239306947,0.0163381563399382,0.00190103003375533
0.0136788926170614,-0.059508216637613,0.00142335906395077,0.00440892207206916
0.0150958320629957,-0.0531676668161997,-0.00447093475202909,0.00430303293985614
0.023151104290354,-0.0353474168764493,0.00106128392964985,0.00176625694151007
0.0311322362696271,-0.00254353931914326,0.00919555077010331,-0.0019267955766467
0.0181037244425503,0.0338021523760716,0.0101110053684318,-0.0045635982808074
-0.0154893510916075,0.0582908699818712,0.00484781816586122,-0.00400746641074349
-0.0465544404894381,0.0583107903879569,0.000593173010289279,0.000251330399799535
-0.064209975777449,0.0448119247548129,-0.000969795767733407,0.00596143200133669
-0.0675614405011722,0.0425403104643421,-4.77517890582341e-05,0.00958593473702439
-0.0501705017811999,0.0399310863402651,-0.000778508945793316,0.00914346888196041
-0.0194065001448569,0.0207797580656239,-0.00431280543335806,0.00533378133941096
0.00516929449862159,0.00510060432682104,-0.00447423565157818,0.000632733794899065
0.013612880724173,0.00475290412623008,-0.00120020267628426,-0.0027288812217805
0.00815848178816031,0.0060054394496274,-0.00182993470688348,-0.00413134905620923
-0.000995066356800103,0.000383006877091918,-0.00506154885095809,-0.00425080370713392
-0.00646047126806335,-0.00845004911544953,-0.00247772277780407,-0.00386115610591041
-0.00745282430471696,-0.0176624297246892,0.001333823809517,-0.00316438905310329
-0.00561242758650757,-0.0249023739937539,-2.2942379111714e-05,-0.00237738532037682
-0.00665572866342637,-0.0287215950535647,-0.00356672973368873,-0.00183875106663012
-0.0143181259964488,-0.0290332879545235,-0.00332451765233611,-0.00157475606408378
-0.0219698417581438,-0.0227702494870879,0.00254395180579425,-0.0014959851834691
-0.021011285891719,-0.0122894663249476,0.00900144478546895,-0.00132404481586331
-0.0142654128856523,-0.00384251286989575,0.0128202462409077,-0.000762558305217713
-0.0111257008020273,0.00363460261216136,0.0141953609677292,-7.94646140306202e-06
-0.014039345138725,0.011721434458285,0.0166048868207148,0.000520991450265938
-0.0183557376578667,0.018159066837412,0.0197011021265,0.000636002634423753
-0.0194167022318374,0.0213988915020968,0.0156041352498509,0.000554866151320575
-0.0163173669323132,0.0204787875213673,0.00471920369592331,0.00117171086597655
-0.0105959449006873,0.0186743066296878,-0.00228209030515559,0.00308749084134296
-0.0050073476908154,0.0193422427997642,-0.00303272804089672,0.00520767789583073
-0.00153940487229081,0.0186959582984966,-0.00399044137156283,0.00591104250589352
0.000951426893546437,0.0127454770286132,-0.00746346159991005,0.00486367696921051
0.00271908245319935,0.00512549948309468,-0.0101610612966525,0.00322526694756412
0.00235352928509649,0.00179997556661293,-0.00798377123003615,0.00187024684462707
0.00101632811740014,0.00235890995597049,-0.00570754745278545,0.000210426198553277
0.00225078866676834,0.00324313480275666,-0.00967907571634048,-0.00215437883106124
0.00942901131625468,0.00273696874280956,-0.0161559628945697,-0.00493057581743385
0.0218911321529652,-0.000439628684358271,-0.0193174036390323,-0.0072432037064802
0.0355894981784344,-0.00469144361864615,-0.0142340879931469,-0.00766201580374662
0.0486010861312292,-0.00559617460050264,-0.00260221637831458,-0.00601495879274531
0.0526780983169739,0.000401594727122275,0.0113627421833645,-0.00359703783486545
0.0386135734741985,0.0127835956418277,0.0255746351956638,-0.00139455435979311
0.0155599810193969,0.0215615659524534,0.03250335543088,0.000679660723863025
0.00113140946098857,0.0199353993896526,0.0280464015451215,0.00293856715843023
-0.000305063162733623,0.0148945787909703,0.0150549322781309,0.00500651633029068
0.00187865310534511,0.00792485016274249,-0.0040579376628254,0.00645850304606083
-0.00267179207402534,-0.00232688928297199,-0.0238890667580048,0.00747036226699804
-0.0124250765055028,-0.00553312845798434,-0.0330449806531449,0.00813553421950023
-0.0120707369072755,-0.00120083702869766,-0.0292539021740495,0.00787426043668648
0.00234880059670252,-0.000923936726282144,-0.0223745567722177,0.00597063194804523
0.0108131079468727,-0.00488342833881056,-0.0131178534204955,0.00267900346294922
0.00209388444108197,-0.00445865946865704,0.000673776667333318,-0.000687456508280986
-0.0102766007358677,-0.000743960715463428,0.00616718927509532,-0.0030261806812015
-0.0125707954645555,-0.00248617474826696,-0.000565642098710253,-0.00386669538065112
-0.00383791540256389,-0.0084358795552556,-0.0067317364430335,-0.00348748216340557
0.0080885657368286,-0.0129364538771064,-0.00675158294880738,-0.00303736099752208
0.018003092452384,-0.017838201358641,-0.00316891055333427,-0.00311825624968167
0.0269434302671475,-0.0270591130600626,-0.000191965880834413,-0.0032563413335475
0.0315052693251047,-0.0380108730643609,-0.000499821467546239,-0.00303576997688506
0.0326520299435893,-0.0426641224872169,-0.000788870702395569,-0.00244129282666303
0.0371266456042766,-0.0354415762833145,0.00443855007909758,-0.00154507365810443
0.0409094440505262,-0.0178845473102814,0.0134208612428105,-0.000594092321937835
0.0430887515095497,0.000809613741488725,0.015631886265457,0.00030614676157232
0.0508855769269927,0.0190868044825157,0.00710315733330473,0.00143282169576181
0.0592553145038779,0.0400441171115512,-0.00200453958037718,0.00284175983658952
0.0545945664373611,0.0493255277564382,-0.00460928873218954,0.00394936747663006
0.0307422558581806,0.0351191624989869,-0.00885323133136072,0.00438789377753424
-0.00469802719829306,0.013016490412902,-0.0180252207370743,0.00453930247659005
-0.035526865364482,0.00134071748175461,-0.0223035789947316,0.00454286131905921
-0.0535007705157403,-0.00255824120793595,-0.0217367865248094,0.00407150900342438
-0.0649837430152488,-0.00964908102776846,-0.0236195391530506,0.00337612598045002
-0.0758249742071111,-0.0283421004624462,-0.0274611153720622,0.00315112484439674
-0.0789717153382338,-0.0574640338468303,-0.0249639158802148,0.00330953644402999
-0.0702340088977499,-0.0760519572872733,-0.0136114072010727,0.00262693901831101
-0.0603289855821892,-0.082538703235071,-0.0038778852986452,-0.000134121246171684
-0.0463354323112532,-0.0932363967066875,-2.31911417300501e-05,-0.00441841957148385
-0.0217700646635053,-0.089977491625643,0.00143946579557321,-0.00809472786820905
-0.0015447027942717,-0.0626491436493248,-9.84657580641313e-05,-0.0095081247186076
0.0129586226875126,-0.0317108187194016,-0.00510006215162256,-0.00856454432339813
0.0217429947010804,-0.0161641607934629,-0.0142425626666273,-0.0050125659082187
0.0187701637468716,-0.0146470913670449,-0.0214681443381355,0.0016570462424502
0.0186594725722175,-0.00638917732020064,-0.0152233129394605,0.00873192835435226
0.030773117208894,0.0197850021337308,9.12616514749057e-05,0.0116219044433381
0.0458192816045558,0.0561192100023616,0.0139397303714901,0.00894789469178634
0.048388824996499,0.0727745862462039,0.0226704362228262,0.00334123536443864
0.0310059144016541,0.0514352135502304,0.0248650391458173,-0.00145040252859255
0.00363223709362469,0.0300362000548741,0.0245583625445442,-0.00353421199076642
-0.018405375203008,0.0477929293838606,0.0226356368571415,-0.00399315101132836
-0.0366516678003846,0.0670669092265059,0.0117158799169507,-0.00484601222620396
-0.0542758278110747,0.037247563929013,-0.00690955046357324,-0.00609911432735491
-0.0559895382224472,-0.0138597141282821,-0.0210656304296667,-0.0059314346965005
-0.0406151785355395,-0.0372071169203969,-0.0247406065546312,-0.00377113086418241
-0.024983904202917,-0.0350565826050264,-0.0231912586155333,-0.00109492383641498
-0.0145179503042221,-0.0333499686653621,-0.0204866970228837,0.00086884479100944
-0.00639214166792982,-0.0372646735415776,-0.0151809500513385,0.0017686288687491
0.00055127441596378,-0.0359984928569006,-0.00999008751838676,0.00164956901906556
0.00809211784898591,-0.024814435544378,-0.0101409801076663,0.000934481356549534
0.0155600970510385,-0.00747954389025486,-0.0139815192764595,4.89638598196297e-06
0.0129224552563858,0.00497857710563101,-0.0163379772322233,-0.000803812168061011
-0.00191094381848509,0.0047905121588175,-0.0145823381976806,-0.00113605210967827
-0.0122652666756191,-0.0010835048971094,-0.00988018426929489,-0.00102819597582809
-0.00904441370429993,-0.00312533082382741,-0.00601980782873418,-0.000443311933600627
-0.000672836834727741,0.00347840009053122,-0.005150444963259,0.000624204881751372
0.0034088445619576,0.0175125240862694,-0.00231731076253443,0.00126693256789778
0.00347240201116236,0.0308950306322374,0.00991694209692158,0.000324976812628498
-0.00295594893298684,0.0374226353417766,0.0263886503194836,-0.00235449523433667
-0.0215570817894044,0.0363197200373586,0.034818134054222,-0.00510940061445003
-0.0394144659974287,0.031340742384444,0.0345291725550331,-0.00588002208983038
-0.0403469923781852,0.0298281268447318,0.036890040018897,-0.00465921410909841
-0.0282160163680397,0.0333247711874646,0.0460177925598,-0.00271249677477632
-0.0222103345643027,0.0377428740233773,0.0533275095425442,-0.00104993443259478
-0.0319849378650524,0.0407339576786969,0.0511343454408834,-0.000210418385376654
-0.0424047720044021,0.0408895243796999,0.0400392913004347,1.03164131691458e-05
-0.0356839583341232,0.038611937708322,0.0262982002005828,-0.000100603051682431
-0.00850411059623291,0.0309744674686559,0.0140625873827664,-0.00049533005580737
0.0288306452670165,0.015034115964998,0.00435657632401329,-0.000743783012549866
0.0532310599964234,-0.00373131299490014,-0.00357531946844689,-0.00045554502666616
0.051186135058949,-0.0194693095886307,-0.0089505662335559,0.000134473436138281
0.0407051438706412,-0.0284696203058914,-0.00803629350084192,0.000823944907410682
0.0457551167455382,-0.0277557322304305,-0.00457457948016295,0.00154069997765923
0.060839636754447,-0.0222342253100471,-0.00356563969932877,0.00157113923548177
0.0595242380561982,-0.0173917944367085,-0.000318912581340199,0.000550904567901842
0.0375270399230263,-0.0110366336686155,0.00840431260149972,-0.000481793354373409
0.0166852087188459,-0.0042750595384983,0.0164007515680163,-0.000211021280505279
0.00638717092252813,-0.00235897790758193,0.0166516553723583,0.00140667296345214
0.00108410510656916,-0.00364130728752325,0.0125535174495291,0.0030160740247573
0.000280523199153331,-0.00319348022131264,0.0103810832654282,0.00350499403371807
0.00415032420591582,-0.00301012569741432,0.0101684957844802,0.00284429150738141
0.00470109706543013,-0.0088863313255657,0.00970300112664263,0.00166540083432985
-0.0064257754236697,-0.0200997683760893,0.0078607831966759,0.000914310972715134
-0.0195068058516295,-0.0310886333828694,0.00876083970787592,0.00110008053227549
-0.0184018247382247,-0.0384444582916401,0.0167829954541544,0.00191515562559601
-0.0133193374877863,-0.0414479091251696,0.0223432828124981,0.00241061130237725
-0.0133035321412714,-0.0374425427459362,0.0158341797798962,0.00224845788019965
-0.00939950755097482,-0.0212505862422227,0.0079416521784173,0.00208654882029662
-0.0119291703489089,-0.00194174494642987,0.00746365801874122,0.00165843131403386
-0.0229943115252674,0.00383556673074896,0.00483801282999308,0.000579918673028685
-0.0248240813196209,-0.00274219969054795,-0.00207153069457234,0.000472494662679111
-0.0229149192631811,-0.0154780987451099,-0.00468101731730036,0.00304196966654067
-0.0227602098606299,-0.0289080444765153,-0.004208777880002,0.00749121452767079
-0.0173356499359832,-0.030706493275836,-0.00303746821452824,0.0108857722920856
-0.00462458430263887,-0.0206895835658674,-0.000638570239639112,0.0105967810214536
0.0196071410348757,-0.0112194491069044,-0.00246454690619691,0.00606436535127121
0.0440376349026147,-0.0112018884363511,-0.00871603604466794,-0.00117313603880404
0.0383045916677829,-0.0192536574932411,-0.0118068781936124,-0.00807013170872839
0.00482840855246444,-0.0229687107381759,-0.00934499400335214,-0.0117946808523946
-0.0184134563121494,-0.0204039031802739,-0.005171838248148,-0.0112150812467653
-0.0223922409551954,-0.0254958036607521,-0.00655972122231179,-0.00750857108345766
-0.0210581858060956,-0.033025895238236,-0.0123226535694668,-0.00334020426069336
-0.0121176020019589,-0.0251604120525103,-0.0132156701496312,-0.000234926407724267
0.00363567703904674,-0.0148519937618633,-0.00990246564922513,0.0020697878163831
0.0154771497963348,-0.023252863361968,-0.00894752400431941,0.00369178029996489
0.0226929120919009,-0.0317304023912658,-0.00905686299215815,0.00415502937744111
0.0268108280647623,-0.0157441802501314,-0.00442426382096599,0.00342157048419327
0.0217637145751756,0.00344336771139443,0.00232227563027627,0.00214185004059668
0.0115879611045485,-0.000728995200418373,0.00392159783537576,0.0010475561907442
0.00632588892809984,-0.0132018924795043,-0.00193147861908641,-0.000187177790329933
0.0110459337899783,-0.0127346644255161,-0.0125975731429335,-0.00236018193884672
0.0268268672992589,-0.00587618986692531,-0.0217823810857219,-0.00466772704180604
0.0386380314951508,-0.00426745611015661,-0.0254703428683834,-0.0053706111970911
0.0345706345640295,-0.0064840847370422,-0.0241007573136404,-0.0041789531968933
0.025886399138471,-0.012073054156019,-0.0200880465025125,-0.00226923895742386
0.0222706256520522,-0.0218315210091122,-0.0152350174304787,-0.0005056929145871
0.0207400647238249,-0.0284451422995909,-0.0092305380934342,0.00121274058904814
0.0177123894664276,-0.0300690607362289,-0.00636070331947904,0.00279310332091918
0.0148273731508148,-0.0293561524927209,-0.00927695733912959,0.0035317594332304
0.0098139066369816,-0.0229764737981291,-0.0108811550527408,0.00295994805923922
-0.00408963529378351,-0.0135081710651851,-0.00894257598139189,0.000961217596226438
-0.0226134430313355,-0.00551980010887328,-0.00755634806943216,-0.00250130002396303
-0.0362701178435771,-0.00163113568315493,-0.00820179783980725,-0.00702093582556997
-0.0393462771981026,-0.00735137122772037,-0.00699417509073809,-0.0112166567950341
-0.0332612190603997,-0.0108149145544767,0.000203219350836528,-0.0132104523591478
-0.0290415234632334,0.0020573830149456,0.00514403595724753,-0.0122906261979105
-0.0338527856428012,0.0178792820126612,0.00490877867713332,-0.00947966054521287
-0.0360642799094772,0.0292070689019252,0.0054856208291661,-0.00639213060045312
-0.0265505491841299,0.0430395303883553,0.00604142154890937,-0.00384807555789206
-0.0160295519675998,0.0444574726152531,0.00436293576296609,-0.00157095172419048
-0.0132137942960467,0.0188736018294659,0.000513243457731835,0.000673804290665326
-0.0156752947670506,-0.0121345770973115,-0.00174825471441836,0.00268326291203702
-0.0078248886693681,-0.0256583000546103,-0.00133741795247839,0.00413521799482382
0.00920230216899028,-0.026028154356527,0.00127217633773034,0.00443027710744361
0.0097446338335707,-0.0237876813089852,0.00382612202209624,0.00367753549713024
0.00107045733894458,-0.0204110336291922,0.00223122649475528,0.00317794864306796
0.00833000993497472,-0.0144062458966451,-0.00134662206671582,0.0035035370739774
0.0199310675640953,-0.00857591842158856,-0.00241583149901454,0.0038567834039381
0.0151129137028329,-0.00489453639812889,-0.00031785983353257,0.00341339711296435
0.000578340301729555,-0.00224590088319117,-0.000457268045369328,0.00235968672557309
-0.00809646840358341,0.00353853739078445,-0.00352829910197093,0.00161417056987573
-0.0055601856033433,0.0135963176789385,-0.00399901481243961,0.00146077275309683
0.00911829066526245,0.0220335189330635,0.000698125017821826,0.0011799730924006
0.0272838009024982,0.0280607190857397,0.00468826196770511,8.52927443144172e-05
0.031444522472493,0.0287116161868751,-0.00181571354724256,-0.0014986140042258
0.0208047549625796,0.0179722509420548,-0.0105870029152557,-0.00214419687297347
0.00468598543391115,0.00714781237547965,-0.0101547902498151,-0.000739982520230804
-0.0144002712259854,0.00708972400789212,-0.00714557262581515,0.00212464119659443
-0.0282801578974753,0.0084458128612835,-0.00502484184229922,0.00474047255388581
-0.0299961988369254,0.00675810104628454,0.000275352266129893,0.00586480336698826
-0.0309700858402326,0.0106441175165825,0.00843994934706532,0.00557980228847501
-0.0374042311007159,0.0186861497961558,0.0137624897709071,0.00483093224932203
-0.0388002307770099,0.0217724187308672,0.00902529105092043,0.0044629814876617
-0.0326141448802777,0.0183901702957089,-0.00255926653615867,0.00445469563847963
-0.0289028464333526,0.0134945654858434,-0.00911937127392985,0.00403806152086287
-0.0340470857508654,0.0114896873814852,-0.00900549979491023,0.00285862468268171
-0.0411422356737277,0.0123475435008242,-0.00614642747571074,0.00181286853241639
-0.0402163347294073,0.0107367259636626,-0.00185481236635015,0.00233374171444128
-0.0305833266661377,0.000867579008577889,0.000314971469468258,0.004834096572308
-0.0186520360250839,-0.00987626191891079,-0.00113291228752896,0.00716222477893871
-0.0117337001756598,-0.00865378132213154,-0.00578972102059454,0.00569450725938031
-0.00805593399649042,0.00188293004056866,-0.0133235510600684,-2.44355042585609e-05
-0.000923168440728282,0.01081047915766,-0.019903277004042,-0.00645142070100639
0.0185311449824339,0.0243544046173019,-0.0191593136984196,-0.0104255251880431
0.0575119110378085,0.0444799066795353,-0.0114980927970442,-0.0109860242792427
0.0948199335410632,0.0454005131668488,-0.00724403075519757,-0.00861451560586442
0.105146127547936,0.0205638185919932,-0.0124601406963293,-0.00490918169542594
0.101308955206684,-0.00698135140542484,-0.0198126491377852,-0.00163450958939057
0.100514989722543,-0.0252811443688624,-0.0221376900843983,0.000613428270884167
0.0966748210853003,-0.0350836829742527,-0.0214141226949973,0.00290631315776754
0.0827818131968387,-0.0343017359385463,-0.0199713871558688,0.00617075165328297
0.0604199654292306,-0.0229482765757344,-0.015431986492785,0.00953450894397843
0.0384087712491872,-0.00874138514031458,-0.00822215460059488,0.0112167379370807
0.0240584060783053,0.00113322163910175,-0.00195423190826029,0.0099504736997359
0.00895709659212118,0.00664456884643125,0.00277609737578431,0.00692337399544153
-0.019091555058169,0.0111506496102268,0.00279277626839688,0.00514353324913647
-0.0499990249286437,0.0145122632462544,-0.00230819243570262,0.00517316462351896
-0.0666217091827348,0.00820299323955925,-0.00606725994461152,0.00466710028832887
-0.0737577929782382,-0.0218967570209011,-0.00749216269609541,0.00183201779517216
-0.0727530567038354,-0.0574243979665343,-0.00881244502995559,-0.00336805851268953
-0.0589733490562246,-0.0547730899080581,-0.00941811724191677,-0.00977292217957198
-0.0454984678208916,-0.0201293983203763,-0.00746068207045528,-0.0148815609078598
-0.0350050063741573,0.0130793239160801,-0.00379309596476379,-0.0165107774209097
-0.022311981884982,0.0398224393645671,-0.000422369739886203,-0.0159171685255821
-0.0142551172555081,0.052846254221777,0.00286884000840232,-0.0159070038502684
-0.0100031052985975,0.0422305083977306,0.00567089671674774,-0.0158428875549064
-0.000618254400702109,0.0256556365823503,0.00502682745009483,-0.0130083872362694
0.0149135576863334,0.0152040722255283,-0.00110016927186635,-0.00753296626243695
0.027752921842234,0.000318840676558421,-0.0106087601448599,-0.0019411376843825
0.0264875361644649,-0.0170765410769274,-0.0207808159284575,0.0013521416649445
0.0100018773139491,-0.0244438750352624,-0.0299636385657386,0.00159092511534524
-0.00662309988181594,-0.0236544608557486,-0.0358516001046024,0.000433687284117763
-0.0119869865282645,-0.0249359655256367,-0.0354882507467266,-0.00036361089346635
-0.011073483871814,-0.0289264773577635,-0.0326798012204449,0.000113057134057729
-0.0135192977011939,-0.0273203389014484,-0.0293312056578654,0.00248210019090639
-0.0216889865319482,-0.0187495811029114,-0.0251435063913154,0.00555309733025044
-0.029736537175516,-0.00795112035663031,-0.0242610705609801,0.00688902017303341
-0.0340282915224657,0.0034754728063411,-0.0221722027593997,0.00541600558376703
-0.0364387294547806,0.011949128501908,-0.0195912599324678,0.00229805650170857
-0.0340158064012946,0.0136212478077952,-0.0231396127198608,-0.000100249132018684
-0.0216899036683467,0.0101265843381093,-0.0277995490323391,-0.000332181829833229
-0.0034944653553405,0.00397806231300957,-0.030143415443806,0.00116387959986776
0.00503042352466351,-0.00315314699111319,-0.0322329854484879,0.00336467180737638
-0.00584045987388043,-0.00968088511649254,-0.0306536251423071,0.00544869518447176
-0.0247411817722288,-0.0108781036888418,-0.0204735445287966,0.00627002387405983
-0.0398297909367708,-0.00384915329842093,-0.00548988132965684,0.00478717547933427
-0.0511312280935599,0.0093651790266961,0.00638741531483986,0.00119364130400335
-0.0645045073732554,0.0290514805014128,0.0126874409259542,-0.00294778797437771
-0.0809426432277046,0.0460834088450153,0.0167422554926134,-0.00628480289766148
-0.0902003984654734,0.045681084941066,0.0187958986056614,-0.00811430721760077
-0.0867030752624401,0.0303067228009132,0.0206260251866594,-0.00771515058296848
-0.076135157643804,0.0150860548616736,0.0249949641417917,-0.00541313486662043
-0.0618588808982803,0.00540956213993539,0.0204234571125495,-0.00298733600197296
-0.0418575553787113,0.0013479003866654,0.00490979170983485,-0.00176216101840788
-0.0204535676207655,0.0136553146509069,-0.0056973377969222,-0.000773520567883445
-0.00298024270266359,0.0433370552701281,-0.00821358985612979,0.00133738229933851
0.014544942146859,0.0637430813331201,-0.0107598621787953,0.00355334835180362
0.0307683363099862,0.049807035751878,-0.0145095043791228,0.00485828552700142
0.0405161441105749,0.0136946021615777,-0.0204405697715179,0.00675293359080606
0.0465249747900726,-0.0115635746171962,-0.0320948016425941,0.010365897626333
0.0511192182051735,-0.0152307890477461,-0.0423092356381361,0.0142804530054917
0.0564840787690739,-0.00886523584806284,-0.0395345487019815,0.0160395953730553
0.0618564737300107,0.0023408005849013,-0.0230655444632326,0.0142619862948214
0.0577358648259206,0.0227209010069384,0.000382103788232772,0.00934003399197899
0.0369890294360936,0.050969648178982,0.0207668923478654,0.0024741550810614
0.00419735944583909,0.0745710209733626,0.0313502000495154,-0.00421501447251287
-0.0248790826865633,0.0684460813619524,0.0306262764169445,-0.00773531646659419
-0.0346706163006564,0.0257008719459188,0.0213814108451662,-0.00654635413374279
-0.0270838640441014,-0.0170222171072095,0.0132112524389036,-0.0021356100844412
-0.0145661450521282,-0.0308102450968596,0.0124315208801044,0.00244454715005857
-0.00581712425157799,-0.0214192836522748,0.0192614274389056,0.00472071882477056
-0.00254548947090889,-0.00881142985388059,0.0257893353213421,0.00418591459104587
0.00428784817622193,-0.0109426402648408,0.0246425657882426,0.00222317142394244
0.018248283159959,-0.0195902989031923,0.0243559531796953,0.0002183725688398
0.0337200087207126,-0.0181329563662604,0.0335860382903671,-0.00147503901349265
0.0450858601887882,-0.0129095469044126,0.044167056976789,-0.00293549281835985
0.0441732965052832,-0.0100531631618763,0.0458417141023541,-0.00335949465130596
0.0332165349952563,-0.00388823937428912,0.0396914170020396,-0.00185458748973498
0.0257575581695116,0.00607649332096638,0.0305914903197234,0.000777864655231561
0.0291386443520455,0.0173796283568142,0.0210324649036995,0.00268568052899316
0.0357998840065619,0.0249010835296542,0.0136944108171612,0.00276055136162013
0.0332025585927244,0.0272232809881098,0.0113725397316625,0.00143784147098922
0.0221674242617092,0.032932591339981,0.0116664147178177,-0.000168798357677048
0.0141163550435476,0.0405499362940827,0.012287763992042,-0.00136373092283094
0.016205207087795,0.0440035756126148,0.0158182997725596,-0.00210945191577304
0.0235080799925278,0.0430239446646207,0.0183128591643947,-0.00250388316361029
0.0278787088190437,0.0305333154171232,0.0158835037822367,-0.00254004701694828
0.0273518934272315,0.00521584188364608,0.0134802436234865,-0.00227494002880259
0.0229704537803483,-0.0190316495757095,0.0129664217159002,-0.0020187112733571
0.0217604192122976,-0.0296013242401627,0.0118700331253624,-0.002101341929293
0.0239641824323324,-0.0283327575858368,0.010817340534722,-0.0024244384987201
0.0163531221972376,-0.0260489253414542,0.0131597732488131,-0.00256536377234476
-0.00080364846675048,-0.0297159685748226,0.0167316428450386,-0.00199006943636642
-0.0121036972931136,-0.0344806538376669,0.0182721922406156,-0.00104968683574828
-0.00879128892072614,-0.033721309527935,0.0180665172261013,-0.000559229939126285
0.00331292735495239,-0.0310677468204567,0.0139193893597776,-0.000321476010481145
0.0148115023497538,-0.0282874716334033,0.00825512870394295,0.000248480947254735
0.0242593398451561,-0.0228297066356769,0.00647064295020624,0.00116225261449378
0.0296578809299273,-0.0146620381648773,0.00552909895115495,0.00178551370819536
0.0301164137147344,-0.00492206874443783,0.00165766526680757,0.00183732296714834
0.0293508158453736,0.00452050676794623,-0.00125903457919782,0.00160609483348461
0.0266801286025334,0.0134142912174822,-0.00140944137450071,0.00112679135328335
0.019483921177444,0.0203629122428127,-0.00177257666884212,0.000501908465085625
0.0105802643309012,0.0200915974887643,-0.00458918039996338,0.000177692189947629
0.0054530665363256,0.0123005732028447,-0.0109560941550061,0.000346330229208376
0.00361612735622544,0.00394776493273119,-0.0151101507636333,0.000528830998077015
-0.000735122419428443,0.00185564611628955,-0.0142726713270249,0.000271992536007311
-0.00683927554024547,0.00423078936927529,-0.0140079382343922,-0.000284364387809417
-0.007579847671994,0.00414061293724376,-0.0151721446332945,-0.000770523422696462
-0.00448306299124269,0.00134714764697513,-0.0153216516164964,-0.000887960487166558
-0.00520237059047461,-5.10086570104076e-05,-0.0133114800038297,-0.000844331886015138
-0.0109994753246184,0.000690126941268605,-0.00954560052493473,-0.00122374907552464
-0.0193827946705981,-7.64269727010656e-05,-0.00559441688462087,-0.00194492613265352
-0.0277815127114356,-0.000756076041293493,-0.00284967957428136,-0.00180539418825632
-0.0327275023804155,0.00505615727362962,0.00365829625478285,-0.000229509285185089
-0.0321100182574966,0.016084665962361,0.0148266683185057,0.00101810023888019
