-0.011141876393508,-0.00392596221041506,0.0118459595747549,-0.00160320341781896
-0.0045598565129724,-0.00705127660704093,0.013944439798011,-0.00103991400500036
-0.00419275637746882,-0.0104723339149578,0.0142214989015507,0.000476094863513573
-0.00599522284223248,-0.0107297455441928,0.0138713767230378,0.00210180856553734
-0.00664206450316083,-0.0111499992375388,0.0125322594000311,0.00303622842068741
-0.00353709125430273,-0.00847232174403754,0.00873194972434635,0.00286064730804857
0.00951761439662406,0.0122634020008623,0.00417150171916088,0.00124725921909035
0.0216684634445921,0.0404867116721473,0.00488067633537361,-0.001052894021173
0.0172996507902859,0.0464152448536854,0.00815019677935835,-0.00145262436151107
0.0017538138432468,0.0300914515534505,0.00492669520472983,0.00144971926469249
-0.0124818704730273,0.0101581696800337,-0.000364913163291479,0.00479245731112907
-0.0241541287494664,-0.00667223412088847,0.00228583464684427,0.00550045372258513
-0.0315183953572106,-0.0176185377641461,0.00972676384250201,0.00424980637917267
-0.0257026503745654,-0.0138176580866012,0.0142143567358156,0.00279497369729521
-0.0107029727546484,0.00493403079094654,0.0136455236515447,0.0014695290489965
-0.00999530383876624,0.0114344181991174,0.0130579579649051,0.000178494902013521
-0.0296274938034731,-0.0178776359574976,0.0214858522296809,-0.000724475075706768
-0.0456739546521217,-0.0565284100101033,0.0366912199550506,-0.000969472455639054
-0.0447047494383039,-0.0651858164312823,0.0450039256800181,-0.000821720259259315
-0.0380847201159182,-0.0463590381984409,0.0394359805523928,-0.000420312390700822
-0.0383873500789101,-0.02609676184245,0.0273671621880861,0.000447032305290159
-0.0353385565410375,-0.0215554463883447,0.021005596928324,0.00161564706811943
-0.0162142638128901,-0.0348551792478108,0.0233208602120866,0.00273011355108804
0.00556532732917029,-0.0550605625055632,0.0287447324527305,0.00363862118537756
0.0267526483274914,-0.0676835143561033,0.0335200567095679,0.0042569557726177
0.0657346862908965,-0.0694236060958904,0.0381872603637722,0.00441302495947615
0.109451393649823,-0.0652268236465712,0.0428902155007778,0.00387816788366904
0.131300707232061,-0.0526598503624749,0.0436055525015697,0.00289163916889506
0.126822714335325,-0.0274659476959342,0.0388448079892551,0.00199596165525801
0.0877330936113386,-0.00423107711648736,0.0307867221501177,0.00124020243730285
0.0121397573317432,0.008591908073361,0.0174735649202881,0.00109538257484973
-0.0689634262133741,0.0253647830890276,0.000263394984874404,0.00169294246354649
-0.116479156111954,0.0453065169744079,-0.0118948883254681,0.00134567270347002
-0.120109542927842,0.0532652950407193,-0.0143227870058367,-0.000652682579040888
-0.101467737931555,0.0526371658275206,-0.0100077820244471,-0.00269706277370124
-0.0875584610096833,0.0578115458005455,-0.00443738551188741,-0.00365385055792574
-0.07749012258866,0.0503444296291435,0.000881766382667327,-0.0042712735421627
-0.0396003593396817,0.00834631815810243,0.00875976389626226,-0.00473325980163454
0.0371708641508672,-0.0322409091307036,0.0151521510621283,-0.00367541939012886
0.0954637589710613,-0.033965864082839,0.0136594542297047,-0.00110115340170146
0.0897975894729238,-0.0148261613641169,0.00738800193998599,0.00100816016128187
0.059424195286026,5.76799374458099e-05,0.000799620488252058,0.00112219757125581
0.0411847818334355,0.00633138168466361,-0.00233754437969228,-0.00061947650086779
0.0279859364431306,-0.00470324469479485,0.00498743653118962,-0.00222817908706959
0.0192219084533964,-0.0230630053091132,0.0173944036530156,-0.000974666245147216
0.0195933441563205,-0.0184316125067296,0.0204985753390752,0.00263523003039664
0.0226412199025114,0.0028463230395116,0.0151013992778749,0.00439019636695917
0.0228051213824183,0.0132966912135485,0.0110791583667441,0.00216477195793839
0.0205101913332666,0.0126585577780359,0.00974221254700129,-0.00179322995929885
0.0206560049971189,0.0216939882219192,0.0029011644531558,-0.00486177356042657
0.026379091782894,0.0389425210609184,-0.00877717128163784,-0.00645410207377639
0.0320541233156211,0.0406779362315905,-0.0110242494241069,-0.00671379964559326
0.0324199527137405,0.0316122804185666,-0.00514036180054747,-0.00533311795605949
0.0284493334167098,0.033190327654734,-0.0072972596114316,-0.00244473638644373
0.0195798283394686,0.0337779272544152,-0.0173331842186598,0.000291680922094818
0.00981901799770775,0.0145219393074976,-0.0234321238047153,0.00115465541687559
0.00681136462150393,-0.00440528737543829,-0.0200746582409227,0.000212663892273526
0.0101352408365728,-0.000851634992581436,-0.00904177612404047,-0.00101916124612896
0.0172672858105637,0.00991779006600371,0.00275649347399723,-0.00145245272216718
0.0223310570973001,0.00465210649874903,0.00959245027647256,-0.0014171682759349
0.016206632682814,-0.00931874803530918,0.00862707405814747,-0.00149112128015681
-0.00256757243615924,-0.0145348703089968,-0.00232882645960598,-0.00170149014122186
-0.0231862480136712,-0.00420987286933658,-0.0237129675154343,-0.00202169461792162
-0.0273277025543738,0.0203721159134873,-0.0407897730816881,-0.0028381779765242
-0.0118444779446869,0.0355733887811371,-0.0331322711913435,-0.00407492437224012
0.00497633624437704,0.0229503896202479,-0.0103925941034124,-0.00437274532736292
0.00800206345813431,-0.00965079981499561,0.00187486393472111,-0.00299913034214283
0.000955729425842869,-0.0348772872630999,-0.000908973051779383,-0.00120879836171046
-0.00171615134060114,-0.026805278256551,-0.00451041202184263,-6.11711513276115e-05
0.0060558278394518,0.00319862941487505,-0.000395728234989575,0.000950296041710376
0.0192810988885367,0.0256648680953643,0.00397867048822571,0.00233788449291062
0.0327174245128809,0.0207449656954714,0.00444246354773774,0.00363972261501606
0.0463927027254771,-0.0116448951824643,0.0100300901593408,0.00413253051584402
0.0621413086478346,-0.0461085182253484,0.0217898953819611,0.00378074927663152
0.0722037345207902,-0.0545771248400761,0.0273174305329346,0.00302634041870645
0.0692133605985791,-0.0385262143097617,0.0211811130797402,0.00205938084401689
0.0584341191215951,-0.0311176568066596,0.0131288347586116,0.00095552013601143
0.0438601394177507,-0.0511741543558523,0.0125869707358188,0.000132557474897082
0.0254514953297034,-0.0816063835771456,0.0174924505223163,0.000194278452135141
0.00499194705500003,-0.106421790622651,0.0254769722596908,0.00108690263313856
-0.0163511198314713,-0.116595419598394,0.0305317271209126,0.00222711157677743
-0.040635226214957,-0.0781086241810747,0.0140003296039329,0.0030602341467014
-0.073972155282255,0.0171895900930876,-0.0278230984408685,0.00264466204272709
-0.116217503688834,0.109713106933476,-0.0675953162073872,0.000209466838929833
-0.133344114532617,0.142799580106716,-0.0773438868019769,-0.00341230490410325
-0.091289717238203,0.109106700407271,-0.0562298669076377,-0.00597571673464212
-0.0238793746937495,0.0439641811384114,-0.024211008701854,-0.00570785421600872
0.0185028598933982,-0.0138093201899518,0.000435361463350117,-0.00288241185889858
0.0341289735872837,-0.0533631588543168,0.0129856773621805,0.000644936320792352
0.0364169013849174,-0.076764298925261,0.0158060460958415,0.00313982008865406
0.0281834466362993,-0.0829436421388065,0.0114669315406979,0.00418459245109988
0.0139225294934026,-0.0620779238205605,0.00396879836187665,0.00429633064295303
0.00197526963330216,-0.0181262085008854,-0.00309412696744578,0.00390434422485193
-0.00246669655128158,0.0123296267300954,-0.00670988435166928,0.00338829990849813
-0.000147169861945691,0.0115084774702502,-0.00556614950696774,0.00306766341438481
0.0075331136295394,0.00384469480067696,-0.00144734043007308,0.00304143891484711
0.0169167036051355,0.00292446578880989,0.00412074114700766,0.00298123542851677
0.0192865981130289,0.00662226861841052,0.00725869031933501,0.00231344520745422
0.0125831781979321,0.0174305525430939,0.00557756111777784,0.00079347801728318
0.00304773273843616,0.026124986830133,0.00246822142734903,-0.00173323027715464
-0.00436269040920227,0.0156058048939463,0.000535664409617768,-0.00453877234556792
-0.0100327029378646,-0.0127350009085738,0.000690071789687205,-0.00580302199859433
-0.0152753649673547,-0.0313683124480731,-0.000469925683950084,-0.0049030228314122
-0.0194791765406212,-0.0236795943843165,-0.00566580736072054,-0.00317549216445063
-0.0251297286208833,-0.0118039410907302,-0.0103264441284272,-0.00199444556313212
-0.0365277510140542,-0.0159298407683961,-0.0138036137524496,-0.0014465167969025
-0.0490090530067879,-0.01456014178513,-0.0176697788177647,-0.000980182031604666
-0.0475387181585631,0.0248299533157001,-0.0205181745719904,-0.000312303614275816
-0.0297448491090272,0.0684776656032897,-0.0206035447680855,0.000444174427580295
-0.0106858906341972,0.0540851410976278,-0.015904204186453,0.000901119209485531
0.00309441564310723,0.00865349608661974,-0.00969290931741847,0.00088044196065478
0.0131271858902284,-0.00418433166132766,-0.00513433197818701,0.000779240522948235
0.0197970319403342,0.0130033669529046,-0.00212732650549346,0.000987786432836778
0.0240785527402676,0.0247132218384702,-0.00181461914716737,0.00132894167053832
0.0274663906124349,0.0222644552775708,-0.00462761711139734,0.00115353406276135
0.0273483694226079,0.0213927159533084,-0.0098110393937643,7.01345954726932e-06
0.0207874709682695,0.0219863265430382,-0.00871444422692332,-0.0011743117879126
0.0133776336765227,0.00690025339292644,0.00247750921762097,-0.000807162512645869
0.00522901422308295,-0.0217180028053145,0.0114667830108352,0.000641547562541521
-0.00817238829024009,-0.0518070361839564,0.0107303852305539,0.00133038868069772
-0.0244358805605231,-0.0691599903377231,0.00340820093346271,0.000768846856333988
-0.0342651242246512,-0.0483054013991865,-0.00602955260947378,-0.000135295592496188
-0.0311815928805536,0.00513102316772458,-0.013255563715183,-0.000558553290946892
-0.0247715802902529,0.0432039901896289,-0.0131918095053592,-0.000616818552294822
-0.0201224270275524,0.0412959085976207,-0.00598842501454771,-0.000667709752462187
-0.00224497017871698,0.0125991416148298,0.00256124426096331,-0.000874524159587145
0.0327879629838692,-0.0251690198021302,0.00954439702663889,-0.00133060138778308
0.0589504451702781,-0.0469735872606372,0.0127225529743294,-0.00164682604237526
0.0527562566823526,-0.0378606507486709,0.00928608087805632,-0.00175390582613166
0.0230497278137485,-0.0275623789459145,0.00574667435131596,-0.0020860684943538
-0.00233560925070536,-0.0402425803920251,0.0105019283980805,-0.00165147266894509
-0.0127114767905114,-0.0482312028537868,0.0148584153429705,0.000788813986750263
-0.0243933191075361,-0.0310988849216069,0.00368554789431734,0.00365952586364626
-0.0424379232687038,-0.00142303064556685,-0.0204704647314119,0.00435178478385866
-0.0507219846975638,0.0176667615873459,-0.0365198808916204,0.00245799916506062
-0.0443690134868578,0.021794643251999,-0.03215057630305,-0.000164752845853024
-0.0342402175298378,0.0309721231273857,-0.0205811716483101,-0.00153270408392826
-0.0241594368312107,0.0540736953820308,-0.0147523932603734,-0.00168564190804624
-0.00488661489272329,0.0817852867073388,-0.0123161609517796,-0.00172202880287423
0.0148629650621575,0.0853637127343682,-0.00956266513757733,-0.00177948668086986
0.0141976950384807,0.0444368607584287,-0.00300576708238946,-0.00162717359731958
0.00244489584258424,-0.0186883466915878,0.00891446027414867,-0.00153382709609997
0.00166081329242635,-0.0664199513249814,0.0206496470921917,-0.00137200007434849
0.0114733166929562,-0.0783532157843877,0.0252132951687199,-0.000298851371494332
0.01722319595026,-0.0608740119967463,0.0194688975647029,0.00175655594926512
0.00744951834937836,-0.0362009640801523,0.00811849537252037,0.00366512408362548
-0.0110794542767311,-0.0217694989491893,-0.000379934543962533,0.00443623542160386
-0.0173710743181091,-0.0193494458896354,-0.00542638771982969,0.00378351314178058
-0.00865659001625521,-0.0133268605859317,-0.0084134657524008,0.00213847757643869
0.00123704309888069,-0.000200460267026359,-0.00804698627229913,0.000507870356316574
0.00532935292642676,0.0113624963177971,-0.00902504177886945,-0.000304914192926416
-0.000660083565983596,0.0292560445520823,-0.0177629881233615,-0.000320772733143496
-0.0178823678825166,0.061702389822357,-0.0312637252992226,-0.000294687363469557
-0.0321704417167175,0.0936925724427479,-0.0350713816124532,-0.000987677268999531
-0.0304548734032167,0.0922824313594647,-0.0213110804804117,-0.00217254777700914
-0.0228628384411852,0.0491923249103776,-0.00197898935260442,-0.0030662670868788
-0.0240058298938732,-0.00284739743787508,0.0103637817777038,-0.00357788506700121
-0.0329650189653321,-0.0338230002656471,0.0142138822409404,-0.00382028620721046
-0.0396388050074331,-0.0358254746063858,0.0126702866009952,-0.0036311539557792
-0.0317998356182314,-0.0224021453734681,0.0112496822678954,-0.00309103322191701
-0.0109538771337732,-0.0192306678331375,0.0116146756092086,-0.00239364394066584
0.00599565416218736,-0.0249467911490838,0.00981889105564514,-0.00133420492474214
0.0129943714426977,-0.0167484569642866,-0.000938727696920661,0.000610758423367487
0.00939465065832389,0.00293960310885233,-0.0167273626476737,0.0028359759282374
-0.000591914759853157,0.0229847567138245,-0.0200753277323745,0.00412718657330438
0.00345165066687808,0.0497224727233367,-0.0104719963625265,0.00464288867901927
0.0233176378572052,0.0735255290135865,-0.00405554021140031,0.00448122173552387
0.0358855509727912,0.0760790385324706,-0.00407964228897847,0.00311838916081635
0.0342038273705333,0.0602624762929523,-0.00292672849155737,0.00102678186989884
0.0256956203827807,0.0335026385654405,-0.000641558406348816,-0.000724248341388559
0.00701175628883632,-0.00531039512289248,-0.00106573351648254,-0.00148715180959463
-0.0256046688828662,-0.0457438657073276,-0.00423959351322263,-0.00117355825970499
-0.0478760427011972,-0.0668225120032763,-0.00813805459479207,-0.000494079037027487
-0.0360348482415001,-0.0671746562958202,-0.00841420270844734,-0.000377021793537042
-0.0141617772431144,-0.0565027804786284,-0.00524160654035622,-0.000806640144556763
-0.0103646784045101,-0.0381489179452479,-0.00307555814642813,-0.00113809874850173
-0.0206030228396851,-0.0117228381558771,-0.00292382112637537,-0.000887959430645539
-0.0289399800487964,0.0153772113960001,-0.00389201925182534,-0.000172778689557239
-0.0241698811840091,0.036617481605651,-0.00478925104581511,0.000345057049383365
-0.0105967576076186,0.0597202350292338,-0.00475422460010057,0.000531147082204268
-0.000392580207288086,0.075901563347623,-0.0021638493102387,0.000618216792888413
0.00570972849683987,0.0661785773902137,-0.00048148881198055,0.000566266309685854
0.0130425801036956,0.0358662103610517,-0.00496499343871431,0.000365655605931267
0.0180833046223013,0.00659412655516704,-0.0108937613203779,-3.31014206665529e-05
0.0110858220883125,0.0038711454785201,-0.0159014839603189,-0.000429654993723843
-0.00722913864769225,0.0237081979535593,-0.0189449687506598,-0.000486612905522018
-0.0107492116109569,0.0256776537478877,-0.0138299927250016,-0.000292981717479985
0.00656658753269328,0.00202225333794944,-0.00402521684612526,0.000129196254389695
0.0154983833841573,-0.0155494702992352,0.00149071804824101,0.000907590060819579
0.0129012405508999,-0.0147600865398217,0.00156094825640386,0.00181345282817176
0.0159922831486338,-0.00577009574093036,-0.00150232257087429,0.00255174340342733
0.0272196827395496,0.00704267206142532,-0.0075049054341863,0.00277362898164895
0.0381696194691031,0.0208908699512246,-0.0157892721128083,0.00212769311335076
0.0388774861784299,0.0278467987332156,-0.0218419564103306,0.000750663265006464
0.027926564546915,0.026595250012278,-0.0207849170596048,-0.000577470139960121
0.00800497016753596,0.0185883186921724,-0.0157369207234141,-0.00111915402392638
-0.0155172261512486,0.00552841905023342,-0.0156550549625071,-0.00111616826129168
-0.0355375522696055,-0.0100656224682461,-0.0223477152130688,-0.00136317805940545
-0.0479172259181513,-0.0186807871512529,-0.0292572493063056,-0.00196839055564587
-0.0461518411830841,-0.000250770096389923,-0.0318899714361361,-0.00234774216305646
-0.0311501831796817,0.0281810352316554,-0.02666629351147,-0.00227468352244488
-0.017020600215958,0.0287629920237962,-0.0148678606548346,-0.00151347105884869
-0.0110664795929025,0.014559477455309,-0.00752328471566433,9.50313095631049e-05
-0.00162433388268101,0.0109113109804261,-0.00486345695241632,0.00193971189952146
0.0188508697947478,0.0105618688721203,0.00131719958791409,0.00319417544801827
0.0391554125810783,0.00430916967056106,0.00800396174946564,0.00338565080828893
0.0489226897580274,-0.00401627959175295,0.00988429781922627,0.00267266098331527
0.0480150345508779,-0.00724225901496573,0.00843679613204984,0.00164612318550065
0.0402657420253862,-0.00325795663632459,0.00597737971290646,0.000950221590406953
0.0313138599911803,0.00204038889437266,0.00187947954926605,0.000794941025041439
0.0191306934341354,0.0112973412587331,-0.00710669556603099,0.000588021629130314
-0.00529649100040834,0.0236376256501103,-0.0189199811605652,-0.000767191097213645
-0.0349215287141846,0.02666804322469,-0.0215623777551213,-0.00266267947536762
-0.0504604904901008,0.0306386247733627,-0.0147378987277203,-0.00252443838232878
-0.0483378507131419,0.0348380056360592,-0.00909654789909611,-0.00019421698580951
-0.0414798500507622,0.0194349844787054,-0.00358405419618718,0.00172404762225178
-0.0342939446109667,-0.00131580751115253,0.00324682743410322,0.00189360412263593
-0.0220583726512775,-0.00731436842260262,0.00533722018911576,0.00090447393536483
-0.00803928630124306,-0.0050008735571488,0.00148511526507841,-0.000316581671882828
0.00250460404703663,-0.00358284921420713,-0.00207422307121719,-0.00104343751991307
0.010753032966726,-0.00235330168883432,-0.00138507471074902,-0.000912352719719758
0.0218806360266827,-0.00039581421495117,-6.8813903933089e-05,-0.000107559317225255
0.0326667020794034,0.00120661595901541,-0.000379601947426925,0.000847039590551681
0.0294293640317879,0.00248138596585539,-0.00212323593054525,0.00127116177616223
0.0138182700105134,0.00147547219771389,-0.00462773397717686,0.000991665208580805
0.00370581024883033,-0.00253426482722251,-0.00582054669040617,0.000482544284542121
0.00664823563419834,-0.00530877266288198,-0.00580228929782136,-9.31175791206744e-06
0.0124589731491662,-0.00585922227293323,-0.00395190142450208,-0.000384679653209292
0.013866077872311,-0.0105229570889566,0.00079486337039498,-0.00045472625855218
0.015897731761855,-0.0211331368073548,0.0069037974575607,-0.000126947642083173
0.0160499166857834,-0.0298944868722241,0.0125146869135154,0.000411111631452739
0.00785324862703755,-0.0293722846516695,0.0155228843369991,0.000768951835725778
-0.00329148878150658,-0.0236099673912886,0.0158496523302047,0.000832108361574957
-0.0103678324199962,-0.0229657622217903,0.0183780304347214,0.000711438972677706
-0.0175543232607859,-0.0277607611035387,0.0241168416101656,0.000628742361584015
-0.0287516144689408,-0.0288548704676932,0.0276569990663624,0.00065242349621308
-0.0358802479774009,-0.0240643933505907,0.0265030107310953,0.000407728640919363
-0.0332560269351146,-0.0185078591756281,0.0204821883947411,-0.000479772638716462
-0.0220700309644492,-0.0141934018925693,0.0155053055895848,-0.00175680658602193
-0.00947219626709767,-0.0121493305360146,0.0209214164674094,-0.00254750869360141
-0.00875846525610876,0.000512707898258642,0.0267509582190222,-0.00238575332362179
-0.0173009852699874,0.0374184395157023,0.021366851356826,-0.00173807708208954
-0.0160400166776964,0.0636865439144611,0.0165776492473113,-0.0012776047242884
-0.000600858742317974,0.0461349525338521,0.0182117716260426,-0.00117198539366064
0.0145360109309414,0.0102199278507222,0.0208703667815132,-0.00118209658651269
0.0239879914790776,-0.019218591779609,0.0288491053148562,-0.000846100736319591
0.0289918090008801,-0.0358951755956574,0.0392992281147523,0.000321617814010538
0.0236849692654024,-0.0434201565815688,0.0420403210473578,0.00194506452262399
0.0161903005591824,-0.0557185734589726,0.042338827688504,0.00328691774281043
0.0205654812860854,-0.0604211731903556,0.045378004385268,0.0046093828650262
0.0295894925416706,-0.0426887969849833,0.0438668096319036,0.00580002136670749
0.03051096677991,-0.0183975001824911,0.0345418066443082,0.00530832544813397
0.0206492235498305,-0.00434047766841092,0.0185531498391434,0.00255773049642332
0.00649145766471606,0.0076019050361682,3.76757339633771e-05,-0.00120693745043441
-0.000376754750238783,0.0271009299482001,-0.00999246250248519,-0.00466724808242268
0.0013757232489201,0.0342276062857114,-0.00731238902114219,-0.00686896528487623
-0.00283006738558345,0.0130727058899431,-0.00230106173364362,-0.00708011538345494
-0.0172717487299798,-0.0119938147966366,-0.00123686057465228,-0.00558079210496312
-0.0195621003385561,-0.0179136987500469,0.0039340741837453,-0.00383130740215506
-0.000939998413840796,-0.0173978837900852,0.0192082617515495,-0.00297958814730013
0.0156765166180179,-0.0277360597089625,0.0406913135287079,-0.00245659926924567
0.0157518160609429,-0.0418413651328081,0.0553063346659188,-0.00105636257172308
0.00567067044960385,-0.0444927920856039,0.0532556916876988,0.00115027014692277
-0.00565739916560455,-0.0400114628275657,0.0441168683662561,0.00324673858314389
-0.0122708505107728,-0.0395375191091738,0.0401600662199006,0.00466157904415493
-0.0151839832673589,-0.0521567230294685,0.0370188466562302,0.00532092227850695
-0.0236461571334135,-0.0540654292320947,0.0243992122500391,0.00505685932785739
-0.0363504466900799,0.00438959914747379,0.00407217701228796,0.00342034521564204
-0.0318653997977726,0.0762050237908879,-0.00875189517451091,0.000795034032329087
-0.00718471015218476,0.0792939072614978,-0.00658085639537148,-0.00154697678060255
0.00767035974141013,0.0342672863396012,-0.00378078706892054,-0.00309205779472639
0.00270646741410694,-0.0087556494793322,-0.00655585113759398,-0.00424075707988439
0.00171089093651922,-0.0358123578855918,-0.00318289707176259,-0.00442245249492606
0.0172239522203713,-0.0517731777804985,0.00627678303316433,-0.00236980271202686
0.031088289166802,-0.0544268838905975,0.00699740354395127,0.00109429003266383
0.0244394649620875,-0.0340384781542652,-0.00724519394627166,0.00351068838568343
0.00510726768464389,0.0154806849091242,-0.0217039785853139,0.00389749544584909
-0.0071777530763193,0.082548339557869,-0.0233344108122628,0.00298029550171989
-0.00888539817743831,0.12075315995498,-0.0165939894831983,0.00143359980198954
-0.0103722387050722,0.104931891196691,-0.00985579874665753,-0.000444162248233849
-0.0179305719901235,0.0559208638700391,-0.00467165842116324,-0.00241992871531876
-0.0252808669093509,-0.00698423635678638,0.00595786364117656,-0.00368706363157842
-0.0197349821125078,-0.0642305572514555,0.0212433896517793,-0.00251241956167012
-0.00319925007532542,-0.0837437034422935,0.0246436671340299,0.000962258990275547
0.00522796753071542,-0.0642951840685536,0.0127399158964959,0.00340220621346735
0.00122395003215832,-0.0379295854739681,-0.00290667165446505,0.00263228868807422
0.00563285260277158,-0.0348529423200836,-0.0125443819338643,-0.000141253472203613
0.0200251746579607,-0.0541437580225053,-0.0107110351965604,-0.00278245232617456
0.0226809644386591,-0.0556197260830462,-0.0051270846929722,-0.00403207673250828
0.0133164430048764,-0.021969878656129,-0.00835656939681004,-0.00386227855375893
0.00641838416647661,0.0198798704019123,-0.0191015033294044,-0.00298790317014294
0.0012558076538938,0.0467081289031377,-0.0285102569336168,-0.00207919435459903
-0.0122162147177591,0.0567139370665508,-0.0335418564382027,-0.00148553228538165
-0.0281562310892823,0.0540086678573978,-0.033196884827228,-0.00123605355137826
-0.0292930849354351,0.0402681083988461,-0.0276539052718081,-0.000894977839695961
-0.0175683565648193,0.0176210879156174,-0.0177194500279493,-5.82190876888423e-05
-0.00660332484217066,0.000275200694466248,-0.0056940529297426,0.000797795667843456
0.000624298491555996,0.0115507648285945,0.00262193746858267,0.00119058796575188
0.00536253716171342,0.0451816283283142,0.00426370718816469,0.00143564954195626
0.00790579777368009,0.0615791755743164,0.00410088768871842,0.00165074117232847
0.0100191914879835,0.0418678319413011,0.00671528735823321,0.00156775253897516
0.0123376789144996,0.00800087311147064,0.00696838353572977,0.00115378863610376
0.0133370607929211,-0.0116705806718984,-0.000663483696983849,0.000281021609893899
0.0122238295525217,-0.013736537834262,-0.00802474015910052,-0.00151868897722281
0.00860827410197989,-0.0207897356999657,-0.000988662606443112,-0.00380172155070995
0.00117557618652899,-0.0420472581260614,0.0113984540871961,-0.00442006989031609
-0.00565958825877926,-0.0521910825615195,0.00876096340462712,-0.0020608334045888
-0.00405609382385578,-0.0314053682595462,-0.00280044604802154,0.00127279169117797
0.00728464442446692,0.00103443140478816,-0.00598912093341854,0.00276326192441112
0.0148578153134171,0.0119826157812933,-0.00135035804938228,0.00199327939878074
0.00469749892473061,-0.00170810469934002,0.00353339776287863,-3.28604708436844e-05
-0.0101908056791447,-0.0196516251564061,0.00964761668837364,-0.00182312521978211
-0.00964854528090441,-0.0271393465180924,0.0151882081329906,-0.0016314247867566
0.00345844800928198,-0.0234226070997501,0.012735906199499,0.000321681093555813
0.0165864225580505,-0.0171918144868225,0.0043552723034011,0.00187591175193822
0.0259376955938246,-0.0138087370239958,-0.000246034893321336,0.00200977637652116
0.0262717428039615,-0.0153070739315242,0.00305443991587883,0.00152600755195536
0.00571982891452528,-0.0244155771388767,0.00490690225306719,0.00129072802296646
-0.0289305655722451,-0.00322905441168138,-0.0127185616828274,0.00125006883666845
-0.0377259472630767,0.0789941619726838,-0.0472572481939536,9.36507160366356e-05
0.000285784344761002,0.142929640632135,-0.0645936319541101,-0.00314074737918257
0.0408014012359697,0.122163712287677,-0.0497788970603461,-0.00699336163622873
0.0209022266808965,0.0573469274620368,-0.0229610573243027,-0.00872021875208135
-0.0512596800928386,-0.0031187787244871,0.000380714702663876,-0.00594148119389602
-0.0993748399741465,-0.0365145778374503,0.013826005346974,0.00125251835754289
-0.0906352754537121,-0.0457040328964942,0.0137890436760758,0.00859117726501539
-0.0582276541001041,-0.0410080467774937,0.00479473383150232,0.0112455769989678
-0.0245436717288552,-0.0153072682255797,-0.00617644384630737,0.00806536324621138
0.0206289956483781,0.0144520476431452,-0.0126833618457123,0.00160892647839547
0.0759429108027015,0.021694369906593,-0.0113848570179146,-0.0041012053691352
0.107717482912803,0.0132488970041711,-0.00707119855000479,-0.00607985649814087
0.0988736402787137,0.00290419390975939,-0.00551842586336697,-0.00382101366679794
0.0672616579807603,-0.0053526260741631,-0.00514309153114092,0.000603817212603484
0.0340032705582222,-0.00953722991338782,-0.00454301005454169,0.00441054784232633
0.0139607861736526,-0.00773358535439658,-0.00723861484265394,0.00628813544502888
0.00744764556548221,-0.00216550580808261,-0.0122371377725238,0.006323008082992
0.00327029874225248,-0.000321405230034212,-0.0146281785234002,0.00483634589365657
-0.00461746424969409,0.00934897013591479,-0.0157585386027975,0.00214567386676076
-0.0169833319508424,0.0461565956935625,-0.0216520916391255,-0.00103620019481447
-0.0314059244183304,0.0806489196117436,-0.0300247110509641,-0.0036389004482758
-0.0397033519867288,0.0661122165773115,-0.0342215161066955,-0.0048581676385009
-0.0372152033096763,0.0183311032149731,-0.0320322980117198,-0.00477301984567137
-0.0302849277470955,-0.0154223742277411,-0.0241869215374911,-0.00401747768080902
-0.0207623354679385,-0.0206738246568819,-0.0151695232030001,-0.00250434568426927
-0.00541312686321086,-0.015427847688501,-0.0136904799160368,-0.000145095133021941
0.00575121217877426,-0.0101775963000097,-0.0228129857745972,0.00188495242440623
0.00621828608105446,-0.000336428360585624,-0.0296418092663979,0.00244639811481619
0.0072899903091084,0.00650880510629411,-0.0258823889430136,0.00195984655295494
0.0117124410220038,0.00743857040638087,-0.0190241964947251,0.00171189029492892
0.00801543402215734,0.0103042811360684,-0.0166343285119282,0.0021332844523492
-0.00622500458153555,0.0138131862754853,-0.0180429014748233,0.00252141145860055
-0.0175487452030159,0.0219572164023017,-0.01975310955557,0.00190915965517242
-0.0139238492582165,0.0394446007085804,-0.0216867404480521,0.000246893731025057
-0.0022644174739609,0.0472392785613604,-0.0215852326345813,-0.00162224334228716
0.00184497726848586,0.031249683178055,-0.0170865846652495,-0.00296483920241493
-0.00149073259059548,0.00838775903831074,-0.0121758357314866,-0.0034093950414587
-0.0047181825521298,-0.00344739785719692,-0.00943220085033726,-0.00273978337680315
-0.00810165051636443,-0.00708786435812666,-0.00529486474625584,-0.000902761988536178
-0.00968455411193835,-0.0093027348413663,-0.000180566407815188,0.00134198990413696
-0.00235276963683038,-0.0102787508902907,0.000996490879710559,0.00264887101512862
0.00938505553247054,-0.0108376572144957,-1.23002025668208e-05,0.00253260802818326
0.0134795814774757,-0.0114719061068431,0.00094165772051928,0.00161947256360979
0.0109026508126326,-0.0124902030575786,0.00296354201842667,0.000654088266174865
0.018362537919806,-0.0133737107393729,0.0056720215904355,-8.38428876187853e-05
0.0386705285143705,-0.0115034572612996,0.00835735089358292,-0.000566189776567479
0.0496658776661116,-0.00877134246763388,0.00701443461226511,-0.000960540887960348
0.0545795993937273,-0.00893738443164024,0.00321656865357371,-0.00145670266253294
0.0588099052692197,-0.0142715582598172,0.00075026674532006,-0.00193689508386319
0.0381617906379609,-0.0171099777543143,-0.0043900205942737,-0.00221465473623355
0.00076667297159054,-0.00219839395600022,-0.0140178361217921,-0.00202006772657094
-0.0226173619992211,0.016208782202368,-0.0192562026103449,-0.00106274013373517
-0.0314791440744752,0.0114402036859667,-0.014797031015313,0.000551857915964191
-0.0401417049627413,-0.0107915511907104,-0.0084372126729174,0.00223489921337178
-0.0527432382781297,-0.0310248351038424,-0.0104307535759463,0.00339581099714745
-0.0608605499425252,-0.0409696068879476,-0.0200933112859145,0.00371636910971095
-0.0507635705324453,-0.0366259942826545,-0.0244833073195743,0.00303616851533053
-0.0205540034114527,-0.0164656932172771,-0.014815160864948,0.00160494151828508
0.0135472675539482,0.00118713141215192,0.00491669868928249,0.000268733979046546
0.0381481958973277,-0.00680082423554504,0.0238639826627173,-0.000418194886151418
0.0495059428341277,-0.0367852559371759,0.0341493853652468,-0.000600412119923198
0.0473794848026461,-0.0620486234541655,0.0367927938829143,-0.00045961935056067
0.040462969626494,-0.0673936801015329,0.0355390533269362,-0.000210540313922493
0.0356350136179689,-0.0621531185790164,0.0319979182043137,0.000140586685267089
0.0303832198860947,-0.0570453262720152,0.0274324273718765,0.000845037737155799
0.0232305521581753,-0.0519072438398761,0.023470816994316,0.00159144047812894
0.011631119495439,-0.0327056356325071,0.0203116021874481,0.00199554991745666
-0.00831481437210122,0.0100962388393956,0.0146291724356662,0.00207437662610376
-0.0291838631416982,0.0459960885607376,0.00594645865296049,0.00170144064437796
-0.0429833164214947,0.0357918698036142,0.000247323331670678,0.00112403959671589
-0.0505283771603687,0.0155118942987124,-0.00562206874465202,0.000899905695335516
-0.0469723305031554,0.0509376886087078,-0.0157623026377667,0.000940041319159942
-0.0262896867594949,0.108908780390406,-0.0201887288901139,0.000616135256403333
0.00584396055853727,0.100904427815495,-0.0119220133749017,-0.000174084618678503
0.0301493260128576,0.0283115371093619,0.00162117757112113,-0.000684190919265243
0.0335608348886202,-0.0326173233042402,0.00735004741923712,-0.000365910430257743
0.0251032305589184,-0.0544369621652621,0.00541792709558524,0.000191535743979219
0.0134378054892574,-0.071745862830935,0.00553678370116398,-0.000146907734584387
0.00289816461157161,-0.0934136626713174,0.00745461732090952,-0.00124545515952459
0.000424866185748661,-0.0803342516506085,0.00695259621948093,-0.00214171741080866
0.00334657700249473,-0.0275479952917009,0.00564928171956128,-0.00246574952252633
0.00475071859511867,0.0217781271015216,0.00469678473145465,-0.00181088019687926
0.00253930688858737,0.0451381538630997,0.0020566890864456,-9.25506047670119e-05
-0.00504356797096262,0.0484171333883663,-0.00146534323625412,0.00167904814770507
-0.0141874921649127,0.0399119184759929,-0.00286836803295143,0.0025465519809984
-0.0173827961979381,0.0245891921352123,-0.00113703582857358,0.0024785698916506
-0.0133167731483624,0.010598606186856,0.00230040088320902,0.00204958397181947
-0.00256692818198472,0.00453338341806632,0.00513201619173046,0.0016933369179911
0.00686391465888815,0.00294251233552521,0.00535375589125708,0.00134197546584104
0.00318982550243413,0.00268217140574489,0.00274426571450154,0.000864443642385273
-0.00800747484974419,0.00534015817018031,-0.00013990958336366,0.000306142536218265
-0.0161919272805548,0.0128488535287401,-0.00230436342649957,-0.000529811382567908
-0.0163163039346357,0.0192171752311901,-0.00125495412746498,-0.00175454005941467
0.00166125554616234,0.0168256745799747,0.00487483806868592,-0.00284988689520759
0.0359891506502388,0.0117242574318271,0.00834312253246015,-0.00331526848934627
0.0615100551694371,0.00673001573857603,0.00692323473095563,-0.00317088664654986
0.0611760440229913,-0.00710695284678698,0.0104529198734764,-0.00277720241819568
0.0485275398028742,-0.0294902013573694,0.0206801149318913,-0.00236163048655718
0.0403714329113287,-0.0443929019460465,0.0306647468674739,-0.00172691650263387
0.0355264133764168,-0.0435031252961169,0.0377074467716097,-0.000719843247335481
0.0246242405977252,-0.0374692050614366,0.0410191692240619,0.000395210641202676
-0.00186777334464681,-0.0288965399729177,0.0355743903249986,0.00107496171089105
-0.047502852756667,0.00277364387136819,0.0123387581467546,0.000281698514646914
-0.0977600428796118,0.0468797344446246,-0.0197653489069602,-0.00270955112383115
-0.123324518960399,0.070417996341287,-0.0386895205091431,-0.00569811286994468
-0.103674813919479,0.0823652692314603,-0.0469449727227525,-0.0057307508066588
-0.0365220578188279,0.0916472018360109,-0.0504918315030681,-0.0041142748673031
0.0514251528101444,0.0889067273588181,-0.0404804789360554,-0.00353054909609267
0.103200507839256,0.0669842084185254,-0.0188400915106322,-0.00376565220079969
0.0874710565088186,0.0277298807203548,0.00634095713053445,-0.00346270230277654
0.046241500969469,-0.0136200437464238,0.0310241454450593,-0.0021537490987961
0.041930053914146,-0.044022940261374,0.0468884563527181,-5.81575253590589e-05
0.0601439368484226,-0.0605392255598137,0.0476125184260054,0.00226760634628454
0.0426589885672342,-0.0671053115261259,0.0367329884991406,0.00389759407848538
-0.00685233998104602,-0.0605440392996215,0.0212436937422562,0.00421488415215132
-0.0385394726604319,-0.0342569873138813,0.0087480921319999,0.00353061599948917
-0.0351173293913301,-0.0042230341314235,0.00650036070696744,0.00265662951267243
-0.0210578098173671,-0.000577221295592285,0.0141372443338834,0.00204690460604501
-0.0123384635330257,-0.0181432400139452,0.0234668877859678,0.00149051335362976
-0.00223627041109564,-0.0290960586491938,0.0293375975650307,0.000681484603926248
0.00996422119145561,-0.029379941255344,0.0293299849747138,-0.000211103399815734
0.0107370340106053,-0.0296148337855694,0.0186324695450921,-0.000701371173468723
-0.00374495260713405,-0.0276210346806913,-0.00141238342937873,-0.000708750258304067
-0.0161773702923997,-0.0168962180220033,-0.0165065897612637,-0.000886699902620756
-0.0183275236829266,-0.00505576308818809,-0.0186357586395743,-0.00164705912217886
-0.0200762400616462,0.00692054774595343,-0.0176120262447084,-0.00239364800407828
-0.0239560524164605,0.0220610637358248,-0.0168001309745383,-0.00257430761880662
-0.0249568305665837,0.0290790699712429,-0.00953852812016764,-0.0022223327509623
-0.0234155715462595,0.0243622795418793,0.00260432789807273,-0.0013785453478483
-0.0224838864651117,0.0214275431983251,0.0109878788987724,-0.000485507700407997
-0.0236900618257092,0.0253379990728319,0.0120542338860795,8.9248185936306e-06
-0.0215033241028304,0.0260129195627777,0.00775459791777996,0.000295916350181916
-0.0112541584814458,0.0209568865518056,0.00109611555059447,0.000551516946928438
-0.00103459884569589,0.0100629117092352,-0.000995414508423699,0.000910283539019262
0.00282218213565635,-0.00802138092272454,0.00316429053514052,0.00172995472825413
0.00384084007338205,-0.0226551975080578,0.00626423937975991,0.00306781766833491
0.00212410143448381,-0.027664412526333,0.00545485476493982,0.00435947934351402
-0.00366663247387372,-0.03030697473722,0.00380237818472813,0.00501699221147998
-0.00859707423154227,-0.0349876226296775,0.00290374177568153,0.00474321583676774
-0.0107920891589434,-0.034256665095376,0.000284800290034502,0.00364351633555443
-0.0110721998521851,-0.0269497868283643,-0.00399482428906471,0.00202092608085265
-0.00985169288946078,-0.030482447112601,-0.00293434462219713,0.000230348437348589
-0.0115190403932325,-0.0455458554654552,0.00310106451663045,-0.000653660027641944
-0.0187343167216922,-0.0410187067106212,0.00136636306740443,-4.26903199541407e-06
-0.0264016303270592,-0.000700895537556728,-0.0131198984441062,0.000923061901996924
-0.023174985770023,0.050780885206862,-0.0292723390693778,0.000633861829976599
-0.00768420148368491,0.0779233489842243,-0.033769984585465,-0.000828056969194371
0.0064524679378523,0.0613445559752427,-0.0243269678377571,-0.00220069958120857
0.0113333973935084,0.0141586684994452,-0.0106081881456662,-0.00224503153481896
0.00851925512931776,-0.0248905488852911,-0.0020425262341573,-0.00104360589689455
0.00228098697206174,-0.0376939026958957,0.00149951275561712,0.000316601448056556
-0.00200723700964798,-0.0384993838561819,0.00408502559619248,0.00120401123490246
-0.00226583796817105,-0.0382761235579866,0.00521997221927427,0.00159911641104877
0.00119194472192953,-0.0328457671463086,0.00169703464897935,0.00168955888368059
0.00670586120730638,-0.0225177345977917,-0.0038941151399881,0.00130280547876579
0.0118551409496297,-0.0152535412288532,-0.00424432156066178,0.000262119403256485
0.0164372977467138,-0.0142411240855827,-0.000321614752056558,-0.00103135902401623
0.0195030758109197,-0.0140738495780764,-0.000139465474346422,-0.00232140723370222
0.0200566677860087,-0.0112315557017133,-0.00351097183938343,-0.00324647592691921
0.0198005120415254,-0.00391378689139268,-0.00887297984576738,-0.00259454561647861
0.0178264504356866,0.0129153198276598,-0.0188889802441377,-0.000367711829880966
0.0111445760505327,0.027681207869058,-0.0241465299107672,0.000816054066450164
0.00290451008010139,0.0275362524036845,-0.0177738329268377,-0.000229166997773759
-0.00209464877890286,0.0299323886778607,-0.00851491962562551,-0.00157854275457267
-0.0068287124084655,0.0399213593271373,-0.000784975291269578,-0.00179576976305822
-0.0120486796617934,0.0278714150658692,0.00547887181744107,-0.000840851664474867
-0.0131897234941579,0.000378333738399149,0.00438497315342587,0.000936491149317463
-0.0119259489261741,-0.00216650297933143,-0.00450145761302807,0.00221443918883973
-0.00817968448990218,0.0186462049849351,-0.0124651583049286,0.00155049892681157
0.00216994529169967,0.0219906129023315,-0.0136623018344177,-0.000765069584630467
0.0118274790723443,-0.00702438807183815,-0.00643247766695708,-0.00270876257779751
0.0124015144413442,-0.02796140922509,-0.000141074920997516,-0.00236139064933091
0.0106606814466906,-0.0104217523148253,-0.00712083084002076,-0.000320436346739455
0.0110360211980863,0.031717997817455,-0.0268565590627585,0.0008223470589192
0.0075757101640411,0.0608742944156427,-0.0463351119633689,-0.000470168580558844
0.00544530822120301,0.0526701200711318,-0.0455254312788025,-0.0026578004429168
0.0131471174099784,0.0352061958113997,-0.0237920231759524,-0.00226759038651117
0.0209447803544021,0.0388188930630589,-0.00483942022311244,0.0012229790374891
0.0179544816548658,0.0472050608859533,0.00123076732085552,0.00426415943837286
0.00767759526023766,0.027278396418515,0.00513749304803821,0.00438890335428861
-0.0063218871724742,-0.0231419812861111,0.0087278255179595,0.00220016438664442
-0.0234996473825298,-0.0697753491241819,0.00701237762678255,-0.000812244914311348
-0.0351993568588114,-0.0756340003938051,0.00313156008473121,-0.00337266352582926
-0.0326183341677997,-0.0426167799001601,0.00140180118513479,-0.00467744960805274
-0.0188171101433746,-0.006968037408026,0.00194394666349178,-0.00423730462188046
-0.00369754206618505,0.0121367203390957,0.00192518181655097,-0.00218239718975551
0.00562859285474883,0.0196103076929939,-0.000191993914528968,0.000258416636288347
0.00880219634085768,0.0191824478554046,-0.0021702529807339,0.0020734206579679
0.00906837499605682,0.014577454163536,-0.00287954410315041,0.00311047915153748
0.00788704638195846,0.0145202367563225,-0.00462933474586614,0.00349506867048108
0.00596907930756757,0.0203142910396407,-0.0086709128653229,0.00338412472681366
0.0041282897785274,0.023581960510156,-0.0139578912297937,0.00286954596993263
0.00198224570683159,0.0165075975894534,-0.0179593546614918,0.00218458074423799
-0.000420299263670263,0.0013617813335475,-0.0183826928336322,0.00161183246617834
-0.00253480797265441,-0.0112815619007333,-0.0145340645780148,0.00119402714801145
-0.00692918318025859,-0.018065982006861,-0.00851123565397749,0.000948910475156501
-0.0152672902645487,-0.0237048152382016,-0.00472987423980394,0.000757814700614475
-0.0194143295977416,-0.0286052435298134,-0.00214155551580625,0.000358704586805485
-0.0131798301148793,-0.0251231533679739,0.00183165720397489,-3.59587467158517e-05
-0.00485858166215209,-0.0113603221654493,0.0055112089958382,-0.000140773845514788
-0.0013485989246828,0.00231767012361827,0.00878012631042708,4.25117912891743e-05
-0.000825426816657662,0.00674518457091231,0.0140221452900015,0.000410539172530478
-0.00158182981351466,0.00464814899493927,0.0195026219981121,0.00050805270859878
-0.00274069094701828,0.00186324212458413,0.0191933517328625,0.000219392613837686
-0.00187430876720545,-0.00212320769550497,0.0148806047217353,-7.78332049476299e-05
0.00297316003583642,-0.00730176996291126,0.0126309075568576,-0.000277754844333939
0.0025689952875115,-0.0174421569814154,0.0131425083201587,-0.000373861828054981
-0.00781722528624944,-0.0282602913732041,0.0126849759009938,-0.000243275654041591
-0.0173099416559513,-0.0206638496361088,0.00692796921508012,0.000148575487111873
-0.0205606334017954,-0.00661716909614665,0.00234630244999054,0.000401257543378155
-0.0197008044878939,-0.0159274839426795,0.00577370163291254,0.000521994754804746
-0.0205696344179132,-0.0373541300260442,0.0115765768775085,0.000920513599655253
-0.0296245803825409,-0.0423895652484395,0.0144807455284124,0.00122620881062948
-0.0386088185799471,-0.0190773379583269,0.0123734838874075,0.00130870086305149
-0.0317701429911904,0.0183192611199614,0.00606642217502523,0.00118369798072623
-0.00989137558478267,0.0315812239400057,0.00232535125717089,0.000343420914740005
0.0193624831058389,0.00897463340484586,0.00716139389283302,-0.00100059985475419
0.0509731022010636,-0.0207487187524839,0.0175598864493963,-0.00200985015226724
0.0722995789951791,-0.0342702981342618,0.0265963313110807,-0.00209714851389163
0.0802230557829787,-0.0335784516053017,0.0324334497049521,-0.00138205061548898
0.0809971384708974,-0.0299689183797937,0.0339977444241398,-0.000521050939842038
0.0688743176755323,-0.0305351832703388,0.032530367797397,0.00020742229668043
0.0387857627064537,-0.0298678362793149,0.029409025976914,0.000915402325804235
-0.00255413242907529,-0.013510443263359,0.0189346289556476,0.00140770000235403
-0.038206083697367,0.0183459678925,-0.000365023319285437,0.00105585905003888
-0.0482916278373302,0.0373279817468797,-0.012105892192958,-0.000366354634368105
-0.0326996962184152,0.025329999744539,-0.00185618030107573,-0.00198361983225251
-0.0126239007930136,0.00687374581367622,0.0159694477894744,-0.00270996417782463
-0.00501260293459093,-0.00644396271820977,0.0213202395538587,-0.00223740411666523
-0.0139351788090293,-0.0276721124083203,0.0126905800639835,-0.000866880371980549
-0.031402225489966,-0.0343334949829319,-1.27409886123662e-05,0.000595605207345638
-0.0376389121268996,-0.00375535149796247,-0.00474455976621723,0.00141158100337542
-0.0264188946244,0.0335972158903086,0.00110361861213889,0.00147461036524633
-0.0136053313488539,0.0358514901201563,0.00902603919093614,0.00112132583197083
-0.00901996885475818,0.00116559354839579,0.0126253633732341,0.000875030705747716
-0.00743749419380645,-0.0308979938763528,0.0146495319640254,0.000853012829684715
-0.00535493765121168,-0.0296027867552542,0.0169711665363224,0.000864051828874073
-0.00808819054463568,0.00468283758867473,0.0133949197256999,0.000801875651673828
-0.0142252251227539,0.0527072013813949,0.000238363466596708,0.00021625149380204
-0.0154828691179357,0.0746221602846298,-0.012999572836026,-0.00136094511387277
-0.00920916259180272,0.0462910133604908,-0.0130079442600644,-0.00360489182314921
0.0100424205048077,-0.00879978701530944,0.00306474305237171,-0.00549597338257074
0.0360338750425131,-0.0437715977791583,0.0214148591376888,-0.00606813635721549
0.0485770185521677,-0.0431308673824644,0.0253390759464552,-0.00489812118075743
0.0548439080483615,-0.0332479783242875,0.0172767230243766,-0.0021498020730558
0.0625087417632445,-0.028661976856602,0.010706579735508,0.00104063801366764
0.0442470706237764,-0.0197121099121979,0.00793676016354364,0.00324756029942596
-0.00790143235692856,0.000625996999403855,-0.00328995601522156,0.00412101736619553
-0.0545599312856291,0.0248182650737926,-0.0188868501623365,0.0037913107100636
-0.0543181277502872,0.0316393302563895,-0.017784667473899,0.00247791882895205
-0.0287468878625347,0.0255927855601356,-0.00539491109577277,0.00111515137480193
-0.0314524878650526,0.0330613659707935,-0.00272802925488484,0.000544466526091621
-0.0527826406728573,0.0447999469898943,-0.00933190854312446,0.000761288914589547
-0.0602079791366765,0.0355348521932846,-0.0111523547826374,0.00166558676175246
-0.0591652328620696,0.0102283758345832,-0.00462809383047313,0.00304779240066875
-0.0480367754258612,-0.0124082216405742,0.00151438234968014,0.00384903532659088
-0.00573396123433829,-0.0198136783185739,-0.00220397651955302,0.00312890930492614
0.0470722851647463,-0.00917413858612514,-0.0147807810806138,0.00107742359223839
0.0593417955372221,0.00338302359384145,-0.0226211002139142,-0.00139982205845427
0.0384171397166485,0.00997555741892679,-0.0199554477021446,-0.00331035722701918
0.0147855170924242,0.0242869808789919,-0.0146905766666817,-0.00404591513952802
-0.0196004837214339,0.0518252536638921,-0.0145360523982547,-0.00372367280007461
-0.0589067627228364,0.0766371219857151,-0.021691011435842,-0.0030669256964788
-0.0705160532429885,0.0711891618446498,-0.0239429155738919,-0.00249308684414243
-0.0470715655036278,0.0317986260149964,-0.0117605475282161,-0.00175086701655777
-0.0169915660802092,0.00100355334884054,-0.00134278675598418,-0.000660463705745893
-0.00149430231928969,0.010681340012011,-0.00411323421077233,0.000418508105368923
0.0091134444953685,0.0305502837705785,-0.00903292835373887,0.000703653942898715
0.0227402799799326,0.0224679094596608,-0.00756530183184009,-0.000365227889657586
0.0270881493979544,-0.00183449955267473,-0.00276609641634738,-0.00210311637992905
0.0194472737994258,-0.0130534689311596,-0.000684102347941032,-0.00272425930411499
0.0124816215755157,-0.00844272301434797,-0.00322284126498246,-0.00134941145351521
0.0103848690476745,-0.00059584853789018,-0.0058718835190136,0.000904425251604786
0.0107996662494081,0.00515502288180363,-0.00590287915327128,0.00263832809882466
0.0141485899817421,0.00922149747305709,-0.00586850629248842,0.00350170113319411
0.0206350777002889,0.0127240500257989,-0.00592772381751028,0.003782777030631
0.0316637982911974,0.0118547007251163,-0.00203034861027806,0.00391685202075549
0.0461547441106431,0.00242369283397135,0.00664658399126402,0.00400763847617453
0.0579443082580211,-0.00618798248098179,0.0121238157230974,0.00353624525361823
0.0632233019619589,0.00573348187442054,0.00541328252266817,0.00137683591536397
0.0617292826791032,0.016990877972188,-0.00176944982717565,-0.00306179008289248
0.0540260909117493,-0.012297369112801,0.00910955835407651,-0.0069631930795593
0.0383623939671044,-0.0434928560356083,0.0242088751496461,-0.00591926391120541
0.00942290284437702,-0.0363115365851361,0.0235937071670623,-0.000689504775213986
-0.0254334734872041,-0.0228496903374566,0.0124986054072308,0.00355047437861372
-0.0507411388340237,-0.0238438031062469,-0.000463125513750752,0.0039887755682391
-0.0652713729110396,-0.0184888253123173,-0.0131047282956496,0.00161441867469978
-0.0732620303173166,0.0121928974559636,-0.0292121938569142,-0.00160295617422088
-0.0738066208598353,0.0421201763069757,-0.0490936859443829,-0.0043476344569893
-0.061616629900872,0.0340925917064173,-0.0525149463413622,-0.00605557838458563
-0.0324022776385193,0.00725677197545308,-0.0304495800026771,-0.00637598949840853
-0.00234423961704436,-0.0116699066824296,-0.00318986648031239,-0.0049347072527045
0.0103433974051027,-0.0299425049672791,0.0133030132958177,-0.00189611395570936
0.0162963486962996,-0.041592099877821,0.0165618059119637,0.0019343203061596
0.0228686996786624,-0.0236120935210071,0.00937923489081668,0.00507324477334756
0.0271070279800226,0.0225399093705305,-0.00147875317281414,0.00591992735210024
0.0344285934138717,0.0592755671723443,-0.00642184221804333,0.00452284466208357
0.0445021811873338,0.0496963208294257,-0.000186800364135906,0.00238873683793151
0.0484648354310442,0.0106290045113285,0.00928614974187129,0.000785357537523054
0.0382599865503833,-0.0141898824453021,0.011916740243693,-0.000141392858852849
0.0162298159440744,-0.0188901801768745,0.00955895255538104,-0.000934128968960408
-0.000385085240273531,-0.0244493949640612,0.0090555299470662,-0.00140312373801362
0.00447766114379809,-0.041076767605871,0.0119897098357376,-0.00111672252910837
0.027263680329827,-0.0597153367361757,0.0164809530787907,-0.000566115412139415
0.0432865247224013,-0.0702755419146825,0.0191310691310969,-0.000209221437021286
0.0348799583501046,-0.0714523611093565,0.0167607694746552,0.000210526433388946
0.0141900800103465,-0.0616768725615561,0.0103980478842693,0.000752772036965727
-0.00596053479672834,-0.0442754709611478,0.000295358062591511,0.000867263005867495
-0.0234102698140478,-0.0334085066704074,-0.0121103349113992,0.000368966474596857
-0.0309396865302178,-0.0361063540922853,-0.0177745600577749,-0.000300725382162904
-0.028634999424173,-0.0397367464908239,-0.0113069516599522,-0.000657394966155942
-0.0234118113975767,-0.0363400760877819,0.00243848985275936,-0.00056528921528631
-0.0117686985011099,-0.0302126760484738,0.0126276391421436,-0.000261301370384401
0.00331425711598693,-0.0107759587831707,0.00593661936353551,1.97936175002108e-05
0.00751502783226742,0.0282922207156573,-0.014527162510658,-0.000103679388283462
0.00336678336360336,0.046795789916283,-0.0267483204303043,-0.000779158512833249
0.0048706959401116,0.00856336687610316,-0.021490904892568,-0.00119585029414738
0.0110540622618715,-0.0512727327290928,-0.0110871496353912,-0.000461951124169275
0.00848254994581294,-0.0799955678433536,-0.00805810590300354,0.000939011992696184
-0.00359639500005191,-0.0757872047308391,-0.0116937118947482,0.00174744898003084
-0.0114288879164333,-0.0526907555903113,-0.0125527952492526,0.00153650558404695
-0.0126503390219191,-0.00459650358690181,-0.0102374424082044,0.000674905905436564
-0.0218001751329022,0.0685084467733176,-0.0198652590415314,-0.000470937165829458
-0.0437186663165298,0.147477645612401,-0.0466065715227242,-0.00213068215168574
-0.054536294923205,0.19874779035574,-0.0707316259507652,-0.00450943813512181
-0.0320149557087841,0.178539334261258,-0.0675105849481378,-0.00662614144860719
0.0128275785672771,0.0826020565685375,-0.0346837292278834,-0.00684767998059602
0.0559400468438083,-0.0307460340695434,0.00303153986588191,-0.00442701900908155
0.0757556662542161,-0.0982827263491025,0.0229990469662433,-0.000524127467762689
0.064652391286931,-0.0974032896677013,0.025804500403465,0.00269146868072945
0.041453767632853,-0.064478028003114,0.0223493473795033,0.00405593280329562
0.023357262493917,-0.0452688811137197,0.0185660393976524,0.00388539377583656
0.0111943953514056,-0.0396105145726113,0.0143834385650116,0.00308250764269792
0.00207058240425328,-0.0320812268035693,0.00841444045332855,0.00234939956685788
-0.00613235128154843,-0.018839511268779,0.00151024257506549,0.00191703796876518
-0.0124807378201971,-0.00216346809051419,-0.00548628885235272,0.00190294614359838
-0.0148927853835612,0.013026948463589,-0.0116672687108103,0.00213560946849044
-0.0136879444228827,0.0259091231050366,-0.0170689740967322,0.00207297153183691
-0.013563915653774,0.0403113134259444,-0.0223686664721494,0.0013897673451449
-0.0207260809703686,0.0488477373708618,-0.0246741274102446,4.5421838078024e-05
-0.0318153754378257,0.0427673756905638,-0.0210925640348709,-0.00111734101387139
-0.0357920402775632,0.031569373962674,-0.0139394915706692,-0.000703073660100136
-0.0299531039400568,0.0289037949883215,-0.009679002474237,0.00090151790585073
-0.0209556133356093,0.0322946823076438,-0.0102771223891056,0.00169310397114391
-0.0145617744897117,0.0338612574251253,-0.0107806627153024,0.000922294340336637
-0.0120708912276745,0.0342676326272045,-0.00921748430098009,-0.000516787520809044
-0.0114786342453743,0.0333787230116577,-0.007309839950149,-0.00154616060769901
-0.0123573228883434,0.0299570486157349,-0.00573610725157713,-0.00177829093977608
-0.0138107822377223,0.0272187750220823,-0.00515878086030709,-0.00144489003330392
-0.00971727005390143,0.0256862479898792,-0.0050474114770635,-0.000655905127290856
-0.00162806430314385,0.0224613152223363,-0.00446724579164939,0.000262623725526193
0.00110880413035917,0.0180558520560189,-0.00357857927947751,0.000943462149270793
-0.0028196501577295,0.0148767082878628,-0.0010565027328854,0.0016972232437037
-0.00655423140529186,0.0128793893715067,0.00230565414819537,0.00280296087676139
-0.0063887205449726,0.00997019873124482,0.00362421615984505,0.00389963456934664
-0.00577369838017236,0.00582473051882394,0.0045112384315695,0.00419547035196789
-0.00471130335287875,0.00265857133667974,0.00702586541936383,0.00305505582323427
-0.00413461082336512,0.00166261196234817,0.0100703577153854,0.000856094721627779
-0.00859526918921636,-0.00225955857856786,0.0142551917983589,-0.000860878084600275
-0.0103354207197543,-0.0111215721116104,0.0197679688608591,-0.000478859849244635
-0.00216020903859741,-0.015731623544733,0.0222612646205602,0.00182350336724254
0.00920297671049318,-0.0144032992423412,0.0206492863793219,0.0040347451763133
0.0196684299095293,-0.00942509366127846,0.0193328139298969,0.00474352755432234
0.0297665243159317,0.00314321850094268,0.0177913369533688,0.00383835181595606
0.0357850645401506,0.00623965122112594,0.0173111377245759,0.0017613207937233
0.0351411096801956,-0.0144500408251268,0.0225592182346742,9.39456824161559e-05
0.0296218649075077,-0.0308792453083974,0.0259096245505934,0.000388188759050536
0.0217884025638112,-0.025161083742691,0.0215479745636433,0.00159346868693454
0.0157105388490596,-0.0141384945645277,0.015557003086108,0.00164275717320481
0.0117807138491967,-0.014969323764413,0.0129248613768981,0.000527009399975199
0.00356166394714031,-0.024133785387873,0.0134696043899326,-0.000161638658106482
-0.0203147414307888,-0.0238099425657062,0.0113875257618564,0.00019978903618363
-0.0551802120298754,-0.0123701651379504,0.00356180250589189,0.000296432605586133
-0.0680665953496402,-0.00389619931431405,-0.00344390331169985,-0.000930712381849448
-0.0476995932253017,-0.00022773122390422,-0.00405509475915738,-0.00290278358765693
-0.020495164906549,0.00207410523193163,-0.000135276256753121,-0.00448970454849389
-0.00423395197727133,-0.000797790283386211,0.00607412223431443,-0.00492286273138651
0.00468724709281739,-0.00580773089037091,0.0131685784181853,-0.00408808754197341
0.014624026861237,-0.00870270583603351,0.0165874891791854,-0.00268379305102839
0.0261857933813663,-0.0115216706319711,0.0160796968482934,-0.00152945226191744
0.0314899736854104,-0.0145546856727793,0.0153190784620438,-0.000676013532275822
0.0271667680599878,-0.0146393430034794,0.0111145857289346,4.49436014477366e-05
0.0176363019043283,-0.0116867682212568,0.00112095465217356,0.000425576017901013
0.00933981741749031,-0.00899962813887592,-0.00588324408781295,0.000261676239558156
0.00656887891134913,-0.0067590663113126,-0.00314870360072411,-0.000225265218138462
0.007164187958015,-0.00534435446404466,0.00348860830324663,-0.000678913532289752
0.00678767061569648,-0.00959866629237537,0.00924285873264984,-0.00103276502616033
0.00419251913862066,-0.0149039056430389,0.0128337133576501,-0.00158938351148516
0.000247342118020627,-0.0137601806131725,0.0106549469280026,-0.00280863446695332
-0.0104756353582932,-0.0224736156416274,0.00949568122332202,-0.00435862848990677
-0.0316184198686877,-0.0506061322700056,0.016606683492824,-0.00445458903850193
-0.0456868613716895,-0.0683396559593211,0.0217594255471768,-0.00239096404120797
-0.0385461874816949,-0.0588433819340895,0.0205813611596331,-0.000546201528519777
-0.02314455288402,-0.0467634994636119,0.0214133056625464,-0.000193887046027317
-0.00826258653532826,-0.0503938930348748,0.0239463194202768,0.000167958273211526
0.0141950427367891,-0.0606974122244579,0.021518685582189,0.000855132913893495
0.0415904619928656,-0.0597516117897855,0.0143270314453333,0.000627595533903388
0.0634152575594787,-0.0350426818445117,0.00870802651930815,-0.00105896154467913
0.0750696953104241,0.00210132110043726,0.00713382339902412,-0.00341734166741731
0.0817773692232105,0.0234525189759239,0.00500317318536021,-0.00497769195877544
0.0812624183126481,0.018916273314895,-0.000653843762088003,-0.00498108300769607
0.0480498474336245,0.0191655564959103,-0.0149606583640789,-0.00368056858347394
-0.0161788910414837,0.0555853679076799,-0.0439205157118547,-0.00211418620500567
-0.0717188069790072,0.0938212954251357,-0.0671258494648408,-0.00181581025427493
-0.0945019499567195,0.096581685950945,-0.0594604867657693,-0.00260813639731751
-0.0813560136854226,0.0934237340286038,-0.0341743290117278,-0.00250418805487639
-0.0496724700329944,0.105630288754793,-0.0158673553708946,-0.0010801043265421
-0.0364656328033787,0.0878273629319043,-0.00388668072051401,0.000307964695860933
-0.0385595272147935,0.0120548730289796,0.010719596174153,0.00123450646396697
-0.00747715883650304,-0.0710652593697919,0.025407579145892,0.00246230633397636
0.0559385334378714,-0.112216887478784,0.0349026039078753,0.00426544918541922
0.092713345151156,-0.111168568794832,0.0371874688802449,0.00594779364386148
0.0796064186232939,-0.081723514423565,0.0326744440142843,0.00666852826366247
0.0439064483420583,-0.0399582979103346,0.0241389215820251,0.00613673922294666
0.00967416137490933,-0.00888789891533424,0.0146235992442548,0.00465002480154185
-0.0133575576213638,0.00232635157934558,0.0030444121846726,0.00295961886228759
-0.0128038581302916,0.0019024547851168,-0.0152631799231845,0.00159442222211891
0.0126802748075572,-0.00272633607619561,-0.0319720555387571,-8.26050191412219e-05
0.0386790420351239,0.00647203370117091,-0.0306179011086906,-0.00259529401646077
0.0401710987382182,0.0467530493988526,-0.0171777778710871,-0.00489361820503537
0.0252629153755988,0.0937083312658812,-0.0081531867776259,-0.00562209006658235
0.012727400765369,0.107111475897454,-0.00679431951522295,-0.00465420326285191
-0.00191240555164757,0.0942560431288648,-0.0125851566775057,-0.00271242354033416
-0.020719820030758,0.0830619098139166,-0.0209045993495996,-0.000802637235680978
-0.0310306242962872,0.0692924896492008,-0.0227266956604402,0.000382520743351334
-0.0308312106397962,0.0530415727872984,-0.0189803518711895,0.00132607856928493
-0.0289201900031989,0.0402283068709296,-0.0198036735777359,0.00257810861515393
-0.0273454807922593,0.0162659468967716,-0.0268084038046493,0.00360317788620054
-0.0224126691872185,-0.00558963247190504,-0.0276931110489988,0.00377283737771689
-0.0108711506918976,0.00056368026785392,-0.0164244963037003,0.003478446850398
0.0114641337647235,0.0156641863293992,-0.000412426067747114,0.00316512052181803
0.0377695876400884,0.0159884852776514,0.0101421591387145,0.00280423343202967
0.0422529258175003,0.00359232254801374,0.0112811954033958,0.00259902301250999
0.0152641056025213,-0.0182676166442485,0.0104392678979932,0.00270641490185331
-0.0187946088651414,-0.0394721359581541,0.0109331710368595,0.00297292147128856
-0.0372777165230584,-0.0408959754892355,0.00361086897497392,0.00310961285717877
-0.0447451874305388,-0.0119261686057657,-0.0124403265723024,0.00267965414185154
-0.0494308292230054,0.020743486110732,-0.0226747813119522,0.00126531184759688
-0.0430998744928146,0.0154901528956586,-0.0184502918802903,-0.000792986567633111
-0.0288158924467209,-0.018562291021543,-0.0076108326680029,-0.00230384945535409
-0.0222204192857491,-0.0340022100531189,-0.0025145580368144,-0.00256216034235352
-0.0228180784680214,0.00733296162323931,-0.00816616312275623,-0.00204448754345383
-0.0302846424078646,0.0752382119910483,-0.0165669728170182,-0.0015136240372252
-0.0453367148178345,0.0909513422004479,-0.0153053515548604,-0.00134260130444993
-0.043799341754979,0.045990306774175,-0.00465250681543625,-0.00145125677803576
-0.013802984546295,-0.00843359723652864,0.00794651965647954,-0.00157093287802374
0.0134046037461069,-0.0468048383874996,0.0191944086931239,-0.0015443251703508
0.00946527984775502,-0.0638919573700397,0.0235280714845494,-0.0010290558170408
-0.0172790507099877,-0.0640411538061773,0.0202876287320097,0.000354002919614418
-0.0383505266393622,-0.0613847848669418,0.0162507944242636,0.00214839039020345
-0.0373120498972323,-0.0570306921296983,0.0132890605010053,0.0031411488512285
-0.019296781984457,-0.0476667878326618,0.0104719429183502,0.002622746651537
0.0152498128455867,-0.0417906932260376,0.00921742408765453,0.00105114381817503
0.0506830980469856,-0.0467079110049818,0.0137445442119114,-0.000504089994536902
0.0555887470767865,-0.0567193891298999,0.0216913375890998,-0.00100601494633587
0.0402723852878202,-0.0543207010936617,0.0216287780885397,-0.00028713921068219
0.0272950705040725,-0.034243066347254,0.0102881285511853,0.000614933823356502
0.015429836061908,-0.0163342017705867,-0.00170950425054529,0.000706960028290419
0.00111234861557538,-0.0113277675314379,-0.00717996839332078,-6.24962376771932e-05
-0.0159276398879686,-0.00484589716799092,-0.00919263322483004,-0.00113953759651842
-0.0317998904455935,0.0175282673446078,-0.0116260477066928,-0.00203275347140076
-0.0394777483475082,0.0455839650486403,-0.0131616168710634,-0.00268397562796992
-0.0390708606316635,0.0489743077013743,-0.00979165971333308,-0.0031358059866661
-0.0415680375363488,0.0214524867813865,-0.00536481596249043,-0.0033669571670605
-0.0443435719494738,-0.00560110537463729,-0.00506989152065186,-0.00342846729040989
-0.0303354408059066,-0.00783803226721642,-0.00527077914461162,-0.00312794610955768
-0.00629135816831741,0.0107261271898787,-0.00184762129047103,-0.00188314583863537
0.0124082171046438,0.0212360666331613,0.00547299308159298,0.000179155441305638
0.0262691194119925,-0.00138781890070535,0.0138763035993687,0.00190144732410512
0.0350117436150564,-0.0315467974790795,0.0178936602474954,0.00259469348368798
0.0361941941257041,-0.0307863546431324,0.0142586351259254,0.00236516532881988
0.0323905044885708,-0.0131493658673233,0.00802824468991549,0.00183478606969492
0.027150156259735,-0.00459713664996922,0.00452473764563356,0.00190080169729629
0.0220017685971347,-0.000442733924343217,0.0025036002390008,0.00264694522473732
0.017076376121318,0.0028148117372801,0.00195741030372078,0.00334033372809426
0.0145233437103081,0.00719547974156948,0.001308239561121,0.00323891505230793
0.0150915437263847,0.0145437740981076,-0.000363913524940978,0.00153530451340635
0.0130642707501864,0.0082783028172816,0.0034140612100771,-0.00119180556923152
0.00663979209798996,-0.00593943896683462,0.00969764394284997,-0.0022180958772287
0.000569881554377327,0.0020991764854164,0.00733823159798901,-0.000970101590441379
-0.00120570723166236,0.0283161743743735,-0.00233127639496388,-0.000641724906887567
0.000479731251058765,0.0380404788107065,-0.00792488995250628,-0.00287141176120098
0.00181177308124978,0.0228338711002231,-0.0039123708050706,-0.00511760405395114
0.00204024931844934,0.00854546930007904,0.00179703351571594,-0.00478485435185286
0.00190522726185657,0.00643069635425948,0.0034448709646265,-0.00268188799730304
0.00399541549643176,0.00995867139683035,0.00461867461122454,-0.0010451721669528
0.0141807912605697,0.0196073286546678,0.00514788270400196,-0.000572197053212223
0.0327704634359508,0.0335912980327808,0.00370464554496528,-0.000587258029072364
0.0476925308936789,0.0427122990126135,0.00276064815430652,-0.000476137484210536
0.0469305180051119,0.0384943579471253,0.00384044693134973,-0.000267295890264658
0.0378021514241905,0.0208169936348,0.00808681630192763,-7.34033789482086e-05
0.0327609383346683,-0.00140520326302001,0.014409604326655,0.000351960853654968
0.0299444821706224,-0.0191640642224148,0.0195472943031455,0.000985581861377729
0.0272506604501072,-0.0309792074522984,0.0227805655253916,0.0014241379190506
0.0230259037961277,-0.0359553844725471,0.0202371542345037,0.00153739235277787
0.00849034528702207,-0.0235944590757955,0.00171008741960628,0.00144953554774365
-0.01455538184632,0.00866200454574699,-0.0274021463459599,0.000984967150127122
-0.0292990735873414,0.0447378852217451,-0.0377563331969057,-0.000123824359452596
-0.0309118450824631,0.054586255589117,-0.0201402693229048,-0.0012329075731782
-0.0282479562856712,0.0335325155769117,-0.00154400927002599,-0.00162296541310141
-0.0220910193450542,0.015722652684663,0.000664884557015275,-0.00158440733111576
-0.014511952066505,0.0105841960800574,-0.00372861531239403,-0.00139394142149967
-0.0103320355760236,0.0105557155927229,-0.00199517626891685,-0.00104908296426925
-0.00559865212706916,0.0156703741930025,0.00601991841806717,-0.000541930584264722
0.00035057728924345,0.0129215192787979,0.0131926470952447,0.000422859138475702
0.00468345583232599,-0.00856862276990631,0.0188392825130665,0.0015185084180138
0.010364289609175,-0.0405634653855477,0.0267812329637526,0.00152385835142817
0.0182739502981006,-0.0629582338617533,0.0328615043712715,9.58575576967859e-05
0.0249152952277949,-0.0626249614676053,0.0301062380866838,-0.00165743130828164
0.0268732618399742,-0.0509923337731043,0.0229251460215172,-0.00235599557520221
0.0202712197186987,-0.0392423547036897,0.0174148751023225,-0.00142129468036434
0.00626186490043969,-0.0135952082527766,0.00845177573361497,0.000480298758863212
-0.00736300029189502,0.0165392450517215,-0.00343024084842931,0.00174237371611285
-0.0161845288921183,0.0196706045004757,-0.0116394114101773,0.00155338669700781
-0.02247825029126,0.00650912590512549,-0.0156432335188906,0.00106104991491976
-0.0261794865383754,0.00143880826279499,-0.0147003330585192,0.00162637234533108
-0.0222996965489913,-0.00661415704958213,-0.0113040337363691,0.00308744509104001
-0.0115338860063133,-0.0343909418289594,-0.00808807993319076,0.00392813942447782
0.00060158408527846,-0.0677047645730297,-0.000806882832496053,0.0027805096972065
0.00922476116131398,-0.0834150382162975,0.010340160337449,5.45141079797556e-05
0.0101767900765056,-0.0776427678869508,0.0173865619974239,-0.00241596287803409
0.00803697310936356,-0.0629512679199834,0.0165005662644914,-0.00304660935402643
0.0090474597171211,-0.0495777904730405,0.0111117732863897,-0.00176574022046757
0.0147468898977545,-0.0142957162858058,0.00378553955084673,7.58381844767982e-05
0.0196085782729141,0.0576297477050531,-0.00390100408261009,0.000826515037261787
0.0138351659267497,0.115779385609267,-0.00584334215939385,-0.000235828275844965
0.00542866102562169,0.124020303370938,8.27788034646598e-06,-0.00206160581051366
-0.00060134799671116,0.10395950158733,0.0068192259252112,-0.00314928041946711
-0.0167446843931295,0.0635760569540446,0.0130208873289248,-0.00310703899623926
-0.0399871280858827,0.0108203828277647,0.0143647140456102,-0.00171963867085099
-0.0514146554265643,-0.0259818487411653,0.00367066066596448,0.000683017573437364
-0.0474844692889178,-0.0437919721591966,-0.00698869309572122,0.0023726825188105
-0.0390440812184011,-0.0531165444362829,-0.00307840386776209,0.00298688112258206
-0.0294797945192766,-0.0437868229694761,0.00931003609996401,0.00403974020745891
-0.0161343777200666,-0.014629315548657,0.0157859808498033,0.00546915363363999
-0.000197722542024596,-0.00174412221208309,0.016011275297543,0.0056881804143981
0.0098818894185654,-0.0148751478352202,0.0185410301296048,0.00426230978153375
0.011305682591952,-0.0106643071576967,0.0209818842086706,0.00216214135588493
0.0105335048029674,0.0220783557522183,0.0163821179133303,0.000453602992111485
0.00889928944726594,0.0442420276556564,0.0069723858324106,-0.000536574204778113
0.00659564684979178,0.0375292882108987,0.00291043468911927,-0.00124339190771077
0.00513892310324403,0.0167863913569315,0.00994889755129929,-0.001940215317658
0.00209723367998614,-0.00516148834935433,0.0188874731166611,-0.0022472597153575
-0.00340044615131488,-0.0209326280098883,0.0202118818796011,-0.00203141207254269
-0.00530357665649255,-0.0177140426210674,0.0167599396902473,-0.00161706434205748
0.000160200948980059,0.00633571120495972,0.0148303273459352,-0.00124477255728753
0.00504746441483443,0.0306811716829576,0.0161821075984355,-0.00087640957878391
0.00312185716347714,0.03975649367402,0.0166746075064419,-0.000402362074914361
-0.00356890028574203,0.0388050003023134,0.014999826846016,-1.67282087840979e-05
-0.00673269941309866,0.0368575537497695,0.0138912595598763,0.000106924272009747
-0.00012831183083801,0.0371446296270414,0.0123834232573216,0.000120541045536037
0.00268555046098358,0.0379840932777991,0.0100708682931449,0.000154262180340542
-0.00693964356817502,0.0320101288563829,0.00683543170074084,0.000348541467861825
-0.0134747506688716,0.0166361162082331,0.0011887243520058,0.000820570516020285
-0.00721496094860372,0.0039331676080873,-0.0037326722279289,0.00133557517712702
0.0047011887884025,0.0098184974577988,-0.00615332111055055,0.0013713045722563
0.00851422993980598,0.0241941111341535,-0.00584950887918965,0.000305183855634141
-0.000925103156328533,0.00942864077062226,0.00397903879922145,-0.00134125617596567
-0.0134301544876556,-0.0312504668258469,0.0203739406754172,-0.00154472901240563
-0.0206080434260978,-0.0526707397934025,0.0274668706305896,0.000380158138603625
-0.023794683715779,-0.0452941717843066,0.0218397435673687,0.0024342352817963
-0.0265008555088181,-0.0256774290236662,0.013492625689085,0.00255004429410535
-0.0270537393689237,0.000200400715077528,0.00976724131883725,0.000761675504654398
-0.0192350172745791,0.0142224128185859,0.00941846345422223,-0.000944183851448766
0.00462804026263323,-0.00178100304215398,0.00853946673712034,-0.000885585119922101
0.0420114075121498,-0.0327521415192546,0.00710355231037615,0.000359791279147367
0.0742133690829363,-0.0500859607526201,0.00156914140142506,0.00164637938768142
0.0926863432115626,-0.0222026355559244,-0.0147659018491681,0.0024411402672432
0.0909000795871177,0.0597516013372574,-0.0360740123601311,0.00208894646053542
0.0540164558266673,0.138247965180729,-0.0505704179369326,0.000548190034431747
0.00958954182940418,0.148474594334068,-0.0571640412283494,-0.00103109903999959
0.00443981114195847,0.0949920367594795,-0.0541431503151123,-0.00120548580620427
0.0292185118025579,0.0185200467125283,-0.0331244085424922,3.65243967155243e-05
0.0247701559359396,-0.0424053690115381,-0.00282712875731146,0.000813875937426927
-0.0362146230975632,-0.0704840547491976,0.0134976630795042,-0.000319866540436165
-0.100347982510577,-0.0736792032390367,0.0161405729596233,-0.00244126447819096
-0.114714347030047,-0.0610858719002033,0.0227010943229039,-0.00299808783724626
-0.092488968182173,-0.0511834940925149,0.0320904802746275,-0.000805181494537744
-0.0624232535027402,-0.0552472127847182,0.0349719030064339,0.00211100331024158
-0.0397668861860325,-0.0545836661868364,0.034331818943659,0.00332232410888328
-0.0361681686339002,-0.0260330893876137,0.0294564766053072,0.00305028251397816
-0.0474794585925365,0.0226853086615159,0.0169168728802378,0.00235232818597684
-0.040489999629568,0.0513422891986129,0.00478903674693238,0.00107320110198212
0.0142769049598643,0.0419705452661828,-0.00352756051863356,-0.00114849253694899
0.0924273390025092,0.0194640456128889,-0.0113270458610526,-0.00402966626016027
0.150023326574285,0.00780454219740976,-0.0181537445128734,-0.00648117641133954
0.167373577511632,-0.00150417968499227,-0.0178911480270037,-0.00713028777244138
0.139938834541518,-0.0309033274664555,-0.00580465893691438,-0.00515190706916713
0.081473034448703,-0.0691817430680981,0.00651465944286679,-0.000598948430523166
0.0190743980009774,-0.0885985140893513,0.00747938897050064,0.00482030334625739
-0.030574903457589,-0.105025620802735,0.00584011097668519,0.00826280835907965
-0.0555660254177252,-0.1399519743352,0.00988539815770776,0.00848169033297754
-0.0473252241608683,-0.160976487514181,0.00876523828852376,0.00642051750710484
-0.0282247993008115,-0.117091214268081,-0.00626137997219434,0.00333981619599339
-0.0277735280270467,-0.00589937626034498,-0.0246962960337853,0.000114530477153756
-0.0419205751941749,0.11680683248435,-0.0388572937611264,-0.00261521318894253
-0.050993277858938,0.205468179217724,-0.0539765169528028,-0.00487191929377456
-0.0472192961579471,0.224032567272561,-0.0600337553264375,-0.00716464571889177
-0.0322862538022689,0.14305442823735,-0.0409869595942047,-0.00901545312657856
-0.0194235021028977,0.0265380592485223,-0.0115237426025044,-0.00913307300106183
-0.0191482693867225,-0.0378308575292739,0.00580769845643092,-0.0070145077754442
-0.0157819088957625,-0.0500392660055105,0.00958227325797387,-0.00346372749227756
-0.00679216396988602,-0.0500164333645237,0.00763405667601628,-3.36877886716099e-05
-0.0170276882336222,-0.0554912169404682,0.00393950886765441,0.00195464541006211
-0.0393094452439902,-0.0614153314562799,-0.00327762702597636,0.0019749909613761
-0.0362074893091531,-0.0581363455631818,-0.0103491495208307,0.000507437971559821
-0.00582808286346233,-0.0365690189011692,-0.0100398176995856,-0.00123710493503015
0.0175054254797584,-0.00782733739656674,-0.00529996507059968,-0.00191351544384355
0.0200913566991072,0.00674667551863591,-0.00363134465727374,-0.000870125736680403
0.01619098562092,0.0103848929644766,-0.00979729433097857,0.00122812324889677
0.0138215016869575,0.0220775918482402,-0.0245760220711831,0.00267809766417349
0.0182457576467673,0.0407887280011552,-0.0401683115483398,0.00169760182218082
0.0323158268168519,0.0188385295980917,-0.0384180355401345,-0.00152139615982019
0.0398123822250463,-0.0516234570753042,-0.0187825960712479,-0.00257455607484926
0.023318450897469,-0.0874303838585814,-0.0128313674160382,0.00216410850387844
-0.011833228274095,-0.0668272751091307,-0.0275616874320179,0.00777022153980203
-0.0442347554110146,-0.0531723153241068,-0.03401416504345,0.00760635971599569
-0.0588742713612082,-0.0433565407364087,-0.0297197871657294,0.00325140610982364
-0.0539782484541734,0.0152883001588562,-0.0354303798263553,-0.000502209997585431
-0.0422012783982514,0.0869024863631355,-0.0468078117567617,-0.00252377774886404
-0.0450964200753772,0.0920595979716122,-0.0474111278370466,-0.00379356694793492
-0.0697740019430061,0.050656333764725,-0.0413861084089145,-0.00473479437060048
-0.092894723682017,0.0328874805122231,-0.0397617475800467,-0.00521845860466591
-0.0841876842694411,0.0400799759132937,-0.0400048762926459,-0.00545924936602528
-0.0494772329411618,0.0410562701752328,-0.0398638313470541,-0.00572491828602363
-0.0122993546653366,0.0379734220310821,-0.040474314355738,-0.00544938925659781
0.0408300168206652,0.028591884912521,-0.0335634679536717,-0.00398323362905165
0.117791762468047,0.00523732911156125,-0.0191917227272249,-0.00124781261420409
0.152624072236187,-0.0107540205469065,-0.0112124481611226,0.00222242647826159
0.105320512571662,-0.0027604067940941,-0.0169372361828782,0.00525065286598783
0.0384593245129267,0.0154811090090597,-0.0315496157270404,0.00697181494361324
0.00447350781640499,0.0276191624979556,-0.0457809216754708,0.00746064322384169
-0.00847042229101148,0.0313517314721937,-0.0506986843747838,0.00701805417362434
-0.0271352536076006,0.0311533760828355,-0.0425175136838734,0.00601229136062624
-0.0554543200667138,0.0350899929996455,-0.0293172099557691,0.00495851117288008
-0.0691803945416185,0.0407031242657858,-0.0213976967448681,0.00369143367525909
-0.0569445796935775,0.0284092991102467,-0.0178514401419771,0.00178798393896851
-0.0377057339454086,-0.00522564291289675,-0.0121041262712336,-0.000270081830686495
-0.0313783821489696,-0.0309747478717835,-0.00682413652384519,-0.00146524783606212
-0.0382809306022761,-0.0272427587975977,-0.00889265885428667,-0.00167438517742727
-0.0410560871263577,-0.00810771830086641,-0.0144222709557295,-0.00148204825969865
-0.0226011795899292,0.0074794766976417,-0.0157451100021073,-0.0009283232639741
0.012422855157018,0.0174257436822809,-0.0128682834600157,6.93720746350216e-05
0.040287446716264,0.0237296428364375,-0.00991733520784739,0.00117561155474042
0.0511870011155188,0.0236222320992204,-0.0069290846620222,0.0016831729883202
0.0667073263535364,0.00820047141277335,-0.0020610260647589,0.000747180977078724
0.0957050262895322,-0.017797132288919,0.00287398016722358,-0.00160500914779169
0.105786692892876,-0.0358731607491726,0.00319712782170784,-0.00415941573893709
0.072001625485044,-0.0403016425405147,-0.00636300856026223,-0.00529617390696142
0.017318922784791,-0.0321665946357286,-0.0224329029708184,-0.00453218450980266
-0.0202267703892798,-0.0167463112098414,-0.0303352149813066,-0.00362449965784961
-0.0273080643608871,-0.0162992284284586,-0.021906002361035,-0.00348111288540098
0.00205114493857913,-0.0335237105327769,-0.00471069920372917,-0.00161625779245483
0.0530845754014255,-0.0393718550485788,0.00972761410887909,0.00313290099543609
0.0732004685492454,-0.022831942749074,0.0122458007839136,0.00766237355798025
0.0444820191021752,0.00661719296616874,-0.00123376144635171,0.0090616340086162
0.00425467101214572,0.02230086963516,-0.0188312689089327,0.0073419372535971
-0.0235853228850657,-0.0146621008389622,-0.0188876346914927,0.0038114959887913
-0.0363783326906803,-0.0751087968155267,0.00152726198139298,0.000130171837007199
-0.0271095383955993,-0.0826756685547893,0.020664545503202,-0.00197359570548749
-0.0048524684025588,-0.0409136831138693,0.0247923212135453,-0.00215245188721889
-0.00098303520044201,-0.00353773345319194,0.0207530733532731,-0.00158211909021741
-0.0202200374428528,0.0174581798827781,0.0132027138845025,-0.00114550646205356
-0.0253116167214845,0.0300146260638449,0.00542351195702552,-0.00100270365441302
0.00343537609143457,0.02526348440106,0.0064505563679001,-0.00114068767132579
0.0425846057063339,0.00332188550350284,0.0147797771681474,-0.00115606517562202
0.0650065845866736,-0.011698317110039,0.0223029683203092,-0.000738592688802759
0.0694704691647198,-0.00993498799518751,0.0248637856775319,-2.61248126332732e-05
0.0646704362676546,-0.00193307521821769,0.0222258036765556,0.000706321357011229
0.0497721210444592,0.00227904053735659,0.0177631049916311,0.000970192827621101
0.0222838056734973,-0.0035997823355911,0.0127397078374688,0.000550821894837349
-0.00431969208244758,-0.0201889757494533,0.00855524043376044,-0.000193561698732903
-0.0157686405088913,-0.0501034728161432,0.00874328017447444,-0.000670066320648846
-0.0226786739006379,-0.0910544997387202,0.00476745097017865,-0.000478759909917653
-0.0381119237490401,-0.112191405665875,-0.0190360835753988,0.000168898447746851
-0.0484944180125133,-0.0784495452458477,-0.0446000934870808,0.000455586902019036
-0.030432468980252,-0.008468235708069,-0.0389596458941003,-0.000124356266385394
0.0105298907142993,0.0279623400387121,-0.0112650573246017,-0.000815788731395245
0.039760455581927,-0.000983754201472726,0.0115194041233817,-0.000527169630015458
0.03375233135364,-0.0485159523527296,0.022099288195188,0.000629041574129969
0.00678291038722807,-0.0679516156563218,0.0237958671660152,0.00174190809093253
-0.0115679037982867,-0.0560612276972199,0.0217890849137772,0.00247575229814484
-0.0146798240301902,-0.0360888911102789,0.0206582802671745,0.00285937535160005
-0.00644294501242443,-0.0369948527881055,0.022785645335128,0.00284864575162355
0.0223738123466039,-0.0461547150395534,0.024978009366852,0.00268517107888112
0.0592764113094924,-0.0202027232135515,0.0204203410551649,0.00242018036709119
0.0749520973961857,0.0477886953768475,0.009100697200935,0.00155731211225854
0.0736029202910724,0.100557296644379,-0.000310111803326349,-4.62876185744489e-05
0.0699362523664857,0.0802731580599296,-0.000657605755462819,-0.00151764628243167
0.0614979722388711,0.00751557271013806,0.00628652299465915,-0.00160562387619252
0.0589746679270137,-0.0497961674644304,0.0128996986554145,-9.80383484594767e-05
0.0770386480140575,-0.0445536324245898,0.00940898466976355,0.00161356200602058
0.0888007514533651,0.00885809927810335,-0.00691569598863144,0.00210267335720899
0.0569643911393243,0.0515803331057528,-0.0262821907757461,0.0012732761227888
-0.0123848442541527,0.0524526429312554,-0.0393528016427383,-8.4980703041282e-05
-0.080145665728801,0.0371796794341545,-0.0503928475751437,-0.00125450627227506
-0.112017850510927,0.0463407670599355,-0.0622473999065097,-0.00244471602869768
-0.113384537111546,0.0622819935309312,-0.0610179971769206,-0.00400893801679433
-0.0953320446704765,0.0408181244643323,-0.0404485178715281,-0.00496046026601749
-0.0516417870886882,0.0148330505452159,-0.0202691765795035,-0.00404076003641342
-0.00435708008764797,0.0270983386351991,-0.0125490452956063,-0.00206345963019308
0.028054676733892,0.0318750084621407,0.00101329705053578,-0.000929469465073393
0.0658785940646271,-0.000463038810277386,0.0226181542542861,-0.000505826505387944
0.125439466615701,-0.0269164565396808,0.0295347956946587,0.000354921472198279
0.179766390564406,-0.0289810989458042,0.0206052648722371,0.00117312749979775
0.190394910546317,-0.0157471589501486,0.00413185457485793,0.000965898117965293
0.162054457935168,0.0103957244002358,-0.0148643618881486,-0.000261625817634929
0.123821798551867,0.0309917663222344,-0.0190748632998293,-0.0020746472733775
0.0928457619326463,0.038906686186288,-0.00520231544705801,-0.00359723400924801
0.0744421486229289,0.0524133184243399,0.00743480089915984,-0.00376699655809081
0.0815921286822943,0.0699179770528797,0.0138825456338409,-0.00261102729496307
0.094165327314464,0.077639292822914,0.0226687184002371,-0.00103191657380679
0.0546492267441011,0.074585970416987,0.0300773571525626,0.000375155172382098
-0.0216084716341725,0.0677880526364734,0.0269992846534831,0.00135122582612713
-0.0796604434854892,0.0751127031189787,0.00999962582161795,0.00149499279103062
-0.12148608880619,0.0792181183486579,-0.0193260340555953,0.000681731002045875
-0.140095297630515,0.0307974438118102,-0.0450053220492831,-0.000584661884701738
-0.0975050564924313,-0.045156778406274,-0.0485970214995351,-0.00183921095748516
-0.0130897297242442,-0.0814778706636954,-0.0348916442874984,-0.00272088538873694
0.0378015206647993,-0.0857306793888401,-0.0135160532433792,-0.00277834069339737
0.0288328201532369,-0.0884368175387284,0.00119604891163469,-0.00180036207995009
-0.0212084738297487,-0.0619424220395167,-0.0168641579033044,-5.03686605610736e-05
-0.0903002341522456,0.01309605385158,-0.0576724276653804,0.000968022727186445
-0.104775111375613,0.0887780851282831,-0.0794394068101912,-0.000577224614092485
-0.0191553288357083,0.108545260681844,-0.06438979971221,-0.00402363759173148
0.0924499161459904,0.0733219593583309,-0.0272045820503986,-0.00650790571676068
0.130117828212409,0.0237773158202364,0.00591253511886188,-0.00602621696903154
0.0886940521328647,-0.0103341433355892,0.0204013612276762,-0.00279015556235539
0.038710454349941,-0.0233340329337587,0.0207696237417042,0.00136280372830503
0.00988048760943746,-0.0180130819497082,0.0156521690808238,0.00448960259321873
-0.0210057018988756,0.00132841570820866,0.00809156008879341,0.00575855970353153
-0.051958894639716,0.0237610213008935,-0.00287176479253522,0.00529826989209253
-0.0603387541654897,0.0293937431410606,-0.0138675160841413,0.00333679576225984
-0.0503098310711816,0.000176773083209424,-0.0166541713129863,0.000582664610139559
-0.0417384315565459,-0.042947509323722,-0.0147640245088278,-0.00124946372735121
-0.0387397356652326,-0.0604072017457555,-0.0174163471925528,-0.00172839427788919
-0.0349529055838775,-0.0554127912596195,-0.0210046733038774,-0.00209031683839493
-0.0324412798388812,-0.0474320782874812,-0.0215236872195982,-0.00254577882872153
-0.032631959473516,-0.0367171591411471,-0.0222495819617039,-0.00218046279988821
-0.0291384066269917,-0.0268386535783933,-0.0245376576257478,-0.000620589621353267
-0.0193974952831828,-0.0320274173684682,-0.0243762094894822,0.00143875546549113
0.00332185145296708,-0.051338588557156,-0.0198995840644068,0.0036519514232533
0.0462622604185245,-0.060409863649261,-0.0188933993987571,0.00599239673843662
0.0795474052492634,-0.0478805142593961,-0.0252313667719717,0.0070130149422458
0.0626506157760214,-0.0299287422253708,-0.0312086502105716,0.00555315362997774
0.0129482911651923,-0.0205692651243606,-0.0328437415270637,0.00261756033985353
-0.0137710424276213,-0.0190173264318918,-0.0323409108781507,-0.000225494254920281
0.000525664226533176,-0.022512114719493,-0.030421338858634,-0.00234137541161502
0.0272244643532873,-0.0316796136091797,-0.0261952574570199,-0.00358307884209906
0.0412621078356064,-0.0391166021436871,-0.021510946070509,-0.00372351633249405
0.039375861609933,-0.0349624738329552,-0.0221952216828139,-0.00259805043457904
0.0265233160549749,-0.0236872105731522,-0.0267680565212549,-0.00050138417750793
0.0102736674334866,-0.0167881480706366,-0.0271221168582136,0.00183387957908261
-0.000173261138564862,-0.0155041390872973,-0.0244082257522249,0.00338457556160894
-0.003313374899395,-0.0140068266624374,-0.0230004789496441,0.00347139771107137
0.00160738654519284,-0.0131035073260329,-0.0201992935116618,0.00259061753747981
0.0169534486361466,-0.0114318700778002,-0.0152183932710062,0.00170526318133002
0.0219701497106121,-0.00490454329699785,-0.0109463904691,0.00119104741307586
0.00955725024037198,0.00159603692320997,-0.0101024059642811,0.000691350540650268
0.00928461894387046,0.00867052457191313,-0.0126070204235905,-0.000266315345507034
0.027515194350964,0.0118702090605037,-0.00947237911469345,-0.00188140517793895
0.0491273354331807,-0.0121520071589215,0.0073062316487471,-0.0033094692083908
0.0718322522560459,-0.0516020375039916,0.0280517343934905,-0.00240833040703619
0.108965129958381,-0.0717575631521407,0.0390737014440043,0.00111915937575229
0.150411298355927,-0.0847108995271505,0.041831636071778,0.00432240414082823
0.15600808113327,-0.1130585596657,0.0433313008082011,0.00483899243008534
0.131487948010562,-0.144352570404505,0.0431508589519458,0.00339027401159302
0.107696537329615,-0.166074418887981,0.0407019185675491,0.00179916952021299
0.0899591997628896,-0.17588025648573,0.0376374197833773,0.00120752034156963
0.0725316814517003,-0.162677445399222,0.0342184454106833,0.00169851596009488
0.038222012914728,-0.111436114047867,0.024043609100169,0.00274630434178986
-0.0145837973783125,-0.0373779551240086,-0.00905014492869324,0.00405958349884336
-0.0444785128588809,0.0505611377601538,-0.0522110277811683,0.00443292942150314
-0.0247628481093589,0.167028367139763,-0.0643496648732918,0.00234639178972915
0.00646682013018978,0.242242883785534,-0.0420060649619986,-0.00149785338202917
-0.00201428394933348,0.227023765121282,-0.0189389463921371,-0.00520032639027209
-0.0383384361838073,0.187370731163972,-0.012794302917171,-0.00785394006608191
-0.0502022594279179,0.147134879386086,-0.0129292569548471,-0.00927066447387689
-0.00911443659784734,0.0633640158079024,-0.00351833219960395,-0.00919162705457946
0.072847124823879,-0.0513242511144737,0.0169501723628118,-0.00764102789736533
0.143844329854975,-0.120690103014473,0.0387498787468911,-0.00490606788191507
0.164388490622881,-0.121300047129011,0.0521538446748074,-0.00118172369910409
0.143925115379024,-0.101980791076707,0.0553703227695505,0.00285126106338761
0.109010723618347,-0.09186293272993,0.0543995362363492,0.00630476127864962
0.0712274449138524,-0.0764217589718617,0.0501845574342332,0.00846344650382591
0.0264689304539547,-0.0504938583160041,0.0413472326813553,0.00855826705164614
-0.0284979578483602,-0.0259511140234531,0.0316954184355523,0.00661424600549558
-0.0691124261419053,-0.00475003593056062,0.0228669438300323,0.00359189291082501
-0.0473501212640555,0.0129207789449005,0.0149267825758503,0.000341758666478505
0.0240115290749948,0.0179059779354692,0.0110150697734399,-0.00275956898815644
0.0757327710211247,0.00993254800272562,0.0129433059960634,-0.00500873924405823
0.084721971554118,0.00397460549959061,0.0178003640839179,-0.00520179351509513
0.0813888476755224,0.00143759814853587,0.0234369640460355,-0.00331525109141748
0.0904474601712611,-0.0112499787248772,0.0305338850260285,-0.000918300177608228
0.105261054394729,-0.0282579390755686,0.0384674351857998,0.000684461308980956
0.105251682400651,-0.0322766137820885,0.0492548665212337,0.00133874902926309
0.0790940367921113,-0.024529297499074,0.0598810643538564,0.00124964999196282
0.0270498668523958,-0.0134134631146409,0.0594657000406316,0.000268431492075329
-0.0340297249632633,-0.00459169620232749,0.0564037657684665,-0.00121135178752354
-0.0510929610033369,-0.00151924565665307,0.0641412736428162,-0.00116942164711539
0.00482294321485581,-0.00909544278240081,0.074323330564774,0.00132987823195831
0.0822392727137379,-0.0371090328417382,0.0823908089916059,0.00333001384081472
0.120277485391879,-0.0641358558014879,0.0847088309299976,0.00200336662168664
0.108375894959086,-0.0500034532234826,0.0684138356423393,-0.00141123777189718
0.071260637758794,-0.0254885523488619,0.0493843274785913,-0.00434235414416026
0.0353734470068593,-0.0277704684998116,0.0423453448711,-0.00518807773346659
0.0150063659526843,0.0140162009245807,0.0222252374218825,-0.00362557338888924
0.00358986322333273,0.125488891652842,-0.0137790639383162,-0.00135050923301073
-0.0274815110358127,0.187390575541403,-0.0307745693849822,-0.00108033951376189
-0.0837261034964606,0.128491967923836,-0.0117285074649157,-0.00351001853463537
-0.148071636531176,0.00914678331979615,0.0200933029940565,-0.00530180722378639
-0.213413466616635,-0.0738633614936838,0.0277511883524571,-0.0027123387392207
-0.22280422803748,-0.067838225206339,0.00858165582045103,0.00318003913136309
-0.126796839544473,0.00684097074918913,-0.00366569322364555,0.00729744734160916
-0.011340258792935,0.0779752080289089,0.00346350852732414,0.00638565536226504
0.0284580537341628,0.0978546789235443,0.00442946220876747,0.00231885867249698
0.0160259265301772,0.0958970240581836,-0.00943328467766902,-0.00153040864777969
0.0119870648883459,0.0857495817923703,-0.00749575568512524,-0.00420559582590107
0.0255917149197517,0.0553534425779809,0.0303814069449392,-0.00580486499231327
0.0323946639748307,0.0163412395509247,0.0828258641009722,-0.00585807716986071
0.0315088182895203,-0.0119961281055457,0.121749405625512,-0.00456628364851994
0.0292998217821232,-0.0191591313592648,0.137035531697232,-0.0025237418361198
0.0264998252029185,-0.0213862998371195,0.131653111767943,0.000861390503275987
0.0286949722491195,-0.0259571168451796,0.109316926066752,0.00517935497154963
0.00240866518588861,-0.0249448978215732,0.0700893079294159,0.00753600716293309
-0.0995928224196694,-0.0175778535176961,0.0228820487513328,0.00593328106906626
-0.244423129020823,-0.0146113074143285,-0.0150368955801953,0.00153294954260871
-0.333399009687882,-0.022973905542595,-0.0245677537205802,-0.00255050120221081
-0.29559696853854,-0.0265697897725228,-0.00518429938747123,-0.00380342029110351
-0.166118719192165,-0.00691090181511819,0.0138315773784606,-0.00198827793341453
-0.0783229188589018,0.0525228593251576,0.0107290571544055,0.00104526513212347
-0.0850582218318318,0.143819470840878,-0.00842619840769966,0.00259381217805965
-0.104671428686557,0.207352388995279,-0.0314979155217475,0.00124966530462839
-0.0911719890302054,0.224980806155715,-0.0524134576900691,-0.00256322549839822
-0.0554558047563583,0.232187229770272,-0.0637346628089805,-0.00765356708084796
0.00169013610965547,0.202179900878847,-0.0535910010987709,-0.0121641979772788
0.0554118609574765,0.110547425394256,-0.0226582382000304,-0.0141333464532306
0.0604868898074104,0.0214641623386133,0.0105325004624739,-0.0125021348403031
0.0209720107112809,-0.0120045091334343,0.0325578336161548,-0.00745593591299093
-0.0228371886988413,-0.00874906040437899,0.044023536399227,-0.000856192255364513
-0.0594914295915838,-0.000993557956473358,0.047253591228024,0.00479180044398791
-0.105639771541282,0.0125837033804562,0.0400386025110828,0.00853387681349055
-0.147332826549677,0.0535424805563752,0.0224084792322786,0.010420252092273
-0.169748992035349,0.110008499513508,0.00404855803638586,0.00999351633364013
-0.220140479453251,0.134103341459361,-0.00501539712778021,0.00772681447801864
-0.273914305224367,0.107437283503425,-0.00657285913971487,0.0054191135896131
-0.22264291824993,0.0499656910494487,-0.00569188911247884,0.00327446587349258
-0.0868988945543925,-0.0108149354631404,0.000370629155062606,-9.77350722187872e-05
0.00802122485463025,-0.0442037759847073,0.0105059485194478,-0.00458014578268972
0.0101488297888326,-0.0303473521963001,0.0143402864381842,-0.00818128773575366
-0.0319230845844332,0.00931368855806013,0.00729036148104934,-0.00898473450535742
-0.0517106430105521,0.0294411077033278,-0.0021457700288147,-0.00663637544453053
-0.0211777909979199,0.0205933180102325,-0.00337819037833308,-0.00269995507728682
0.0480226667971553,-5.43645830913195e-05,0.00317635706748032,0.000830660339049959
0.101918001558213,-0.0244814270907648,0.00607380299847646,0.00311178479346427
0.0984168352463844,-0.0355725623773803,-0.00246433553241045,0.00373514129169248
0.0606660003617814,-0.00992544269909687,-0.0128988466208779,0.00247756825350601
0.0275410855988255,0.0288144796207609,-0.0137181995911143,0.00058506012145293
0.00695327512283978,0.0297778602050579,-0.00661264304636768,0.000389170802074592
-0.00960458225634774,0.00262803977593331,0.00359831821824305,0.00301093997905105
-0.0212950661492335,-0.00955854159610786,0.0119739196486211,0.00686476019597198
-0.0262541090274942,0.00429928492364357,0.0127132174910119,0.00954242253622498
-0.0281595547484273,0.0225527075849601,0.00928618272250956,0.0102149393325886
-0.0288041563619628,0.0157452669871239,0.00751922649532771,0.0090437268571897
-0.0309834744939684,-0.0107608714189466,0.00723774723620805,0.00654096979238231
-0.0316495312383397,-0.0286269631792917,0.00597518655841504,0.00364210187049443
-0.0294851339630928,-0.0304561764003273,0.00178321490924905,0.00105424241727481
-0.0315813770581996,-0.0218649868930092,-0.00363374820173534,-0.000978948343146539
-0.0419675330274173,-0.013482703221951,-0.00750627722872554,-0.00258400219223282
-0.0496108075947124,-0.0203495217327159,-0.00632741299645832,-0.00382041091959177
-0.0383115815578571,-0.0371590670936669,0.00133095791102329,-0.00452838855400372
-0.0109394812478288,-0.0384097354022664,0.00896862906984629,-0.00467313417948073
0.015527834597148,-0.0169778596099621,0.00788777251752156,-0.00402135502342342
0.0275663997895278,0.00124882337502753,-0.00153020157919023,-0.00228196251442638
0.0295928260985182,-0.00663010566137373,-0.0097201768874347,0.000344449017006731
0.0393533559323632,-0.0340186163804204,-0.0116818467700334,0.00327031715447333
0.0602272041831167,-0.0599056282946695,-0.0090538223974264,0.00576459792560667
0.074945383542549,-0.0771087603133332,0.000471750331517273,0.00730373276633459
0.0733282031436114,-0.0929483804330311,0.0145578546370694,0.0080810019607676
0.0619484345745012,-0.0983863067190015,0.0179310670311489,0.00841967503413975
0.0466572482719711,-0.0620944858923199,0.00173258883736967,0.00816297922223
0.0292409201111141,0.0222282501290992,-0.0207484423690947,0.00715869016148417
0.0153372537988322,0.0977134287958019,-0.0318090091659327,0.00543820963071287
0.00994627235687301,0.0998090471536798,-0.0280714117361714,0.0034410650548193
0.0112930946462521,0.0402172898127793,-0.0168417598414684,0.00224075005848362
0.00886183786540785,-0.0235056919271795,-0.00997941534715769,0.00240953984193216
-0.00511995920433981,-0.0611948858059149,-0.01175672798913,0.00306747993958047
-0.0164927058141261,-0.0669873358983817,-0.0111731600424847,0.0027945628598604
-0.00355283995619494,-0.04478399042795,-0.001124168497551,0.00113019946282323
0.0280714591857305,-0.0203226847299377,0.0109476796277556,-0.000881567384711891
0.0517585171367723,-0.0131030027906655,0.0184168347243599,-0.0020065848464752
0.0592994376211836,-0.00671970250748629,0.0228691239320467,-0.0022057119695059
0.0632231179811912,0.0121316924395308,0.0252707555401179,-0.00217185666830756
0.0679877415186654,0.0162531073604982,0.025340315361854,-0.00207193727636153
0.0668370212185816,-0.0132677799534976,0.0251540096830041,-0.0015949279129877
0.0543050147349405,-0.0361151838641703,0.0182901600180854,-0.000962282483160558
0.0290457076735356,-0.0163344235287578,-0.00157074938547165,-0.00100887129754865
-0.00338404686676433,0.0284660420775224,-0.0339698088801334,-0.00275637768485116
-0.0296152647573589,0.0473325438336319,-0.0680008193430437,-0.00620623057656853
-0.0340865471419237,0.00828043384807192,-0.0799923205878297,-0.00860061271495548
-0.0240329254406458,-0.0220175834124749,-0.0752495044914437,-0.00697221998596559
-0.031809654369251,0.0242378603943092,-0.0785906769386416,-0.00293398417684892
-0.0558635545342945,0.0827145108383363,-0.0774433502958025,-0.000241282859517168
-0.0587391368705554,0.0782208739376244,-0.0497142340092193,0.000406891513334244
-0.0365832361168969,0.038738921338672,-0.0142359043685841,0.000331506667178774
-0.00478835126146897,-0.00328961846626942,0.00856477634857807,-0.000181241068791639
0.0344518563965906,-0.0429008573121967,0.0239819763975969,-0.000720599349462151
0.0621178313570104,-0.0456094494277962,0.0311366407705052,1.91566570354783e-05
0.0504233692338666,-0.0179628632109763,0.0292507803131546,0.00162370732510989
0.0124874182634345,-0.0177080873772061,0.0282380960198379,0.00292906083553201
-0.00502618938277704,-0.0480129448118312,0.0262333243792472,0.0039654021481679
0.00134924830765322,-0.0625051930699893,0.0133046622061512,0.00416679537153379
0.00541946210430846,-0.0456512931026426,-0.00268697501718015,0.0024024885539926
0.0105573996877705,-0.018021779545858,-0.00690834643306675,-0.000855777816625448
0.012838615013508,0.00443962110005108,-0.00327361184245304,-0.00362978382545055
-0.0032053775422814,0.0228195991625127,-0.00178276390798082,-0.00468673271420511
-0.0269445424849256,0.0381233578023017,-0.00212375948242351,-0.00467762329777734
-0.0364729696636704,0.04615951218258,-0.00102449701387425,-0.00490544181667676
-0.0341959826531483,0.0495296449555912,0.000927567776287774,-0.00568462493779181
-0.0437032238575173,0.0528494763086985,0.00196003718209505,-0.00592248697554515
-0.0689597534894565,0.0485907437493166,-0.00148411393294252,-0.0050089192371751
-0.089364298551131,0.00945154277480904,-0.00553511074470905,-0.00463913884837365
-0.0784483085584599,-0.051265508653999,0.00385707608946905,-0.00642308166886788
-0.0331523384016565,-0.0731696680874235,0.0260609088096157,-0.00870252731174928
0.00130865542184894,-0.058130917780982,0.0457335138444235,-0.00875213645827606
-0.00140040930295403,-0.0512341576542769,0.0531339272483834,-0.00596741382020753
-0.0112988015821869,-0.0528882207087776,0.0474943411237547,-0.00106164495710674
-0.0105652812261475,-0.0536551209941469,0.0412226306115091,0.00467781886596494
-0.0101093066144227,-0.058341528112998,0.0452197992266742,0.00958102448386387
-0.0118059569405003,-0.0530363084100661,0.048697970814235,0.0117395442634598
-0.0152445434676786,-0.0276505798890077,0.0403378453954364,0.0092764411008248
-0.0395121658580248,-0.0105286825002902,0.0236986865643944,0.00294407755296467
-0.0828361399039289,-0.0406650108028197,0.0181181226618591,-0.00239754676157573
-0.100193714881182,-0.0924934450651484,0.0337669944511337,-0.00244940537327099
-0.0629822586615967,-0.104199255111793,0.0543145823993114,0.00111900060576602
-0.0085141080029643,-0.0645586864269299,0.0654498394115689,0.00358008125060529
0.000696418743929242,-0.0199650868521773,0.0668464098531933,0.0028753537165408
-0.0362771580933829,-0.00825377254520976,0.0682519585044182,-0.000166452043415212
-0.0675528183224777,-0.000809248678857366,0.0738801144297394,-0.00419173375422327
-0.0621570594575305,-0.000364458745087769,0.0780069376256185,-0.00753122721475762
-0.0377911124749018,-0.0493121879783234,0.0734341169901158,-0.00826403774364261
-0.0245297694536017,-0.107782514816539,0.0558418291353541,-0.00637138256282573
-0.0219185765246218,-0.0990848971641039,0.0345017261473377,-0.00382382165671174
-0.0216375372317401,-0.0138990292375624,0.0189526822264127,-0.00224002278800511
-0.0323945519456529,0.0656050672704406,0.00421575238509647,-0.00188474974337867
-0.0642739531798454,0.0943022146358505,-0.0153955257536504,-0.00100670986367305
-0.0993314011955596,0.112533114509659,-0.0296031780461559,0.00241383710987898
-0.100877557180908,0.101774096247113,-0.0240627949875636,0.00677883708295372
-0.0731145147513576,0.0413327844088454,-0.00665614104996125,0.00870270698483401
-0.0634414764099086,0.00413866169253307,0.00586079001411968,0.00708800244866968
-0.0977095035356782,0.0181713350968532,0.00911281374259427,0.00277887953222119
-0.144659603595666,0.0268161420091696,0.00496199416721052,-0.00217305829247347
-0.168547340954823,0.00597863419934146,0.00485765003757899,-0.00521833029961565
-0.139556819424335,-0.0470094946746338,0.0202367257514783,-0.00537881228447101
-0.0434420370073005,-0.11449361629858,0.0405341220250172,-0.00363762744242124
0.0452865663063742,-0.140642393320343,0.0514284947373475,-0.00202010137571762
0.0443714847537269,-0.114098978085311,0.0541884512628601,-0.00174309318446865
-0.0116965963069232,-0.073061882417198,0.0550878377843026,-0.00172453356648543
-0.050977123679976,-0.0444683094137441,0.0528095657150654,-0.000564540833265432
-0.0841276452143092,-0.0132481527042581,0.0390814798653175,0.00107181227074652
-0.11971863802627,0.0357594393285523,0.0174812367924439,0.0018098709014584
-0.125471166614949,0.0520442092238685,0.00695393758452467,0.00188824423101485
-0.116476159721755,0.00405302637335424,0.0112765656340343,0.00255316832564676
-0.105058991413729,-0.0623680373080765,0.0125925099769921,0.00403531069352723
-0.066608783224542,-0.0925597041607102,0.00196353287526038,0.0048736569175342
-0.012092100918584,-0.065875505746325,-0.0112045754606774,0.00317133573516161
0.0154119670912928,-0.0185137587762176,-0.0170935333875099,-0.000892426281061274
0.0108637471583527,0.0458494735516918,-0.0307974386433393,-0.00492345758081618
0.0125953316614324,0.16808117820655,-0.0644896093441177,-0.00773010316041343
0.0202158471768081,0.301437654028269,-0.0924282755509502,-0.00986776585365167
-0.0116020292238065,0.354222042397451,-0.0983987903075402,-0.0116776832638474
-0.0943082243798375,0.31383020767954,-0.0904032548815561,-0.0122898240120592
-0.1929298845871,0.238527251295346,-0.0706859096982789,-0.00945122374403382
-0.258456208862909,0.160054070634752,-0.0453860398831343,-0.00296063204460844
-0.244057019928092,0.0700938018741416,-0.0240189677133812,0.00348589314227381
-0.127438523589214,-0.0456878880776981,0.00361117572044403,0.00653727036966022
0.0274342817619056,-0.185956272137534,0.0450855393127402,0.00662830130216804
0.105996110218106,-0.274118591680708,0.0793276321507212,0.00583003158554589
0.0906704759536961,-0.239514492166682,0.0857214648904408,0.00524675777652311
0.0457998807638705,-0.137298378889834,0.0664531450808863,0.00551072165400011
0.00862027345949322,-0.0642589723898297,0.0446380992792876,0.0063545535139917
-0.00411676739924972,-0.0498305222941019,0.038873028731708,0.00670269655109859
0.00622353423347713,-0.052305154637729,0.035715574255635,0.00669683628484421
0.000999313459360041,-0.0136082124341339,0.0149075140879283,0.00709380780947046
-0.0355124059248596,0.0562238334263205,-0.0227458720492083,0.00736173717638268
-0.0688782058936679,0.103553392090148,-0.059359049564599,0.0068630882130585
-0.0715814672230706,0.134398586766986,-0.0788369310829765,0.00616425385840562
-0.0429845939267009,0.15304649607787,-0.0766912330291714,0.0046180922789167
-0.000973670929626538,0.117214352689739,-0.0533743888653936,-0.000396834602851179
0.00515893184468352,0.054636436419358,-0.0207566533303139,-0.00891873720904061
-0.0547569621946091,0.0393152345488541,-0.00169890284228731,-0.0158863985707853
-0.110901231493029,0.0756770609186861,-0.00494085369908386,-0.016738132539541
-0.0716540199544938,0.102601218404309,-0.0152930726641543,-0.0136575964490489
0.0184221535244098,0.0671582755142279,-0.0122204235671773,-0.0110866396368425
0.055223637045143,-0.0130868905674249,0.00935062977301007,-0.00719666811607056
0.0452231592550053,-0.072146776105132,0.0314787943134463,0.00196436537529249
0.0489690560056459,-0.0799810919285315,0.0331091444777295,0.0131046862691586
0.0784403190317906,-0.0744173488171476,0.0209679663691563,0.0196490922484508
0.103626739968806,-0.0953206866181731,0.0167649594153551,0.0194987777933732
0.0870606580841942,-0.107477929182866,0.014769443533862,0.0142232072790639
0.00458552803820461,-0.0528824181398938,-0.00160066701579412,0.00637632348089347
-0.0882887376867508,0.0469028556546957,-0.0180896553841534,-0.00141597344960428
-0.0744292807000162,0.116960661820086,-0.0176229277781754,-0.00678577780649703
0.0356615133238852,0.113158438317458,-0.0124758704758426,-0.00795256603448377
0.103990894227383,0.0701898059980166,-0.0211925623157543,-0.00529098517602812
0.0721703423318425,0.0721657029080919,-0.0398601954993098,-0.00229248922628492
0.0160611828963678,0.109439389855034,-0.0446173501735086,-0.00220701144858537
0.0187426376553737,0.0838682733162842,-0.0269540894317063,-0.00391230242991899
0.0758344118962273,-0.00368367453911905,-0.00538641178228282,-0.00419299058963445
0.108217360322527,-0.0739500231868546,0.00825893956805136,-0.00258014907645891
0.0644642208283958,-0.0871875463620654,0.00940487483076074,2.48964431086868e-05
-0.0119844410914873,-0.060839735202318,-0.0149963439327647,0.00382820257467719
-0.0561762005653127,-0.0505013442870099,-0.0507815735703054,0.00759339010862443
-0.0458993529985172,-0.0511642728107533,-0.0597281546489568,0.00923686038830352
0.00279691051208666,-0.0258770033989703,-0.038017499425804,0.00932728370122069
0.0548540108568831,0.00497847850178947,-0.0132927147720939,0.00926941559852348
0.0883343282836684,0.0196994312817378,-0.000665450888970479,0.00828681663129048
0.10473135315273,0.0129694277276198,0.00550086916005273,0.00491591183020852
0.108810315719802,-0.0061547566171718,0.0128966265853888,6.8349425068651e-05
0.104481457658832,8.00965767802642e-05,0.0189708322502125,-0.00356422045605165
0.100297442683784,0.0285128638035887,0.0196548177825422,-0.00518769954030652
0.0962133718399762,0.0376017912375567,0.0128822556088876,-0.00678807667390531
0.0838176219505217,0.0322014043263094,-0.00157388886884426,-0.00995489439781395
0.0646827590217608,0.0321883068683992,-0.013076466263189,-0.0139342488285264
0.0465994658540664,0.034347928142727,-0.0175622090492378,-0.0165655603953556
0.0302620710421905,0.035988179354145,-0.0242179419367567,-0.0155996758154961
0.0133332394421731,0.0412954784677131,-0.0313300697925086,-0.0100926515295628
-0.0017000215320887,0.044097207367646,-0.0318357200469533,-0.00220671671180426
-0.00307960783184186,0.0303667671831163,-0.0274855372512661,0.00396704701860823
0.0121055571196749,0.0065531320117782,-0.019842675523763,0.00702411545050865
0.0271244334666274,-0.0134868832942451,-0.0104755367715211,0.00908596814040252
0.0314349960887175,-0.0253803133567258,-0.00247839660477917,0.0119319589324815
0.026719174622407,-0.0330707194500703,0.0030198449580508,0.0151069170233665
0.0181112943699669,-0.0402280555298199,0.00359812440097843,0.0167698584131922
0.00812644940303128,-0.0387224047473796,0.000771594156936208,0.0145850431016755
-0.00242741156117234,-0.02606038449044,0.00122381612220944,0.00817718234601133
-0.00462813204016772,-0.0082126240994128,0.00818993061429823,0.00040374459669414
0.00426061346764653,0.0086664266643528,0.0181784933155098,-0.0054892004459103
0.017898337770139,0.0194415623392147,0.0249080040745414,-0.00851317900429529
0.0389756320579186,0.0224344857169017,0.0300380502385741,-0.00957938363308844
0.0694867600792499,0.00724683194821246,0.0403076053137195,-0.00901297842472421
0.0917931567346919,-0.0207420139714837,0.0487779312976608,-0.00590032992032427
0.087991325583079,-0.0349017881680838,0.0422872263591155,-0.000461227561370671
0.067159834055384,-0.0409580238136466,0.0293299766156062,0.00470850164413303
0.0478150572694312,-0.0576181335248877,0.0285006929813597,0.00705214893609043
0.0324971004548989,-0.0617838329943294,0.0396362194205953,0.00667351386040172
0.0116274523020646,-0.0320680931774454,0.0473926168495274,0.00513569369957646
-0.0295038692987532,0.00992616683250361,0.0418197034013675,0.00311979499100801
-0.0988804584477391,0.0457899048502029,0.027076864282611,0.000775304438003954
-0.150425596745554,0.0293561192069273,0.0147472010189459,-0.00150875455970946
-0.125257979179382,-0.0703827496546451,0.0136282849533783,-0.0040010608916164
-0.0487049348995579,-0.166329759390524,0.0263342399203728,-0.00657145082989636
0.0162359156974212,-0.192295864284371,0.0448305226662585,-0.00680657594384558
0.0382037055212399,-0.164506837494149,0.0483959305082396,-0.00276378489065548
0.0140441123032546,-0.0971215022396575,0.0280196488992017,0.00300630316249116
-0.0236179089225021,-0.0341853737940353,0.00920761093224007,0.00577144459492612
-0.0366154407514543,-0.00990813646823811,0.0119684222927241,0.00510444735464789
-0.0306145132014868,0.0144186065203177,0.0156338503734255,0.00480293068557287
-0.0272157142828365,0.0407658053645044,0.0135636734034937,0.00596498782764721
-0.0376991669179205,0.0458514595582101,0.0212285882834381,0.00584609633951559
-0.0586506776861132,0.0653265611446096,0.0289918081966581,0.00276083662205501
-0.0550157628762008,0.112288114183114,0.0229438807633963,-0.00259148403777043
-0.0170805683950703,0.118412882913507,0.0190022417679499,-0.00858877148849142
0.0028779377256053,0.0231619174874287,0.0382028940052122,-0.0126140464422045
-0.018442684230348,-0.0939344324742119,0.059859317790505,-0.0112893750774369
-0.0451797889143217,-0.098896773965843,0.0432150265678898,-0.00465579955618368
-0.0550554638754289,-0.0146462741082365,0.00238924321755493,0.00130266816821986
-0.0589460234754353,0.0377749600429555,-0.0112830401222047,0.00144098735607984
-0.056148317161547,0.0254071038551206,0.00989656272971125,-0.00158711951811615
-0.029578386263848,-0.0247438248658387,0.044091907526516,-0.00109879189679633
0.013907026745733,-0.0762038517528524,0.0716587764900161,0.00466894625351178
0.0426126781021789,-0.0824368585784479,0.0756532171781846,0.0100266757133226
0.0360531474005778,-0.0496007472597478,0.0618104440675696,0.00949995830283811
0.00352882992962833,-0.022311621062493,0.0476263365510848,0.00452366852512958
-0.0273516067969657,-0.0119692254265756,0.0383022487381819,-0.000208875032627211
-0.0394556890600866,0.000817566841695067,0.0292241936403499,-0.00255643599050689
-0.0583374236628316,0.0150081583128418,0.015960168718384,-0.00356309387449522
-0.109177316801515,0.020098029949443,-0.0011744133325193,-0.00479622377369622
-0.148216756632636,0.0450364113696145,-0.0176256983216319,-0.00561448636943993
-0.149185223192631,0.0898009821435334,-0.0275804417800043,-0.00438878184970689
-0.154825642070049,0.0932449099062934,-0.0306215306440536,-0.00223288060776134
-0.142829149151662,0.0496504613802998,-0.0280525532435899,-0.00174165939914144
-0.056720291444475,0.00371665337951287,-0.0191838429494198,-0.00301336253155765
0.0498700598538427,-0.0179158577663492,-0.0126022107263562,-0.00444778185083222
0.0912260535140099,0.0186350064111283,-0.0139605725940227,-0.0051480325134854
0.0545513052732902,0.114679344930848,-0.0208001532694998,-0.00490521707497306
-0.0189749086363631,0.196388828439584,-0.0299142467801168,-0.00388426468201412
-0.0667778964146316,0.201375768365833,-0.0247700171262185,-0.00286961332756739
-0.0468240773196697,0.137744724384645,0.00264837767953617,-0.00220944384119082
-0.010813949904993,0.0574304793384778,0.0293712225229074,-0.00101301604045739
-0.0635855780770055,0.00346943490355314,0.0305024565326686,0.00108743243463665
-0.171430849634634,-0.0420560715869544,0.0146635787377921,0.00231657896267755
-0.210921744557942,-0.119175822551203,0.0147950406109729,0.0012658870490852
-0.160536972589538,-0.192640696420047,0.0349156869605406,0.00065055353572192
-0.048919514395494,-0.194274495171327,0.044131725225395,0.00338256045655367
0.0926024494884197,-0.139127018071636,0.0358283084998068,0.00679743339348931
0.180328035651245,-0.0787936253189007,0.0286226832365239,0.00684470627122743
0.164453669621047,-0.0169525265903391,0.0223213196851489,0.00373455409276981
0.125254905509837,0.0431871960999092,0.0107248604558074,-0.000152320590400911
0.118937896019778,0.0814896102820368,-0.00112459187932187,-0.00328575541707928
0.0702990032465037,0.126650775859081,-0.0179463645711225,-0.00502602605256424
-0.072238648604013,0.16816380838131,-0.0357311402448167,-0.00625188111520269
-0.232087378689262,0.133945780444598,-0.0370479302929009,-0.00768188943776748
-0.29006020444104,0.0758063658608359,-0.0347024942704729,-0.00738702538266182
-0.242447964659094,0.0818256997253425,-0.0425072988788101,-0.00458725458660876
-0.181803442447087,0.0881972694535626,-0.0428067316846137,-0.00144594142662595
-0.133912352670391,0.0273287661996536,-0.0280635096254675,0.00144478464945203
-0.0468846298143903,-0.0412789738310987,-0.0122603794623104,0.00474029249222894
0.0645194689916875,-0.0688669845747528,-0.00171033820091498,0.0064967371719416
0.116833130916859,-0.078672440974755,0.00619171275079592,0.00474482114039835
0.102266581271583,-0.0798328675536976,0.0111137458693227,0.0010669841614636
0.0668051677255661,-0.061858775622871,0.00925844563714981,-0.00192538065129891
0.0467229898889633,-0.0335751393685706,0.00283690737313894,-0.00351686599813889
0.0607221500633149,-0.00430733154854252,-0.00151114784801939,-0.00416426114926224
0.0814050921184805,0.0392794077089543,-0.00655885215177103,-0.00409023635225224
0.0927057040647919,0.094077218953831,-0.0123484380738478,-0.00355242975651468
0.0983015351443155,0.116388408967323,-0.0140692789166093,-0.00312366218238962
0.0771771966091767,0.0805008087549125,-0.0131237238044831,-0.00285930960032948
0.0345362649544737,0.0163487660729437,-0.00972864193065811,-0.00134872618464047
-0.000877649808856268,-0.0342482121832931,-0.00806164333980663,0.00325261488269431
-0.016104066598465,-0.0475070606503577,-0.0109482598396427,0.00961526039033916
-0.00478834343156462,-0.0266102702778174,-0.0116090414964249,0.0137405209871415
0.0057560597262442,-0.00516614315875301,-0.0122069967547524,0.013296457499433
-0.0255919501361522,-0.00056807397216823,-0.0212822138607533,0.0081646604733178
-0.078056185357656,-0.00277799475765955,-0.0351112019200125,-0.00044206917318293
-0.0897523214569726,0.0141587677483821,-0.0447751313868899,-0.00978525306086943
-0.0359554038984813,0.0679679857889418,-0.045467108771276,-0.016847986530313
0.0381565683290981,0.102112001283899,-0.0324885233515948,-0.0185444678537957
0.0676676179983361,0.0756482115355145,-0.0201720585495132,-0.0122974536033599
0.036889080885365,0.0381436233290381,-0.0272066291474189,-0.00132258935687535
-0.0158242501691677,0.0109155728473508,-0.0356675254571178,0.0067816750300894
-0.018937363247275,-0.0178530396072437,-0.0266273601607934,0.00957632072782194
0.0379148455343843,-0.0323956138865937,-0.0125043596690868,0.00975961013300855
0.0783337782280224,-0.031646085842186,-0.00677840518270616,0.00902278632368361
0.0823101602558486,-0.0305961890501203,-0.00916384900034119,0.00765038605999762
0.0822766665980955,-0.0178275976996078,-0.0183437813731706,0.00589750964571606
0.0812027038827612,0.0146494657644149,-0.0327930288895681,0.00334802631399059
0.0835391621427775,0.0318064576581865,-0.0408522116190766,-0.000846345151044673
0.0880703827719309,0.00707191793843322,-0.0331436191122482,-0.00540952699791185
0.0777264300761935,-0.0290527350983379,-0.0202188418786363,-0.00617213705596315
0.0571662050172418,-0.0367214618670623,-0.0159061549444363,-0.000833427580065295
0.0298238724614007,-0.0176214915201625,-0.0156885215408289,0.00665315800497471
-0.0161324886098657,0.0136494094113647,-0.0140841737199459,0.0109827156630909
-0.0576447516577211,0.0323932925978281,-0.0141787333738498,0.011380171415666
-0.0591741969554309,0.0121569843407329,-0.0171156109918463,0.00887613018453939
-0.0366595919589873,-0.0188440568956237,-0.0268846018913205,0.0026495549177548
-0.0199138200252839,-0.028749109125171,-0.0375676784613668,-0.00655307345799631
-0.0052499253319217,-0.0350828354081305,-0.0357909581007615,-0.0126728546029727
0.0128030749109006,-0.0430611378874544,-0.0277734372480253,-0.0102745340007339
0.0248769685632841,-0.0209037737497669,-0.0320733405823081,-0.00201688279790011
0.0352804751163462,0.0164998543071604,-0.0465271517803362,0.0041484487259825
0.0650705280111616,0.0225172440311445,-0.0506545710791493,0.0043107135317903
0.105120472320562,0.000691901467495102,-0.0423257964757172,0.00129803282196314
0.121297976552322,-0.0273682755609932,-0.0347335495401809,-0.00150560903929466
0.0975383148208265,-0.0417491007096964,-0.0264093696813192,-0.00379583801875011
0.038449617067332,-0.0382973191181069,-0.0099383812237771,-0.00500887766586904
-0.0218825134973587,-0.0282227330768833,0.00801276339041646,-0.00277421459265611
-0.0421938398671827,-0.0181277594086492,0.0152916143074446,0.00286049463422744
-0.026598943388691,-0.0160833712386122,0.00714076436487965,0.00866421864601836
-0.00961415863455138,-0.00943139153708614,-0.00677058226540912,0.0114032371339539
0.00281934895719894,-0.00133277486539935,-0.00986675324011276,0.00944242489380849
0.0296200870969292,-0.019786880406683,0.00160074362338944,0.00431689971956873
0.0612993296277037,-0.0570063378520851,0.0168858229555491,0.000328655241726889
0.0660822002956857,-0.092084958348527,0.021211013204193,0.000150748157118319
0.0369020996872617,-0.105971817024348,0.00220039903921736,0.00211846014410435
0.0142458477501259,-0.0727503473834509,-0.0298562376283265,0.0028584426361309
0.0412397173112601,0.00546814316157593,-0.0473760306466238,-2.27010423847138e-05
0.104682138530159,0.0844885373763737,-0.0463041795242786,-0.00752417960825396
0.156955874058847,0.111704667659295,-0.03915738111902,-0.0167046562711238
0.164370393999397,0.0779342432501891,-0.0283392710461893,-0.0203003258151097
