-0.013845155010058,0.0221992435725735,-0.00571946050755298,-0.000610014228761457
-0.00414782570099432,0.0210419249649947,-0.00660839714471269,-0.00171090087970542
-0.000507152031246877,0.0146528790731834,-0.00750163793838295,-0.00280813943558517
-0.000870554860769285,0.00817832226783481,-0.00646495439133184,-0.00303483413938378
-0.0014637889940047,-0.00235283120034414,-0.00208618843123179,-0.00220330055650427
-0.00243192980387378,-0.0169703612067262,0.00320883388687608,-0.00105666497157723
-0.000970459355179828,-0.0254760049476648,0.00752037625213465,-0.000286512815174282
0.00844523609422451,-0.021217969710651,0.00948656573423919,0.000261647846506332
0.0228723318336282,-0.0123476922374705,0.00730920976434088,0.000814941714194157
0.0310470351929489,-0.0084927021175512,0.00281983051993344,0.00111287279238503
0.0249880631041782,-0.00402010456492023,-0.000868162582138676,0.00100611191636245
0.0125376198203264,0.00782275145615205,-0.00363141127451245,0.000695297032325781
0.00688657567599382,0.0185318397772127,-0.00607178999330013,0.000336898169825573
0.00561745365117997,0.0175695761850172,-0.0067319406208673,-7.68862409750248e-05
0.00282756793150345,0.00827655318734155,-0.0067547807238638,-0.000470127892547717
0.0056219024675107,0.00142309396634901,-0.0107248390600204,-0.000839637770246011
0.00917851462433112,4.38159350590189e-05,-0.0164987881496281,-0.00136299329755659
-0.00563437245353285,-0.00063243022714262,-0.0174990768994577,-0.00177030290597889
-0.0316213437829982,-0.00309686142646051,-0.0126438812399543,-0.00139792673035371
-0.0425903024529504,-0.00622055279193178,-0.00670361682512025,-0.000257975327308347
-0.0329478021469925,-0.0117045045931214,-0.00240685644257005,0.000907839363688311
-0.0193464209973069,-0.0216926616649216,0.00412671897253976,0.00133396493987393
-0.0139675394014968,-0.0335177875939695,0.0134025095746393,0.00100285585587114
-0.0113929998051727,-0.0384598011357006,0.0194039444645168,0.000665869782182015
-0.00300438569875718,-0.0300389322867694,0.0185181692430043,0.00059804798131679
0.0112467052506834,-0.0134919341206323,0.0133790104500154,0.000568567956549179
0.0266440987959496,0.000162298944620193,0.00743612340364044,0.000526065081308882
0.0361141315897018,0.0082887305418954,0.00407139394097464,0.000423811401085379
0.0299730888773143,0.0149080123588876,0.00382596625325064,0.000197850212691856
0.012141467100853,0.0137948661719711,0.00163682734190632,-0.000123341496291711
0.00124053755346612,-0.000269774193107093,-0.00191265353852737,-0.000430849243444776
0.00465800560110455,-0.0127460119777696,-0.00228275103318538,-0.000649299878244569
0.0140779655360809,-0.00699361434945307,-0.000375058359377706,-0.000813968008094443
0.0150073235739509,0.0169452324949392,0.00260073665729779,-0.000707043800637151
0.00227769812097165,0.0417824609675188,0.00676802791050422,3.30469953525168e-05
-0.0127689262346171,0.048978396210554,0.00821655290004222,0.00125556166802426
-0.0191740201992842,0.0409496056395064,0.00546943911536029,0.00231368093169662
-0.0175819001652945,0.027121981225507,0.00332166407002598,0.00266713249696575
-0.00899984853521047,0.0109855231124449,0.00358100682486021,0.00204106629237618
0.00328677902204678,-0.00586361093245227,0.00392657213876034,0.000701398751584129
0.00432460276360064,-0.0251078645011064,0.00271050175474384,-0.000504094576918324
-0.0077515872166764,-0.0373599733953586,0.00134356889356775,-0.00103804657937756
-0.0177941004104137,-0.0321581741084597,0.00209695766040187,-0.000891971412129448
-0.0191865779917064,-0.0179646316935405,0.00285672159045531,-0.000197244806145109
-0.0165300585640849,-0.00701207704565509,0.00068458054660032,0.000764699546151663
-0.0146284333247535,-0.0027858652812075,-0.00241241346696384,0.0015380646311544
-0.0132225818932629,-0.00351372786664324,-0.00275872977938004,0.00169316065085364
-0.00742085451026057,-0.00352554226687732,-0.00117694400998479,0.00115891714584114
0.00309832483325108,-0.000368985829029431,0.000477117443265807,0.000378741993149147
0.013143642574895,0.00243853797283435,0.00460234331415503,-0.000244706374840292
0.0218474034178841,0.0076794469425373,0.010783760986203,-0.000709554377468773
0.027331382528811,0.016256713673311,0.0135839444412191,-0.00102238233487815
0.0298515344885324,0.0232007168117021,0.0122625385640523,-0.00096967221658986
0.033622003227262,0.0256171229247419,0.0103730089672009,-0.00045548807561709
0.0334209324859508,0.0179217092138763,0.00966188484425178,0.00031621152296952
0.0261017307796624,0.00386941668294363,0.00914670863883957,0.00102653556045373
0.0198842561914667,-0.00171745135472655,0.00812989497917915,0.00121479952584985
0.0186110549556151,0.00492108156470672,0.00939449147266262,0.000689257470123974
0.011051232994909,0.0116061996599905,0.0121212554167042,6.33730914544376e-05
-0.0184824149495334,0.00899852684243221,0.00996467976837837,-1.9993028272457e-05
-0.0545697985910936,0.00876317348647998,0.00169737480333425,0.000349452556281017
-0.0595704267764979,0.0245267267846437,-0.00576846197157366,0.000745249002488958
-0.0334917421739317,0.0444945604720188,-0.00828575007137736,0.000919146218814899
-0.00600634593626461,0.047131710476861,-0.00960660432512122,0.00097134719879385
0.0105854170636888,0.0304016288005801,-0.00957385586624006,0.00104996207800112
0.0187404402776255,0.0120416585929979,-0.00593016967718163,0.00106232487907691
0.0220756450404468,0.00509383689892232,-0.00186906224119277,0.000838149042571429
0.0230594522498657,0.00541418634284192,-0.00155958210626298,0.000272204166435553
0.0215641379294921,0.0041428861515621,-0.00562512349800643,-0.000462352464600829
0.0176071177210315,-0.000524081288970776,-0.00923151979217329,-0.00106543198250662
0.0179882205634877,-0.00491180859605642,-0.00850520957239265,-0.00141640179061765
0.0317247886862084,-0.00741640127010966,-0.00482629117524679,-0.00144449525858125
0.051409475631798,-0.00883295436858806,-0.00530110184352543,-0.00123491052815386
0.0572858341342709,-0.0102420749518766,-0.0112009043960695,-0.00093694512565915
0.0475430404078205,-0.0116125295789151,-0.0150913440807192,-0.000650483067926554
0.0357535010326411,-0.0115380792677951,-0.0155033080869567,-0.000444553738262144
0.0249023675087275,-0.0126130378512564,-0.0157071183693583,-0.000297625433237004
0.0152625396486096,-0.0204324700161807,-0.0177825317459743,-0.000192712286130686
0.00909183515813664,-0.0277009314395492,-0.0194079776618449,-0.000209818429468402
0.010069964963448,-0.0186504149826064,-0.0162106157047938,-0.00025032688407992
0.0182424187551809,-0.000226514037363262,-0.00785606889607195,-0.00013284484000695
0.0174012787018022,0.00463511708260529,0.000857891630815153,2.04244406499978e-05
-0.0149760820341346,-0.00904133786166251,0.00521497586000944,0.000173437842618108
-0.0647379144553008,-0.0251994539786751,0.00653529522660116,0.000426241284014297
-0.0789309572199668,-0.0319651332059533,0.00919131970842996,0.000852304705014808
-0.0522138665055547,-0.0335064576846445,0.0153757221415008,0.00116417031337947
-0.0235468700784579,-0.0307771961229489,0.0201388219018666,0.00104355605544133
0.00139192072415924,-0.0161875585951544,0.0174832779211296,0.000942309656017211
0.0285172407974695,0.0111689891643679,0.0103847137977933,0.00116964492527181
0.0416397618368476,0.0403222008618678,0.0048377198155145,0.0013684917502183
0.0420336506018354,0.0545270364556281,0.00362609223132072,0.00125259906504447
0.0519573881675434,0.0466889505739956,0.00433084728986526,0.000770805983098562
0.0689025513878619,0.0251496218422609,0.00216253583971854,-0.000122094535653489
0.0712890586660208,0.00505553412463345,-0.00313882540528815,-0.00125191609446379
0.0545484263009194,-0.00525831874344607,-0.00929464860389258,-0.00206645539117195
0.0303073355571172,-0.00992483791594732,-0.0142626917175941,-0.00222810593014061
0.000126628147827448,-0.0150210734811225,-0.0155815994770681,-0.00193966305431861
-0.0460997012619174,-0.0229630847712396,-0.0131507754197742,-0.00151630954742939
-0.0909246568071618,-0.0276652906713379,-0.00942661448958994,-0.00113888487536384
-0.0961036295682876,-0.0178383778769997,-0.00589417016464402,-0.000768667463974358
-0.0623006618675291,-0.000504216502016511,-0.0026211722217265,-0.000222126516051957
-0.0247365192081542,0.00960825838516373,0.000655078759674041,0.0004590621669554
-0.00717987400254355,0.0148585586606091,0.00560328616788908,0.000970418095573659
-0.00716049738411407,0.0162283070614951,0.0118540671415901,0.00117606513276043
-0.0118976168189812,0.00794559374360476,0.0135427563072299,0.00125762842202617
-0.0150524155696541,-0.0038911075247798,0.0110250299831895,0.00143041613269243
-0.0162594395440222,-0.0105412924914103,0.00992043562443433,0.00157878524093852
-0.0156068398208205,-0.00900395187887741,0.0100130339956075,0.00135030556056146
-0.0133779592692493,0.000836769744001386,0.0118571567877272,0.00074826024661202
-0.0116112259151616,0.0115174413031712,0.0145540190264397,0.000147096649670996
-0.0121960413319809,0.0156797744032348,0.0139646061004944,-0.000193257535656418
-0.014410257148199,0.0147514665111732,0.0105792853443009,-0.000285981341506327
-0.0150621970069814,0.0132710626584024,0.00720973582016177,-0.000299168153844285
-0.0124508881707913,0.0137504235868561,0.00504117269096633,-0.000498929640835144
-0.00576304943851991,0.0151009454944286,0.00284817720334291,-0.000835106375234003
-0.000133310288824668,0.0151704783638995,0.000217963500465899,-0.000917002445645549
-0.00595709716885712,0.0142021487405341,0.000384159927674875,-0.000548301310697878
-0.0201548933980765,0.0132031888375656,0.004300865225378,0.000210312632520276
-0.0317381074215521,0.0134981907123666,0.00731778983026888,0.00100310033334371
-0.0361393246023299,0.0160662874736161,0.00701571975795169,0.00132796783942958
-0.0334292397955134,0.0176373850875347,0.00536161685167769,0.00082142159380802
-0.0277646947290002,0.0130629282098693,0.00351129048631601,-0.000372207419031658
-0.0244349570786462,0.00507873054663934,0.00133750924377454,-0.00156788292416424
-0.025927471262807,0.00065056005470323,-0.000940941662204273,-0.0021094077333957
-0.0290058124418691,0.000928841971482451,-0.00255286637452152,-0.00155022058455636
-0.0278666522439595,0.00203750879393553,-0.00415153022435354,-0.000273323259841697
-0.0245828387302297,0.00145433058369251,-0.00590307071068408,0.000680971011970656
-0.0228255115220855,0.000366362862235499,-0.00634216431995104,0.000987341433595231
-0.019230312519274,5.45043402382278e-05,-0.00711131734689407,0.000912310320560093
-0.0124617291622967,0.000530427842968555,-0.00839177045552621,0.000506472388118353
-0.00488174148169505,0.000686662570079264,-0.0080497496815755,-0.000196785312096847
0.00114945866937077,0.000599386970735039,-0.00902853428142879,-0.000894445104802193
0.00100194923588621,0.0027360790598935,-0.011151234320882,-0.00133392491356191
-0.00483485009031745,0.00611222299583695,-0.00961505447567697,-0.00135422035963535
-0.00695986935147745,0.00908417065043935,-0.00546577585298764,-0.000905209995501145
-0.000498548127529213,0.0149880404183288,-0.00185534166784469,-0.000511526465668958
0.00763210300779483,0.0215896356984036,0.00134418950393752,-0.000595949680430923
0.00791097031242151,0.0193410642660153,0.00439554352496644,-0.00075682118694064
0.00102088749122313,0.00672478003467365,0.00574510654729495,-0.00082473673679668
-0.0039417611751909,-0.00407686130583538,0.00555704609457883,-0.00119768859114892
-0.00267956381225777,-0.00625430518456235,0.00436243302905746,-0.00168770109872504
0.00191021456545474,-0.00591314727621951,0.00186409737139052,-0.00163631945922755
0.00673547676916256,-0.00531760748791844,-0.000945057037878627,-0.00107664639687433
0.00820267569629473,-0.00501359108258808,-0.00524934464528193,-0.000532920139933765
0.00344401279783683,-0.00579061957580396,-0.0100482247662934,-0.000259626799864302
-0.00245144407006631,-0.00428220209660627,-0.00966814947410655,-5.39714181807376e-05
-0.00173842573725496,-0.000415570057889972,-0.00325931227334651,0.00030571096231366
0.00517108039868061,0.00222695178300975,0.00257242175392973,0.000606623859432442
0.0120771629354094,0.00277372073568938,0.00241882002748926,0.000581556370283085
0.023686547219534,0.00597208300624687,1.2882409025191e-05,0.000322931958487851
0.0453650330942599,0.0126437769974651,0.000516387668543042,0.000169598433677407
0.0596014120548017,0.0120565368351342,0.00149660058061612,0.000185562734761401
0.0543871372201852,8.13271999020377e-05,0.00139471925681706,-0.000195660952070688
0.0385393048863536,-0.00687940033598399,0.00335085616263278,-0.001328256504824
0.0193949588157744,0.000414322278964421,0.00531853957790884,-0.00241928255207546
0.00324885393970241,0.00894895480258385,0.00532795909016761,-0.00250305623106682
-0.00160343789090194,0.0109310531171154,0.00500554152272844,-0.00162104084721647
0.00443048599493919,0.0100027501922361,0.00108717521193861,-0.00043685484258074
0.0109972187623893,0.00846056289641163,-0.00249525033141695,0.000313594504696502
-0.00119561152698223,0.000103175234956951,0.000538963683697022,0.00045517419197926
-0.0448873078209547,-0.018879304785396,0.00247154819697805,0.000614362693823345
-0.0866851012315527,-0.0323304878644433,-0.00357230359942639,0.00107683269705738
-0.0800591008547393,-0.0295865660800202,-0.0116734527955478,0.00145769013967341
-0.0359410298662839,-0.0214307501650553,-0.0130561851255775,0.00139577342906933
0.00352115985295336,-0.0153286724736215,-0.00979931366698731,0.00110793480126633
0.0207939495475629,-0.00952281154646269,-0.00841254489159542,0.00102840240236433
0.0246177396607873,-0.00433267862621692,-0.0068955958975461,0.00110200605488517
0.0307196911813402,0.000445949949873212,-0.0039019758154448,0.00115631837129622
0.0389635948219493,0.00319427500252964,-0.00359239630928345,0.000954486509226486
0.0351488437473074,-0.00150418373194781,-0.00478127818054536,0.000320084724339435
0.0238602563682329,-0.00808190145264245,-0.00285919391342638,-0.000305221585848856
0.0185058072977838,-0.00422270849740649,0.00137033304050269,-0.000394681638071481
0.0135975419275728,0.00770317652369524,0.0050630013210616,-0.000186457142450777
0.00289956606244413,0.0138236490344214,0.00665547368802719,9.63793722228676e-06
-0.0062711190482187,0.0027060762323099,0.00580539014766294,0.000296744212407175
-0.00755199579542447,-0.0259099984630038,0.0030013263784863,0.00053435431307002
-0.00462104618982565,-0.0521140170937863,-0.000445611616196759,0.000380093795081385
0.000615286062694526,-0.0596492753407787,-0.00325326349572606,-0.000247801101576038
0.00818412991812074,-0.0546627006139777,-0.00501240148431768,-0.000804667701344868
0.0057827549526781,-0.0488615479459159,-0.0040359117181338,-0.000708015541624999
-0.00703293565439153,-0.0489077488421288,-0.00176764231661319,-0.000152397415220858
-0.00794236431835291,-0.0506190270979443,-0.000469863818123328,0.000185593315265387
0.0017602006867002,-0.0470940872553765,0.000181025849831611,0.000105593187982544
-0.00121361278412216,-0.0418646609247356,-0.00108269927342271,0.00026868483854154
-0.0104220052035602,-0.0277106937043612,-0.00151635710004127,0.00108362321349719
-0.00234376272065357,0.017112478037704,0.00454573960577786,0.00209503129369706
0.0126803711494856,0.0733953961162077,0.0114183900417418,0.00270431415834832
0.00551559229812382,0.0891721767516777,0.0105070075321216,0.00255271787920633
-0.0229037540023926,0.0615406780915607,0.00529878014866208,0.00162812770188904
-0.0472988668274123,0.0256229108715755,0.00314332863435161,0.000389880516128321
-0.045977561306741,-0.00162192696911517,0.00653107526004345,-0.000583422503762038
-0.0167845276202834,-0.0170959097678026,0.0118451231161544,-0.00113926722272755
0.0221622968395147,-0.0225450840410434,0.0118522070918489,-0.00143433762690818
0.0522052993848349,-0.0239623120075284,0.00502775882870759,-0.00162839572406835
0.0649973991514609,-0.0227361241502237,-0.00179410923869394,-0.00180854091206921
0.0615291737395173,-0.0160186336675363,-0.00451822916404976,-0.00188008535153231
0.0493560751232637,-0.00724775583184143,-0.0046690963561403,-0.00160902584729583
0.0369782077795192,-0.00449698643118189,-0.0041665759166457,-0.000911332790186477
0.0302316249559513,-0.00267597913746208,-0.000824652464550514,-7.09186035616309e-05
0.0285593338670347,0.00155852445473994,0.007043749217606,0.000450457419518816
0.0251041752791062,-0.00775617532061419,0.0163516054620907,0.000331411007297927
0.0141381653038785,-0.0308291900959694,0.0260453657590108,1.25612002037831e-06
-0.0110841661492725,-0.0469289559027727,0.0310515046169156,0.000218663306213177
-0.0493470028023689,-0.0545106493771019,0.022735012739555,0.00108709588171745
-0.0674065935441761,-0.0633194068085813,0.000709137038473279,0.0018865942843231
-0.0387409122309386,-0.0666977182640875,-0.0200847347545004,0.0016172920739914
0.0138760483560879,-0.0576353019307437,-0.0218413165675758,0.00015982963972673
0.0555102665377001,-0.0390557689604899,-0.00985983763976875,-0.00145033329577705
0.0726439634034508,-0.0168096360403053,-0.00173942817095983,-0.00214700742506561
0.0741332783708567,0.00113573342284232,-0.00132170333400151,-0.0019788809371623
0.0711455189299312,0.0139155415510175,-0.00156704433474754,-0.00168222460705587
0.0659331300813805,0.0304778534161627,0.00164510383163832,-0.00171278423776875
0.0627868808824546,0.0575709358119744,0.00664862926232004,-0.00175790353374937
0.069365002143173,0.087630833305406,0.0104024687981403,-0.00109189097371397
0.0904822944675925,0.108195737850685,0.0129067469545568,0.00028013046638067
0.10092864228791,0.107821262063793,0.0132389148394299,0.00153780420884311
0.0421008959708415,0.0699280213667856,0.0109517661418688,0.00210526911056695
-0.0755002969322594,0.0100101012734014,0.00822026847756167,0.002384927769933
-0.147093561950729,-0.0162283445062755,0.00254264477924688,0.00302587515538578
-0.130852191026475,0.00180382288902185,-0.00615296804927428,0.00360087495183987
-0.0872430821967446,0.0103984037815799,-0.0115455983363159,0.00329180545750171
-0.0571684379519607,-0.01386315455142,-0.0107842530964409,0.00199392532136653
-0.0299800899359607,-0.0384254529560668,-0.0082695771776486,0.000108711083192266
-0.000181137988513019,-0.0400390201620017,-0.00776349055355263,-0.00139387605109784
0.0196973561109427,-0.026646535991051,-0.00558530384706475,-0.00187727098647893
0.0254367846713672,-0.0114309766406945,0.00012531898891032,-0.00166487453397278
0.0265212114499479,-0.000653730334514584,0.00328056588056246,-0.00108458027474686
0.0285078775469966,0.004054062048328,0.000662753991664332,-0.000593830211721873
0.0283809715782784,0.00521396072324644,-0.000971005171422307,-0.000646247477133413
0.0239163666614302,0.00850947626517752,0.00115922200945323,-0.000849638157409776
0.0182166024669122,0.0149050394493466,0.000287803653281723,-0.000535650045661686
0.0136765898607354,0.0211517167034606,-0.00251071837612884,0.00031136117616003
0.00866058579878205,0.0261032585432896,-0.0033893848799957,0.00107288960682194
0.0024055108780616,0.0294411233381188,-0.00439841259899649,0.00141043388883815
-0.00511463032459431,0.0300853744220997,-0.00489394721130777,0.00139947204928035
-0.0111774362428507,0.0295942814802102,-0.00270578535476402,0.00123964945761057
-0.013893781414703,0.030004092125602,0.000779975847168793,0.00128405785758642
-0.0173593571672991,0.0288387214462182,0.000848274987751465,0.00147688530514515
-0.0236476725040726,0.0251535532736735,-0.00145222157737196,0.00149438035742884
-0.0319088052973712,0.0217628679157409,-0.00184388820525432,0.00137355383171634
-0.0409659390468347,0.0205879609140269,-0.00294426624122878,0.00111181610411969
-0.0459015826622802,0.0215568475299872,-0.00801784351287737,0.000654722382673323
-0.0462725203342931,0.0228916825514572,-0.0136494669232694,0.000290246785533785
-0.0465317516818885,0.0225964672457099,-0.0140295287741602,2.06559577232968e-05
-0.0456187323122123,0.0224404286774068,-0.0102190368794798,-0.000128765911367285
-0.0423335412192565,0.0233552758697405,-0.00747467783059163,0.000148594691894373
-0.0378994641447732,0.0232543906814872,-0.00498278427738945,0.000529812180434558
-0.0326537937122483,0.0223139569941726,-0.00146499688299102,0.000450626925788465
-0.0280440992163572,0.0186485496908248,-0.00394534996255004,3.23698674300132e-05
-0.0239019418193879,0.0106140938926342,-0.0130413788786844,-0.000490688603649887
-0.0187987878480272,0.00284642568471945,-0.0177073163289538,-0.0011074073387483
-0.0147063931150974,-0.000377496595115673,-0.0154594928167339,-0.00142313321379868
-0.0152681116684963,-0.00219952213721381,-0.0125383072554644,-0.00124318169107935
-0.0197573918421505,-0.00533075775589852,-0.00840626707849845,-0.00096500916865557
-0.0235187806167141,-0.00909097932723537,-0.00084899071295718,-0.000733710496503252
-0.0192118942777454,-0.0136468216913003,0.00494923906133063,-0.000491641136278039
-0.00600067705961058,-0.013016103107132,0.00693080380876479,-0.000385512629069215
0.00819600738160647,-0.00816490573211205,0.00740406923043052,-0.000321138805299353
0.0191099700995595,-0.00792731494650477,0.00522280972754264,-0.000185368070171852
0.0240589031496967,-0.00676034599128985,0.00285005684753355,-0.000247996033775852
0.0197210162225075,-0.00283694147256192,0.0028674212678459,-0.000411309707961572
0.00821224721177507,-0.00832201481082141,0.00322633911232652,-0.000612757837326845
-0.00121457037005688,-0.0233690753819021,0.00843083529950873,-0.00118344522173804
-0.00424897766261132,-0.0318284436704243,0.0170509861466687,-0.00157696845220093
-0.00502013750907001,-0.0248464860296481,0.0165004706321805,-0.000944929733404918
-0.0111016251609173,-0.012052991572195,0.0102158742710034,0.000376254145898312
-0.0243196819197401,-0.00397827224145986,0.00589107963658961,0.00138332124712664
-0.0335546656046251,-0.0017068196864724,-0.000910728762172748,0.00150372176048525
-0.0318269169445951,-0.00362826180708235,-0.00876742593637286,0.000879872160280133
-0.0261131293314023,-0.00690677773776043,-0.0120459324605095,0.000161634373890732
-0.0244957904721076,-0.00894354832246418,-0.00992159624100813,-0.000379470562033632
-0.0225921281690823,-0.0096346995005233,-0.0052121909521593,-0.000856327854763315
-0.0149603426124907,-0.00795842810813982,-3.35174350051268e-05,-0.00115567649203987
-0.00371800166673493,-0.00320591368906267,0.00535012391866171,-0.00120961514646489
0.0137531672468934,5.37273403663635e-05,0.0088832934419927,-0.00108144128988411
0.0369633466260592,-0.00105513502483614,0.00926406137691597,-0.000984907193731495
0.0512828048071219,-0.00393446038219362,0.00876855500944198,-0.00116043244467871
0.0402068875969516,-0.0109179322184103,0.00931478465249486,-0.00145331159887174
0.0110862985851308,-0.0228496836220126,0.00987877020999233,-0.00156037459762589
-0.00853657460765201,-0.0292710494690214,0.00960487334716947,-0.00137259750241564
-0.0106819168284606,-0.0232395675137809,0.00888903192429297,-0.000829708888005516
-0.00573545737362792,-0.0128003098152853,0.00978725202267484,-0.000102612121052342
0.000316316118099167,-0.00723539771488233,0.0128442781925663,0.000426787702240258
0.00440194885652809,-0.00615335572875938,0.0154377983314079,0.000562287447251536
0.00572080024346647,-0.00588750786974931,0.0162498287540094,0.000511866570752783
0.00689741780502977,-0.00606619337922948,0.015381387078276,0.000675838838610976
0.00728905426881951,-0.00825396071301925,0.015159459730286,0.00116131244059035
0.00539129007228995,-0.00919196426973685,0.0153611988402106,0.00169145981524488
0.00494755022661103,-0.00748077093157585,0.0131267562213332,0.00174757127603429
0.00744258452592883,-0.00741176601042011,0.011366044942494,0.00112535059126238
0.00981286278005976,-0.00832025856872115,0.0128035503063938,0.00019649844954427
0.00880493540051443,-0.00658065868510243,0.0158513423744568,-0.000687204227363028
0.00573162270720441,-0.00243746855798094,0.0159399354194068,-0.00141033851526381
0.0063227207892026,0.000184173834108941,0.0103388967062327,-0.00188774963636481
0.00982963330979528,-0.00273166096125705,0.00430212650058786,-0.00193976685570959
0.00942250617845066,-0.00831213940740412,0.000463032112990045,-0.00149966912437554
0.00552542948265116,-0.012066537105465,-0.00422692074625955,-0.000941981678767132
0.00309005270725644,-0.0124785277606759,-0.00645589455998748,-0.000400708900324025
0.00216233419475553,-0.0105469612536331,-0.00372705287812079,0.000169845124136827
-0.000309511544049776,-0.014195628147263,-0.00161595685287718,0.000205723589215392
-0.0058465902215856,-0.0284216278148568,-0.00448369249038305,-0.000296125470147101
-0.0120770055988164,-0.0426600709225687,-0.0112046544479986,-0.000659319279103225
-0.00983033104578839,-0.0460288636495329,-0.0181836247697713,-0.000727590368257534
0.00683883448747776,-0.0438307124738851,-0.0232507166134649,-0.000569787107694343
0.0331301841779614,-0.0431738022388738,-0.0242517162012329,-9.17266152344438e-05
0.0548759229827096,-0.0408873078950731,-0.0186916107214934,0.000573923307525434
0.0571735181743788,-0.0364796426553871,-0.00922742309507529,0.000882195258881162
0.0463945021312461,-0.0293626077662652,0.00165431966634579,0.000581174884673661
0.0397506452460695,-0.0116795339134883,0.0154326211906367,0.000193331578362111
0.0431252258216593,0.009443899306569,0.0263867066633523,0.000202503292984248
0.0548446795736607,0.0225191204783546,0.0264873104272019,0.000230233545906161
0.059941715238714,0.0269545493878226,0.0193850092874169,3.39293373891309e-05
0.0270554896684697,0.0181249929294821,0.015028055056348,0.000118967261025564
-0.0569950892773353,-0.000383767002970731,0.0144459262424368,0.000811949883241555
-0.144878289632935,-0.0160935666681729,0.00999854644331238,0.00193570546791671
-0.162999609542848,-0.0250787207463934,0.002279466918283,0.00294984629446627
-0.109886177403625,-0.0260038730322679,-0.00284536787656351,0.00323737589425206
-0.0469510061397276,-0.0178504057365645,-0.00679382830879555,0.00243606432415825
-0.00948379917102513,0.0025761646148517,-0.00892025098854018,0.000765815709909569
0.00950140879909937,0.0277873537768641,-0.00755498024149536,-0.0010438427152095
0.026350841518466,0.0298541716209509,-0.00730331309985142,-0.00239732682500407
0.0533011919303477,0.00867754082641508,-0.00934992959521472,-0.00314520582846112
0.0958611927740163,0.000393037081131989,-0.0084192541207961,-0.00333235641701649
0.130475634794129,0.00924219396171578,-0.00189078949645208,-0.00302460810708571
0.121496537176638,0.0042026726546592,0.00535342037546435,-0.00208729245174804
0.0777919601547839,-0.0220164035100816,0.00832168873297868,-0.000403928191943802
0.0398308397026354,-0.0447630475034742,0.00875273514010109,0.00143643661506361
0.0232102051099323,-0.0450997267646562,0.00933684292633095,0.00261894321278464
0.014302438504593,-0.0309679548438805,0.0100839748910956,0.00283472741890441
0.00267095522397677,-0.0192757312726257,0.01062890983478,0.00229844807026228
-0.0068202933595113,-0.0134220943623204,0.0122001429577568,0.00153985406707002
-0.0074866963156854,-0.00608660599783879,0.014987303281412,0.000921046169863566
-0.00394218435760131,0.00408498688344832,0.0138894960293336,0.000354875512079942
-0.00521446598879313,0.0150401724425342,0.00873740093645262,-5.57296892547204e-05
-0.012856315022516,0.0260896611132816,0.00603443996973148,8.57707298571068e-05
-0.0361555755091088,0.0297140643502908,0.0046772665715853,0.000668540813918234
-0.080566548478712,0.0263237712760345,0.00136451971161269,0.00130051837889307
-0.106880504544206,0.023808460708557,-0.000544574490738873,0.00205967140562625
-0.0773359356863619,0.0181138140484025,0.00067841900262277,0.00298294324149025
-0.0204468493408312,0.0104691511350448,0.00279814408523689,0.00346084813517185
0.0192894790056323,0.00953946627122472,0.00479275574398532,0.00315707804498433
0.037900153063267,0.0132211752670498,0.00456598219467335,0.00247740941114835
0.0472987162491616,0.0183572364810837,-0.000171332371287152,0.00156727219629112
0.0549347334528387,0.0192493832695794,-0.00511978376242717,0.000264259582481986
0.0628847467353745,0.00156484786249684,-0.00774653733874069,-0.0012098905536807
0.0564176643755506,-0.0237352136576045,-0.0091425893476548,-0.00229897378611224
0.0271280963340034,-0.0285077230645605,-0.0089775571915145,-0.00260671227272658
-0.00398097400362005,-0.0190947583297428,-0.00650863389736403,-0.00236415682468579
-0.0209993240878967,-0.0157401644620926,-0.00197887603378042,-0.00183844073298472
-0.0337534290516399,-0.0195621664954935,-0.00180554927863506,-0.0010753734775793
-0.0497642514525942,-0.0316961826587626,-0.00977947769243083,-0.000427353760471239
-0.0616569733602385,-0.0522607518898232,-0.0181423434310993,-0.000134161950723593
-0.0614055552942915,-0.0692020874848758,-0.0202000838792177,-0.000174638360375231
-0.0491315464750248,-0.0737980658054147,-0.0198012552594629,-0.00053749935959523
-0.0314236939290243,-0.0554172953453764,-0.0200436425146505,-0.000839472527725444
-0.0106142092475537,-0.00064091718263691,-0.0172214243443443,-0.000676940056795398
0.0158915923313538,0.0604508533923146,-0.0123558769381421,-0.000268897089475585
0.0415267281977913,0.0719643255916653,-0.0122030346963335,0.000188588681975214
0.0592413301251416,0.0349081302928323,-0.016017948600301,0.000711468037960803
0.0753425021430524,-0.00434038012058981,-0.0156751891275492,0.001072334861007
0.0954596725771063,-0.0226340833449519,-0.00926001499862137,0.00105390845957551
0.109648523904894,-0.0291549200480778,-0.00392268572001354,0.000519172618199527
0.106333462528401,-0.0244192048856262,-0.00109321655758494,-0.000475687388821402
0.0917735501685366,0.00234957044976161,0.00512963435607477,-0.00123560638285477
0.0675627083391301,0.0378201907497952,0.0107085927703282,-0.000638159972431917
0.0289476762053555,0.0535720145265716,0.00689227521681206,0.00123737055804567
-0.00344328734559651,0.0418628596214159,-0.00157635565587144,0.00267373145626614
-0.00211433272618203,0.0173107073830036,-0.00605135378287431,0.00249810034538143
0.00603476547175749,-0.00194097707210057,-0.00699089546932928,0.000840260286125007
-0.0388454459884419,-0.0115841808839063,-0.0070952007635106,-0.00133214722135138
-0.109276124817075,-0.0124380749934466,-0.00725016826343146,-0.00250342930725813
-0.118092664577954,0.0122272533493081,-0.00872306144683528,-0.00230177850156164
-0.0616696775476127,0.050251630709903,-0.00905509269872091,-0.00177591170584825
-0.00851081730413634,0.0599712716395253,-0.00612494514637634,-0.00156996176831349
0.00144594007700988,0.0454390935754854,-0.00263831437043929,-0.00190732012194574
-0.0157899026033199,0.034842724077981,-5.59720399169322e-05,-0.00301410211193425
-0.0314676387545178,0.0323117526016652,0.00157796059895855,-0.00423206327922222
-0.0306595027792841,0.0303319282399738,0.00143386860295891,-0.00427040291695399
-0.00690242592285363,0.0255722592802708,-0.00269434565556234,-0.00285761251936523
0.0276803008688262,0.0164304155506338,-0.00899046563800932,-0.00112649355455449
0.0541833750239376,0.00602293598551663,-0.0159381773821152,-0.000127754683225314
0.0615661591264557,0.0125224967864661,-0.0208720692899224,7.48838926474598e-05
0.0505936515484827,0.0362598620354236,-0.0170851464164032,0.00019041390800577
0.0372276387736681,0.049656525962818,-0.00973551233613913,0.000839163691503756
0.0264328365783494,0.0420485507492528,-0.00873169691011933,0.00175478440888948
0.0144233898108817,0.0276664612779856,-0.0103875236449488,0.00238504236834744
0.0115330728112218,0.0293318713564757,-0.0066215413647416,0.00232543289622136
0.020117896578106,0.0566182169800796,0.0014574311859059,0.00162656347012416
0.0271271693194319,0.0890785481005282,0.0070899932051512,0.00106060450524125
0.0291721148884101,0.102576618962154,0.00889246234656844,0.000958474240619372
0.0332562314520854,0.0973916350944184,0.0170029806242661,0.000894894337924265
0.0400281983145984,0.0827924029724958,0.0286942777166169,0.000484773015476765
0.0342563140946507,0.0581484708758054,0.0238084266597426,-0.000392490366078957
0.00191613894728793,0.0240052632017208,0.00413749842869978,-0.00167052229668978
-0.0394522188819865,-0.0131272339639292,-0.0117949638801631,-0.00300402967978144
-0.0664818319463315,-0.0476069757771591,-0.0185595032848298,-0.00372888367535615
-0.093064607410572,-0.0796616198793132,-0.0232922092798619,-0.00351075758614122
-0.13558451675144,-0.11112251476436,-0.0319127295850492,-0.00255021374643852
-0.170753683042175,-0.127624215485308,-0.0366508575301494,-0.00114303995778962
-0.163419982334669,-0.112985771925645,-0.0290093926910996,0.00046556072470983
-0.121926009468254,-0.0796115867159367,-0.0135306017952808,0.0021792412443821
-0.0828211113916437,-0.0593611722977127,0.00532631441423707,0.00392346681742619
-0.0558160628701138,-0.0697321484269574,0.0221048666781776,0.00521470710224129
-0.0330561233789133,-0.0840898097831536,0.0282502841292688,0.00516406265195137
-0.00894119687186834,-0.0738738896680686,0.0256817911354913,0.00335446058195561
0.0242606267707488,-0.0577705712272031,0.0175539361015694,0.000261764730874687
0.0620673862879999,-0.0371351686730894,0.00610205065601879,-0.00320205502690152
0.0788018387767377,0.0133287815532638,-0.000131655857514568,-0.00552507047152126
0.054669122169547,0.0702068878556959,0.000260352208773094,-0.00464560316238795
0.00565393052325978,0.0837244240007899,-0.000615538070641176,-0.000296302835783703
-0.0366458212086959,0.0489267531199515,-0.00627013147431165,0.00457080574445039
-0.0590155736550878,-0.00779420228380658,-0.0137608186018737,0.00651979805956571
-0.0584885461799959,-0.0633122172040328,-0.0170959619524011,0.00496593313037592
-0.0376142752178475,-0.0879820573874374,-0.0123270434547154,0.00197915927033403
-0.0127096944621544,-0.0836440779157716,-0.00516680231646945,-0.000527665406548657
0.0164318617963163,-0.0884155818363843,-0.00464531386490326,-0.00214134792278033
0.0619078216850075,-0.112861207655063,-0.00846776592352827,-0.00329692854017062
0.0979227773377576,-0.136325851518223,-0.00726194188607925,-0.00416373055274568
0.096694642223193,-0.14148509689134,-0.00293582266057631,-0.00410034239212457
0.0778968724986112,-0.134741155414832,-0.0032842080855459,-0.00260947888595163
0.0627593872507939,-0.113369844182321,-0.00550990641757558,1.41546433435327e-05
0.0411830334592047,-0.0556789394233267,-0.0048941553730242,0.00287871113340628
0.0135721981158581,0.00823903699166424,-0.00310816727215876,0.00479654232872315
-0.000254169390874068,0.022751550116147,0.00124946648471602,0.00539122506707875
0.00522622297529704,-0.00288775156281963,0.00778419251648354,0.00509183317282572
0.00933376431465532,-0.0201817015398577,0.0129248236124286,0.00391239358671699
-0.0214975147087479,-0.00921568346956423,0.0156350904972917,0.00190381719936626
-0.0872925109745011,0.0167576110448838,0.0112182704967037,-9.62970446456331e-05
-0.13273914698599,0.0444179939151531,-0.00102001414728245,-0.00148358497646047
-0.110289160486731,0.0682844053734196,-0.0092641218591934,-0.00247208359133161
-0.0427680490248625,0.0798855910710799,-0.00463113446089047,-0.00306789652729069
0.0130143421800655,0.0704336573047206,0.0067474573218063,-0.00283113300300529
0.0387249248694955,0.0463384948157827,0.0177117726412894,-0.00175658180870939
0.0432545882022461,0.0255167655814163,0.0302194857130511,-0.000655601468569219
0.025977632863919,0.0120249514867778,0.0417131480353809,-0.000141287986631022
0.0111432063765239,0.0110693021114802,0.0429324069341599,0.000156409374619723
0.0296063549633402,0.0259643530984954,0.03372575808332,0.000866796002571972
0.0566431296481193,0.0282666009856727,0.0207086066427744,0.00220234928733203
0.0603576180292535,0.00661981180014802,0.00521756093594224,0.00437013156348047
0.0469397677051507,-0.0038286521410686,-0.0093118597343058,0.00727294036301261
0.0331860910954589,0.012686763945206,-0.0168240933514818,0.00878188855643124
0.0289223848415878,0.0331670003047379,-0.018809329889134,0.00602858488622304
0.0338770277898512,0.051333638383146,-0.0172066711875286,-0.000562070812903782
0.0379638719911985,0.0892871356582098,-0.0110805310884412,-0.00700781270044804
0.0213654010554768,0.144820309655353,-0.00152194872959053,-0.00991288582789818
-0.0172953037211389,0.16473279693225,0.00847838396260352,-0.00881318436140351
-0.0469807759523679,0.127152399251419,0.0142210910100194,-0.00548632189857369
-0.0509679733897981,0.084537266234159,0.0148745447089495,-0.00265661080548561
-0.0445648164112411,0.0661518571330346,0.0134263632997039,-0.00222082983156105
-0.0472551127567025,0.0549145264669235,0.0112758949163146,-0.00373416160139591
-0.0564525530340408,0.0456768248825475,0.00977644467410867,-0.00483206105619095
-0.05287948273851,0.0430740245704803,0.00916957899435025,-0.00372335313226442
-0.0370769582421047,0.0435420391165584,0.00920461653725907,-0.000567975256672491
-0.0264697309372413,0.0426327140219962,0.00957142742614454,0.00314105667227531
-0.0249367114408819,0.0403646660043193,0.0107415796952364,0.00604205314938533
-0.026209914150088,0.0371733404843914,0.0127167366264656,0.00749349132305831
-0.0266237075055854,0.0343424905823694,0.0125086051635994,0.0072419019739765
-0.0249143250571813,0.0336914801665913,0.010405427817468,0.00565883773342034
-0.022800760736607,0.0336294171105515,0.00864428518413751,0.00325737319628523
-0.0220722780612269,0.0307382329227485,0.00730577286136301,0.000445967641389097
-0.0207160587307291,0.0266448147949962,0.00759093052639216,-0.00190290215747483
-0.0180610910698437,0.0247132106276722,0.00884251677938904,-0.00315106066025945
-0.0175956415262173,0.0230504226682896,0.00868398019013532,-0.00360724357661621
-0.0200904379254248,0.0209672641860015,0.0078875134953554,-0.00368771871199353
-0.0210696123512605,0.0197687245386002,0.00758644747820376,-0.00352037172531881
-0.0184050803381547,0.0191699951217844,0.00719717994847251,-0.00327083237848652
-0.0148178331099042,0.0196050782279734,0.00591152517135296,-0.00311720515659664
-0.0117321131138224,0.0203728043333887,0.00422754324766102,-0.00311708285459161
-0.00996972072440843,0.0204602870026132,0.00335988651145218,-0.00298436338688765
-0.00977923910852274,0.0206975034219331,0.00330473730550639,-0.00233256832846016
-0.00953826745831957,0.0204724813285941,0.00277752345073312,-0.00130666906567339
-0.00870301189196571,0.0176891623932402,0.00211555607190392,-0.000379697897016831
-0.00647753162423507,0.0130463919706658,0.00166093041509034,5.48765242320965e-05
-0.00369732915309634,0.00994337450806191,0.00170664916495592,-0.000103002263528009
-0.00103173808481664,0.00693649355062744,0.00248927467188097,-0.000441902536400694
0.000734478764613476,0.00117980003039901,-0.000219507664860109,-0.000820115816342642
-0.000360091801646381,-0.00463379799613412,-0.00461470590806445,-0.0014501908667746
-0.00262580156270667,-0.00676374757855669,-0.00466302910342771,-0.0019017200915052
-0.00295159159035786,-0.00593210471251211,-0.00420914581869992,-0.00159621359309165
-0.00177737261618955,-0.00596648047454342,-0.00486946362684487,-0.000730438389940877
-0.00198122533273651,-0.00580176729220746,-0.00466970399746119,0.000166206504302808
-0.00216605981875756,-0.0050644157161558,-0.00535470275737537,0.000853187779861143
-0.000326393319573092,-0.00433875181427568,-0.00534679347687797,0.00127843644665992
0.00218034890738361,0.000649180668137064,-0.00307990022084402,0.00136801883644771
0.00293150837263304,0.00714449721202205,-0.000149634877120279,0.00136585840974749
0.00108705148306845,0.00827019326669913,0.000348503208392715,0.00156454922083021
-0.000467381553614926,0.0053754285574518,-0.00169826321591406,0.00158267803643927
-0.000677091955599062,0.00235104219897468,-0.00255423980392846,0.00116910512605002
5.9875682135474e-05,-0.000332651865781661,-0.00223715452502557,0.000713409816338606
0.00303154841420377,-0.00252384776709486,-0.00216531033415783,0.000363829073028957
0.00707056693581919,-0.00379900672705506,-0.000941344780604874,5.68806671331253e-05
0.00879792160236716,-0.00336875180553477,0.000459194227917887,-0.000150820488797358
0.00890450034694183,-0.00112957031289928,-0.000288302690010241,-0.000428608935929716
0.00888020539520232,0.000709771904800195,-0.00287026564247345,-0.000857147770110036
0.00633580476533991,0.00269707179977436,-0.00570278485568722,-0.00105919170567817
0.00280883802949776,0.00470334276917659,-0.0070395636682539,-0.000651145626489522
0.00175524191036774,0.00449457740414839,-0.00681012548939305,3.45145198322498e-05
0.00248764664614631,0.00342854242974244,-0.0065962587286475,0.000297797109455424
0.00347382947965085,0.00218548450685055,-0.00789422267102998,7.72804066275906e-05
0.0013370410715223,-0.000287923977119316,-0.00994971540657185,-0.000194940334019817
-0.00411763806391175,-0.00233852053005562,-0.0107101261668349,-0.000248141065344827
-0.00441768408752065,-0.00141499455379371,-0.0102026439666126,-0.000104263392751118
0.0033535553222391,0.00228298906625254,-0.00795708955560746,0.000151042723303971
0.0123507860990962,0.00871352961979627,-0.00639353425518473,0.000488818433967954
0.0191444045892737,0.0163640556176242,-0.00801473902692031,0.000815264296981097
0.0243793540466402,0.0186423134628705,-0.00769014375320773,0.00112823212856962
0.0274146565527604,0.0126246208837034,-0.00366994425814979,0.00184955116731091
0.0255839824004113,0.000331972483201319,0.00017702464553665,0.00282819995860129
0.0178675061805234,-0.0187975651723209,0.000171824161656023,0.00296645219718019
0.00230765605910237,-0.0394703591347237,-0.00426164657462142,0.00193026363938144
-0.0186094844571422,-0.0527607829311054,-0.00990402323568795,0.00051199195526854
-0.0306971885106245,-0.0659748634751363,-0.0142496487620422,-0.000481906849265588
-0.0320779689123291,-0.0827683580300288,-0.0151974356910831,-0.000729992045206978
-0.0351348653305753,-0.0890377731262319,-0.0144201974396015,-0.000321227676625422
-0.0408204680466928,-0.0795481320412396,-0.0157826446714616,0.000481829515405755
-0.0427961227039459,-0.061506449979066,-0.0170845917142607,0.00119337035300696
-0.0383757827912464,-0.0467465636003986,-0.0153280520154742,0.00136055974870597
-0.0285099149830884,-0.0421772831265378,-0.0129601685762837,0.00106435224695525
-0.0106553819391653,-0.0313969596410114,-0.00926731522811582,0.000710669929764067
0.0240518212284522,0.0159095958731943,-9.10538779790668e-05,0.000560109194516883
0.0668545842699864,0.0921360391058426,0.00929900716954,0.000525558756563363
0.0877723813268711,0.137657901748226,0.0108864862743807,0.000383074207546177
0.0712864421240902,0.121742929503731,0.005580767699967,0.000243602622712536
0.0372536910485593,0.0800298583287358,-0.000219027045624175,0.000225311001720908
0.0170461051771772,0.0434305116524126,-0.00150067391435828,4.73448488854263e-05
0.00933548743768935,0.0028000239951735,-0.00212473446053125,-0.000283381261184449
-0.0122555619742262,-0.044117091957184,-0.00659270747868333,-0.000696437072525084
-0.0469839878180914,-0.0767698136449209,-0.010414763949304,-0.00117536739014209
-0.0665406219375065,-0.0902316854380663,-0.0112894901613974,-0.00114502575451021
-0.0600259980412416,-0.0944608965684003,-0.0101334401317543,-0.000283815427605969
-0.0404332316252817,-0.0944394706516093,-0.00773278484353705,0.000759779758964669
-0.0209033369438646,-0.0936557028609527,-0.00796058560021723,0.0012275189604142
-0.00703578005748551,-0.0845044148940976,-0.00978872291005699,0.00122135848986649
0.00514881348406859,-0.0533293979684031,-0.00550160267125866,0.00144066223257951
0.0190989573283607,-0.0120203968690281,0.00420313459825638,0.00250854052391846
0.028478208035054,0.0178998002601089,0.00707300950562099,0.00410272400144417
0.0256566044108118,0.0484189466966146,0.000521674749179865,0.00480221151696609
0.0145034441177235,0.0886388589077626,-0.00468566955959157,0.00381608713295511
0.00899462373907819,0.108937252999077,-0.00276689833052403,0.0016693478938114
0.010488438660727,0.0919533042365202,0.000752452782261456,-0.0010226864130532
0.00799494467328516,0.0583992646106215,0.000246712145870776,-0.00362835045192911
0.0118823676225454,0.0286586739219288,-0.00342442401063248,-0.00508753365831731
0.0377863023898381,0.00738647288662196,-0.00723082350089063,-0.00503974826310672
0.0678534310006011,-0.00260546346065132,-0.00894211713452567,-0.00418723117276167
0.0833301075521875,-0.00607868895748447,-0.00947758694797289,-0.00303080527479654
0.0814176637104781,-0.0113443227463402,-0.0109502357877915,-0.00140612255483967
0.0613376889086435,-0.013518766678002,-0.013331878932385,0.000649124579953011
0.033702620031969,-0.0109375271678594,-0.014231474837007,0.00227217669596029
0.0123791147945558,-0.0119706571838989,-0.0128583820225149,0.00269975896257024
0.0123906439447463,-0.0170458440085447,-0.0121490553599457,0.00234826356308144
0.0463582521488031,-0.0225483129470226,-0.0108899704410117,0.00190677771018517
0.076760450127824,-0.025605016013403,-0.00833578091322604,0.00136242980355323
0.0281915709662632,-0.028438490426539,-0.010212285462587,0.000892265286429468
-0.0973000961281793,-0.0195125027945408,-0.00967000482784033,0.00115400218042284
-0.18761281514743,0.0103753347729279,0.000767045542974742,0.00225314696484381
-0.165005144423458,0.0169704447672939,0.00969786933273457,0.00353444985316806
-0.0709912994252099,-0.0204921127624488,0.00897888048647453,0.00403785309946572
0.0224219592050373,-0.0513066005661387,0.00332674152380546,0.0027660496471031
0.0977578361454834,-0.0447134395670233,-0.00361635067064806,-0.000219316409425622
0.167370160570347,-0.0124425866530298,-0.0154617293375494,-0.00327713659162709
0.204648001001796,0.024245565856103,-0.0331445208405762,-0.005117584293181
0.175184076216271,0.0492792219203208,-0.0438839898051674,-0.0060149417225588
0.105987813516323,0.0595684985490993,-0.0368607865876054,-0.00603150700969886
0.0436609145423942,0.0681444806241105,-0.0209284491497823,-0.00433917992320247
-0.00489585269497742,0.0868437286026287,-0.00999765287561777,-0.000934552660334997
-0.0432822876990229,0.0880117909820515,-0.00872869781990777,0.0027253498621122
-0.0573638602415948,0.0569139086435662,-0.0119803072240339,0.00448674366251051
-0.0425529958428923,0.0287084502642574,-0.0145816466058321,0.00330884841543111
-0.0195730201101265,0.0200809867331297,-0.0182771310252294,0.000627548127892125
-0.0176250287441064,0.00601984928771973,-0.021243864787888,-0.000763475845589963
-0.0465671149895502,-0.0211478782389786,-0.0131527583877301,0.00147676205911071
-0.0758931751029777,-0.0301908895586192,0.0107534044304873,0.00705386809018304
-0.0621733709126657,-0.0232776299221841,0.0360477879307623,0.0114583581176029
-0.0108991167907736,-0.0427384872049704,0.0454192022721256,0.010095828222698
0.0286049624536178,-0.0881384220607855,0.0418403964796684,0.00406166110656907
0.032379484782165,-0.117575426456188,0.0338377339584623,-0.00189289637244779
0.0173054853463993,-0.103935948901291,0.0209569072201276,-0.00531743060559208
0.00488431804052569,-0.0600052816673528,0.00585067170011568,-0.00673431489395193
0.00134922615310638,-0.0197611901569995,-0.00622474827823798,-0.00691552442774973
0.00233008265075826,0.00156397394609226,-0.0136132174336251,-0.00632574932987936
0.00264370161398608,0.00910270900436641,-0.0152883063676381,-0.00530267995680153
-0.00211966971819914,0.0141334848618933,-0.0127788624852405,-0.00375072391261038
-0.0135711478938482,0.0261441179036852,-0.00922939672971963,-0.00159635203897077
-0.0259171928569288,0.0373328309042671,-0.0039237973481761,0.000834768045264027
-0.0302011467692154,0.0370696706045454,0.00241308008129172,0.002870835333456
-0.0223535664595232,0.0345903165491251,0.00828512946335473,0.00378286628439504
-0.00759582838217165,0.0383658532133518,0.0167901194182558,0.00361654602931363
0.00234007465976054,0.0380473087765311,0.0251996607567478,0.00285783937683174
0.0108110562784484,0.0286728669774545,0.0286408798364483,0.001805062937062
0.0282311809670079,0.0191190299710464,0.0278534023946829,0.00112350431946367
0.0400781865268115,0.00829398180379586,0.0243440192963476,0.00105756055576111
0.0338705572168091,-0.00680070228673991,0.0209430574356493,0.0010821214586899
0.0215764573603689,-0.0156807703235476,0.0182265639089149,0.00105766108352832
0.0146331913562812,-0.0137129583294451,0.0149292949757657,0.000993194828436648
0.0131209521046384,-0.00799298286428177,0.0099727706935062,0.000517631182985183
0.013271762988384,-0.00301624318188503,0.0031648225717644,-0.000453974618762852
0.00900481071393405,-0.00277875115258731,-0.00434448596007127,-0.00168244173457356
-0.00520132882755626,-0.00625339017388714,-0.00976031768745628,-0.0030094116238282
-0.0188991814669604,-0.00638488111412404,-0.007793390552668,-0.00403231917719091
-0.0228651506954188,-0.00271464927511518,-0.00148940127034739,-0.00416750329806525
-0.0252591701429938,0.00439354840868651,0.000615683042416396,-0.00330723534582656
-0.0321320169907372,0.0176140296875464,-0.00073635347581889,-0.00214469612243195
-0.0365017210283865,0.0219357049949806,0.00178802302462438,-0.00143834654309709
-0.0271265920699778,-0.00319421483593877,0.0112578941399842,-0.00119127272725217
-0.00621904671915228,-0.0446510303896163,0.0214793068423919,-0.000961284991567806
0.0136254969843241,-0.0725308873085456,0.0251378382741707,-0.000648571222569698
0.0241994717534006,-0.0733524073438659,0.020711815010986,-0.000572135946297273
0.0242835633024719,-0.0512281900285093,0.0161893380619658,-0.000704420758701035
0.019686862602733,-0.0263919052305475,0.0209837521135827,-0.000542452763640395
0.0167277655505926,-0.0200450442018612,0.0275785442791467,0.00011932782905386
0.0148651069628155,-0.0265068015494646,0.0243086455193321,0.000796467972583509
0.0105445163347026,-0.0247340561855876,0.0123654609040824,0.000548886530194614
0.00550414503348814,-0.0109064675203722,0.000136986969462752,-0.00104745940749245
0.00469095137313824,0.00431697180316283,-0.00442247426820408,-0.00310655215066654
0.00561271957974829,0.0076387910295119,-0.00395653062184546,-0.00446285681719843
0.00183044060576903,-0.00361061947142761,-0.00744771439977823,-0.00493766587969113
-0.00677624875426314,-0.0146190321009813,-0.0124733118418533,-0.005118282785774
-0.0146303423497181,-0.016184683579687,-0.0131753970587238,-0.00511771139502162
-0.0185594722612138,-0.0151312460004835,-0.0116487340403414,-0.00425067945922455
-0.0183826826597341,-0.0171974676960938,-0.00950686615111818,-0.0021748105741345
-0.0132984983859474,-0.0169762492534375,-0.00592964008435698,0.000525953141013455
-0.0068082726576756,-0.0128959961660025,-0.00108112418947698,0.00283590023501034
-0.00471937500627127,-0.010882047183116,0.00346794900837663,0.00414835006665012
-0.00400641064711957,-0.0141313651141781,0.00484319594550042,0.00438626299206976
0.00591029849181705,-0.0203675044735679,0.00328687478074789,0.00378036013764356
0.0268596593095713,-0.0247928877121611,0.000267579865008937,0.00269979509522317
0.0397389020279752,-0.021890162578505,-0.00441954288189031,0.00140193421755986
0.0344461859890173,-0.00683553161489578,-0.00812971837284071,-9.6294995195108e-05
0.0247469514533464,0.011258025783841,-0.00890805765744671,-0.00153199242952805
0.0129294551431474,0.0174776654425615,-0.00880879407715658,-0.00224927933543267
-0.00630783408177715,0.0149650337907988,-0.0077782442288026,-0.00232526474219058
-0.0230906475791955,0.013207554274762,-0.00357018296461881,-0.00215164139305325
-0.030415197606826,0.00982753513237614,0.00360130963498282,-0.00162427566061675
-0.0372098957085833,-0.00819177287356242,0.00943744022396454,-0.000766039636579435
-0.0622758878812284,-0.0467791377009322,0.00820841735941365,8.39921384921352e-05
-0.103833348350285,-0.083231188534084,0.00481923861697317,0.000909289153677027
-0.11820806418793,-0.0931010556256711,0.00966215409797687,0.00224546598898844
-0.0711907436757757,-0.0745006398709118,0.0156597245924559,0.00375900825224695
0.0124278565695182,-0.0428145134168925,0.0129754638287741,0.00393386043429894
0.0694384439955658,-0.021490084321831,0.0117073874302573,0.00221798902458741
0.0766461584989345,-0.0186633691689869,0.0162969093022238,5.79502720059015e-06
0.0568645362752296,-0.0246904548604895,0.0155066747638602,-0.00100810255311664
0.0230056433733517,-0.0265295252515466,0.00794684496420901,-0.000554550036179792
-0.00692282119916763,-0.00994310004918061,0.00313782538576615,0.000591711977125016
-0.0107583204365812,0.0237253271158969,0.00574700527290005,0.00189633555390838
0.00634896727949768,0.0448710042118917,0.00919849671442096,0.00308683448277645
0.0154502323901129,0.0330512953248459,0.00485865393347093,0.00359318628143503
-0.00665535224102548,0.00129571738798274,-0.00416426451827793,0.00299726805812402
-0.0388208996646063,-0.0250465510877347,-0.00942907600402099,0.0015048656604984
-0.0335734292430262,-0.0265128543098615,-0.00906310803044105,-0.000229534588955487
0.0113414825788832,-0.0117396017226005,-0.00607645394264045,-0.00159407197004061
0.0481365714823749,-0.0171326797659143,-0.00278106680372249,-0.00208461928023191
0.0510530884555957,-0.0439574873719418,0.000564142563391976,-0.00146156256471205
0.0378383874775039,-0.0540712024093367,0.00419462612105335,-0.000429282327070175
0.0271998741251399,-0.0415162955315088,0.00736343933547299,0.000209790237132515
0.0203174077470707,-0.0303214803716674,0.00683076440508538,0.000518538487128217
0.0139460456563844,-0.0256916565960512,0.0034198056643937,0.000590567078791935
0.00584083411497986,-0.019420298820554,0.00211724489149484,0.000136044769958536
-0.00256804737086405,-0.00594283131604425,0.00392646542791502,-0.000681399269658486
-0.00726379777135955,0.0266909758768713,0.00991945653101746,-0.00116922727487335
-0.0205155436265792,0.0647804714106544,0.0181693734802724,-0.000573888564886992
-0.0534205008209359,0.0562976185071799,0.0172860787592805,0.00122719697380312
-0.0706435823004865,-0.00773355338161372,0.0044253357556665,0.00315980922414398
-0.041343796283039,-0.0673703176307196,-0.00576016978394926,0.00417374437377597
-0.000249438330573934,-0.0807593743409046,-0.00416905887752279,0.00417607006563574
0.0215495501611989,-0.0680556833243099,0.00228285233894222,0.00345014797189699
0.0281849960785778,-0.0584528544494198,0.00515400032446768,0.00210112570844354
0.0221928123159088,-0.0551121538234968,0.00482643362559754,0.000317949798171702
0.0082327088315468,-0.0530484699522704,0.00390727051121629,-0.0013956723773564
-0.0069200448615261,-0.0490137102253908,0.00241773927123438,-0.00272597497782069
-0.00872452421966898,-0.0414232047494661,0.000982465308402517,-0.00356096104923686
0.0113784868596829,-0.0269734518168558,-6.9799778159834e-05,-0.0037969617520484
0.0239734375778558,-0.00407497038979037,-0.000476773911932023,-0.0034922099749749
-0.00795709566372357,0.0122469517817869,0.00166335455873951,-0.00278314584194909
-0.0702808584404433,0.00916725076104578,0.0073774778489779,-0.00176027008802067
-0.103923389266424,0.00699823613188529,0.0165950168569844,-0.000483112101547346
-0.0812366538604912,0.0193427544460682,0.0248713736255887,0.000833598116402361
-0.0326733376400845,0.0230619023867487,0.0228749245276246,0.00168451087509766
0.00676172077158008,0.0133054029994066,0.0114005277163549,0.00151766972484771
0.0315907253988637,0.00688917068872942,0.000292837923370069,0.000425104071612636
0.0479232352936579,-0.00153311406480414,-0.00847867245987668,-0.000836059778917561
0.0553935264562289,-0.0140474585439303,-0.0161161668557252,-0.00156633323787219
0.0499395125716729,-0.0206674148684881,-0.0188256890671258,-0.00138452485800173
0.034024827579861,-0.0172947421263453,-0.0163575291079315,-0.000479706747105266
0.0170969537497982,0.00152440179747753,-0.00984957663677304,0.000531917743712521
-0.00301226328928218,0.024070450516432,0.000892028050649359,0.00130695254002874
-0.030100183351308,0.0326919653908637,0.0106094023604417,0.00180521275855302
-0.0465967288479664,0.0336231508401172,0.0148248392910632,0.00196789428949983
-0.0417102915818516,0.0286218947377558,0.0128122355357775,0.00170693345551659
-0.0323153796437624,0.0112227253255351,0.00531368232631072,0.00103711060307844
-0.0312254620359787,-0.00339845177928579,-0.00215785464316602,0.000141635927002759
-0.0319925369731213,-0.00242899172742145,-0.00558577909337705,-0.00092536432988657
-0.0269127975789252,0.00801260391508062,-0.00552898242422541,-0.00206919839792226
-0.0168504783667205,0.019215886685551,-0.0037813194380935,-0.00278820928423666
-0.00849934950006578,0.0277684668015854,-0.000862509751768686,-0.00275904536484424
-0.00625780512253199,0.0352274054286706,0.00350356192734372,-0.00219836901113089
-0.00954799271922378,0.0359400199803416,0.00601776301284109,-0.00151843241858183
-0.0144675072281613,0.0249459485788868,0.0052879200029049,-0.000815098425729309
-0.0155393517179168,0.014716727576344,0.00568454857896409,0.000283695521529214
-0.0105171884344431,0.016412897413437,0.00734334527859221,0.00180321223835769
-0.00283977202158127,0.0197308500354711,0.00664046220918515,0.00360937930511163
0.00273001657237412,0.015018283979383,0.0035343694300689,0.00539912493873127
0.00478918389332454,0.00898006376435453,-0.000383743545919981,0.00498570441914862
0.00587785781831213,0.00697770163187327,-0.00266329576739123,0.000502531106281773
0.00974200228664246,0.00872818129177958,-0.00408937371425218,-0.00591232830522284
0.0140445140684516,0.0149322092809302,-0.00543568246797203,-0.00985308788304542
0.0138625416392525,0.0256890676521655,-0.00399610858100396,-0.00919904358099062
0.0103848491704161,0.0396391721952882,-0.000196571966632159,-0.00535594705965521
0.00741546947567498,0.0468469673393783,0.00266407568751542,-0.000550600747677075
0.00565574408089639,0.0414696262288171,0.00395256708161218,0.00390916795522565
0.00535874471757302,0.0381590187340658,0.00391497152907791,0.00745640139380333
0.00681809224539822,0.0484251239012724,0.00192257782772274,0.00978887102934694
0.00622670129040304,0.0618110750275783,0.000695617402679989,0.0100906649717913
0.00276688253508768,0.0627771527497286,0.000771123101102056,0.00717359679245444
0.00202160938962307,0.0489003064500354,0.00057135849156513,0.00162513083645788
0.00552798578276214,0.0300203235273499,0.00056069452181679,-0.00385051882624246
0.00790839557911689,0.0172817890631246,6.92515738311833e-06,-0.0072022444589507
0.00398141469511366,0.0162559400041423,-0.0010968357678779,-0.00818689493508116
0.0018025401961861,0.0265985834535294,0.000638824879190309,-0.00740674891121306
0.0122247661460975,0.035998286294301,0.00736731727810795,-0.00537136043411866
0.0278246593492931,0.0281527456201841,0.00874953663177734,-0.00253591090297746
0.0348272974789573,0.0126111599293286,-0.00141395755774185,-9.53706986509947e-05
0.0329701368242269,0.0155852586591398,-0.00857582949280969,0.00113128327959094
0.029768903399036,0.0314837142093056,-0.00816197815798354,0.00175930963442098
0.0238437169522432,0.0338710442651252,-0.0124766769317543,0.00228075046450986
0.0167264554119754,0.0222192475777894,-0.0211643416576123,0.00239786743717136
0.0168887564071066,0.0169704439720828,-0.0247064176519875,0.00187039019285827
0.02229987566204,0.0287611906932354,-0.0241461999236551,0.00111406023916086
0.0182045598190891,0.0426838526663774,-0.0241779570008124,0.000802899667028412
0.000243681148617839,0.0357585990405067,-0.0216992749462702,0.00106446209784681
-0.0133958107034669,0.0088230782573618,-0.0142097408250044,0.00170179070105761
-0.0166531942939068,-0.014790647679315,-0.00721924515199283,0.0026251378394636
-0.0173739770540767,-0.0165667914237734,-0.00496465703843328,0.0036492679882637
-0.0154149536372409,0.000131797777725524,-0.00588071352314481,0.0040357960895846
-0.00952403125320285,0.0133418948289498,-0.00411223198647175,0.00302701470736019
0.00610233210218538,0.0101097066823603,0.00173631296180266,0.000830846689067371
0.0234295165195641,0.00231089530049333,0.00525067991526393,-0.00161882688071939
0.0181844117998919,-0.00259167452036948,0.00562694996562408,-0.00320172247156359
-0.00153382766467755,-0.00611039389658345,0.00523221812641891,-0.00336938776483408
-0.00640097458774479,-0.000891647906519084,0.0010886324330348,-0.00271594664348665
0.00464349762566174,0.0180714566757863,-0.0101373396713126,-0.0020044464605071
0.0148194942913733,0.0434198472251705,-0.0232567970743984,-0.00144643272605105
0.0179313913433451,0.0636992882225554,-0.0275963678268456,-0.00100716080044664
0.0156560313752883,0.070698308714471,-0.0214041812355559,-0.000564251568238059
0.0109627881192341,0.0562102418705508,-0.0128702074556767,0.000114604339139552
0.00304378724157284,0.022171006610786,-0.00563879918820249,0.00137372572755775
-0.00986288008169274,-0.0109518688681135,0.00294273472147463,0.00315330318325471
-0.0197434873358166,-0.0269215163893365,0.013751501443766,0.00456252894800577
-0.0218081302499603,-0.0303801281222719,0.0202658055813264,0.00476034345528975
-0.0239736926260322,-0.0336015410113746,0.0151009418888773,0.00360599528784112
-0.0280357994647448,-0.0393350267761906,0.0055895348650007,0.00157674414269002
-0.0290337837630647,-0.0432946377689125,0.00163292845204065,-0.000370367296396587
-0.0253036921754357,-0.0458304224106783,0.00120312471940193,-0.00138032243363096
-0.0155864894426278,-0.0494413391026261,-0.00167529649128852,-0.00149917548594089
-0.00643231412274267,-0.0565277531805186,-0.00933925069881459,-0.00151953585593973
-0.00514181785694148,-0.0665841324080891,-0.0172816033551699,-0.00197614336781506
-0.0075284506110241,-0.0687287547600184,-0.0182868472667104,-0.00294136026474576
-0.00721669828368906,-0.0557182294173593,-0.0127216246652721,-0.00351483907558059
-0.00261084653488617,-0.0366654947647853,-0.00954019980594081,-0.00260189849347827
0.00417540519262173,-0.022670703301788,-0.00995221037137936,-0.000931733801662652
0.00767949129127508,-0.0122803243208146,-0.00765069541812377,0.000255653415370915
0.0057536828254247,0.00952572393890702,-0.000980324046903968,0.000868489843783733
0.00938621941521461,0.0512286009007391,0.00691565548004383,0.00135495468965535
0.0288874787835322,0.0801658770692587,0.0102832801050188,0.00283448579153542
0.0502518089818128,0.0607348542039374,0.00635789595319554,0.00558156833530068
0.0476065296410474,0.0142874772188507,-0.00340667351924776,0.00666953381064582
0.0302651427550491,-0.0216195205976625,-0.0123197400686993,0.00345017689680052
0.0300896879668861,-0.0332088026336202,-0.0121006423420104,-0.00204861183294288
0.044952251804688,-0.0316401954832394,-0.00607312817561918,-0.00572525866248224
0.0523309283802798,-0.0330236918380409,-0.0033917099584352,-0.00604711068631984
0.0467058546897792,-0.0293699537339976,-0.00132335452351771,-0.00405186741388572
0.0335025635519551,-0.0150301308425822,0.00491685897080569,-0.001111490816656
0.0255155354229431,0.00771829387498801,0.011982549577994,0.00169845164978591
0.0286009930368765,0.0319804966191932,0.0142135416655886,0.00332881669450637
0.0150007332930943,0.0320004431105962,0.00784484809778935,0.00323094413919249
-0.0269328268541329,0.00244261922632066,-0.00352375337295002,0.000982285668893236
-0.0668677467252455,-0.0285162216849231,-0.0135329340343804,-0.0044775747223481
-0.0813525030359033,-0.0375085972126806,-0.018720073872181,-0.011993704344312
-0.0706423584099534,-0.0246227884577488,-0.0193554148278672,-0.016888187653071
-0.0427829385466993,-0.00387268457742815,-0.01989265709272,-0.0160416307744811
0.00577774530365008,0.013092305379613,-0.0218860450839318,-0.010790930589937
0.0552413100353476,0.0182338266409184,-0.0218167153471269,-0.00433958180621089
0.0492158819777276,0.00931901365115497,-0.0174534161956635,0.00107952006266226
-0.0117722498063286,-0.00248197712218943,-0.00964755701890031,0.00587058475808889
-0.050620548227184,0.000813262044657437,0.00184196662188717,0.0134382344378767
-0.0266060054637331,0.0207165053655323,0.0143466899346116,0.0256871818891822
0.0220537646442204,0.0408473063157135,0.0173202454269132,0.036578539779889
0.0593354313460834,0.0501464935361179,0.0100475930142242,0.0365201010366109
0.0845273459977082,0.0456938626489394,0.0029862015343212,0.0227132861718261
0.0947533754431659,0.0319782533882784,-0.000705156777383123,0.000592250899220409
0.0820271557770457,0.0253923370103727,-0.00342328903103269,-0.0209810716922846
0.0534860658309397,0.0331750278682796,-0.00508855507669631,-0.0342126272044977
0.0281366284993369,0.0422125625428165,-0.00561067459069084,-0.0358117079928226
0.0186042320412907,0.0455512828582858,-0.00774585795161017,-0.0282662462215466
0.0218623710644758,0.0453050633716057,-0.00839832947461973,-0.0174107045596601
0.0211861404080815,0.0449681289966773,-0.00475643235966601,-0.00779339024998938
0.00883788152574732,0.0535815064536746,-0.0033616078498836,-0.000405736091430988
-0.00751115309194743,0.0603697948701659,-0.00635024038161939,0.00514029276387876
-0.0303707662401941,0.038261677683072,-0.00987832778380573,0.00880987645526251
-0.0655747266073477,-0.00642136614974329,-0.0142653808031519,0.0107283659745755
-0.0996071356635297,-0.0445115070310283,-0.0190349738449641,0.0110895576853231
-0.106764412567443,-0.0650295484289263,-0.0204965636199361,0.0102944318273004
-0.0763811771391046,-0.0714308190323347,-0.0199803232360471,0.00892035498245324
-0.0315781035292461,-0.070663857987996,-0.0190916413002435,0.00708542637522679
-0.00200869823342681,-0.0625788180377661,-0.0167760937304938,0.00509260200323195
0.00294238619630448,-0.0459600305580901,-0.0132113113782993,0.00374525688568986
-0.0119868317052748,-0.0306237466193671,-0.00804231607108901,0.00326253643632369
-0.0215381750422664,-0.0182394345839597,-0.001100394111207,0.0029065446637562
0.00190583883337244,0.00765162486679687,0.0106460199715417,0.00197016649470295
0.0440993649814266,0.0572152397427976,0.0278142321924892,0.000263588662197857
0.0678001905904936,0.0982778055885299,0.0392381866779098,-0.00170463642595149
0.061972732188765,0.0910095368985641,0.0352535396270274,-0.00276608408886245
0.0390167002810094,0.0534495612022911,0.0211723799833218,-0.00247925419680066
0.0158950862361591,0.0179740831091052,0.00683607860417738,-0.0019233897226098
0.0019557428349693,-0.00814804644344541,-0.00293195663398206,-0.00199406104888063
-0.0076962149188236,-0.0208013965070361,-0.00722276397199209,-0.00237178985353473
-0.0154206485917369,-0.0242880354825478,-0.00590356060429041,-0.00270983648140578
-0.0190257968326573,-0.0225476023294845,6.76375136439387e-05,-0.00257566837914536
-0.0167017149432874,-0.0143314301538463,0.00562898137274041,-0.00162402824296173
-0.00588215011400249,-0.0103811201866397,0.00509676805968558,-0.000411970085871067
-0.00410847861027525,-0.0152026523675946,-0.00135278142796243,0.000272308640823761
-0.0160147219225947,-0.0179963731114476,-0.00717546401954597,0.000248216840483496
-0.018214087517235,-0.0243924934121842,-0.0099066404057928,-0.000165184482808416
-0.0172657612010903,-0.0389136237597812,-0.0109951892802114,-0.000616802677702654
-0.0304633120828844,-0.0408906339928868,-0.00952294733459209,-0.000647439779393088
-0.0474314146133566,-0.036036296845181,-0.00692703917134833,2.94314112280667e-05
-0.0478269692837936,-0.0458972109835232,-0.00690884071165186,0.00105093832184839
-0.0280669474484401,-0.0547670455649436,-0.00881339956921498,0.00147740896108427
-0.00177101052019761,-0.042909175885172,-0.009118065095225,0.000796269884514357
0.018190442937505,-0.0182694382891357,-0.00904895350683295,-0.000241174356073458
0.0233739667860353,0.000988508429339036,-0.00874271394367386,-0.000725464702041402
0.0153040630392641,0.0158576050278202,-0.00455803017678176,-0.00051138643428646
0.00658158321363066,0.0449004726274189,0.00123801819947632,0.00030799922057472
0.00382030096543316,0.0713361457703794,0.00399936603970776,0.001268274833882
0.0022278656216013,0.0598705137799412,0.00431626313310333,0.00152888712128191
-0.0040768263706564,0.0273733584441161,0.00482436257715759,0.000786260443491294
-0.0156158633150658,0.0053113841608441,0.00599624234852673,-0.000476753729141172
-0.0247298706142771,-0.0070791312764951,0.00525358439530283,-0.00143406562021706
-0.0263064199694134,-0.0144120203773435,0.00215159124900404,-0.00169012918924602
-0.026446716953222,-0.0171289455130846,3.83509985686977e-05,-0.00148391862063604
-0.0280035036721714,-0.02218740277356,-0.00177899003625456,-0.00121372566250598
-0.0276614330315784,-0.0287156527012491,-0.004599686089004,-0.00136162202951402
-0.0284635437614639,-0.0272580086784422,-0.00505920347964798,-0.00188603631663696
-0.0330360376936296,-0.0152782797215739,-0.00236349572021401,-0.00198925972108017
-0.0361088098035955,-0.00159768848669203,-0.00194583270395381,-0.0012473753629817
-0.0352563986796234,-0.00108206087078132,-0.00766323301481499,-0.00017684374261842
-0.0272974822362947,-0.00757400368281565,-0.0155370699187975,0.000259581935866884
-0.00507104971812948,-0.0083885516570161,-0.0190142204287811,-9.76378716763367e-05
0.0158114957061743,-0.0033401841835057,-0.0158554824077228,-0.000632099134126423
0.00823663779638179,0.0147865665060096,-0.00739614167523141,-0.00118550637324251
-0.0200845422957174,0.0419990961033927,0.00464677224957616,-0.00159186936052639
-0.0359314852199846,0.0536295965135263,0.0160416872747956,-0.00124399018014734
-0.0307017317456732,0.0390090156122183,0.0225725257791712,-0.00013511621242807
-0.0225523056210259,0.0105074563967266,0.0261584358379108,0.0010856202955896
-0.0182276145562739,-0.0250594069077448,0.025678167140085,0.00188259433959582
-0.015645391067583,-0.0605672369842887,0.0172276264778646,0.00184326195454936
-0.0173650101926955,-0.0724672300057159,0.00571808906208981,0.000626235475166429
-0.0189615015071509,-0.0511004245745383,-0.00517552188635366,-0.00140168974306711
-0.0142807825682949,-0.0214592355160459,-0.0135955551633234,-0.00295330538504702
-0.00899019371232484,-0.0189223040865027,-0.0157680984834714,-0.00331826048400187
-0.00954544247123699,-0.0459493107456425,-0.0152818723717225,-0.00289894698434249
-0.0104444672736061,-0.0726067863296199,-0.0154727094481614,-0.00189126013185527
-0.00719805205555186,-0.0787409875688382,-0.0138920516775696,-0.000452759281097569
-0.00103890372426851,-0.0571068012235957,-0.00771301246528208,0.00077166064316207
0.0101467327201224,-0.0142356927386463,0.00468621221629572,0.00149385554702388
0.0212090234050957,0.025693297703857,0.0206840287561396,0.00197726138377218
0.0215265950123209,0.0557857550344749,0.0333363652064267,0.00248575499449163
0.0115000428213359,0.0676204880687352,0.0359484244703234,0.00299275399520408
-0.00111553428641137,0.0288674271389386,0.027418421560745,0.0029794589168998
-0.00628761088827213,-0.0448169647362932,0.017023204951962,0.00181167406005393
-0.00261622643584213,-0.0834145052136131,0.0132124425449308,-0.000379841312040626
-7.79811612151944e-05,-0.0635366560778146,0.0124916189674354,-0.00255211177661539
-0.00106384458004772,-0.0189191510388606,0.0104068070556421,-0.00370876197578044
-0.00328247115045606,0.02495843953627,0.0088112419268916,-0.00359739439255378
-0.00846859404340987,0.0420363599757781,0.0107396917936957,-0.00228255712833996
-0.0121763547016689,0.0101832462250614,0.0130115018597035,-5.02751471186647e-05
-0.00869706541541023,-0.0374601203186499,0.0101812440637215,0.00225363126335734
-0.00208858650571083,-0.0575282606670045,0.00402521625376464,0.00355949034150716
0.00194579887426285,-0.0546321980038175,-0.00135981027061958,0.00357945668985386
0.00230332538101117,-0.0506209562349497,-0.0032383892755187,0.00288113108746034
0.000609059946473666,-0.051062810517113,-0.00184015996782682,0.0019199929058708
-0.000759196313061565,-0.048278765301692,0.000538537962498564,0.000691128392083418
0.000402127422865125,-0.0400965860954944,0.00274386769246149,-0.000727676037564143
0.00378518994899457,-0.0337098636189889,0.00131763650912167,-0.00163659308103189
0.00663654364770555,-0.031842952181592,-0.00280503232392992,-0.00171775612652686
0.00801944516548145,-0.0315172050332825,-0.00512590411798862,-0.00131227472412724
0.00874120907960383,-0.0255510731065452,-0.00721967006309758,-0.000662306832931229
0.0072857678684748,-0.00966838594095763,-0.00874540895802217,-3.03882341989971e-05
0.00113958898022197,0.00209976882750541,-0.00637485590512921,0.000604502522057441
-0.00592492606004587,-0.00391730494492728,-0.00220563116749654,0.00135470346613537
-0.00940953715220352,-0.017778806900656,0.000268522937879087,0.00186570242870266
-0.00749087854871761,-0.023052122088121,-0.000767798752163091,0.00207454918875577
0.00249648697697596,-0.0127500818404761,-0.00765981343744393,0.00200855333899776
0.0159729860803569,0.0104772609256603,-0.0186088086624974,0.00116068451724512
0.0253371268829761,0.0338503630626221,-0.0261598125860044,-0.000249190432297511
0.0298036875669061,0.0434569468330039,-0.027552209333164,-0.00129227066120315
0.0285116372797203,0.0341710566553156,-0.0238315001147705,-0.00179959459539426
0.0224457952214976,0.016268790120799,-0.0139831384123475,-0.00184446990861739
0.0171473076884929,0.00885560114040719,-0.00625727501533865,-0.00138727689650325
0.0123443121243065,0.015322382667406,-0.00906592189441137,-0.00093327984879491
0.00549979144283976,0.0249896092728004,-0.0135690328914641,-0.000756445759081173
-0.00215048888257809,0.0333651561470696,-0.0135069526971888,-0.000252935929541679
-0.00724515237233921,0.0354928281937342,-0.0117108882948437,0.000894105885692363
-0.00595310103176786,0.0235376476810721,-0.00470075236463318,0.00174324548343778
-0.00313598359373122,-0.0037487214004164,0.00697305509435096,0.00170924436809612
-0.00468452302271355,-0.0370555373726494,0.0157964039164055,0.00133510477870665
-0.00314966944447823,-0.0532165741893486,0.0224352070323448,0.00112430091078713
0.00406062436021408,-0.0387430455422451,0.0258196663752192,0.00132055837320326
0.00854430370079058,-0.00816884028031984,0.0224169383509407,0.00154435247969191
0.00868230750554231,0.0215338853556856,0.0176037907311699,0.00109933479059202
0.00790818255351528,0.0424966300023372,0.0125374600877567,7.86517580021995e-05
0.00661728134998073,0.0486066670583221,0.00590577782768865,-0.000965856067615154
0.0036681643479248,0.0463409111603717,0.00321217159037406,-0.00161053769173312
-0.000237447177195395,0.0438915936469021,0.00488440088910406,-0.00166971322084687
-0.00500341854747515,0.0378635689526765,0.00371061436770806,-0.00147825848389555
-0.0112513736322641,0.0305315389795535,-0.000968615320118299,-0.00153539451536602
-0.0154923768829954,0.0249704212623048,-0.00375731723544196,-0.00184674099547206
-0.0141358257583809,0.0172793371925352,-0.00356270207131314,-0.00205194590695429
-0.0102140837227892,0.0102963383623049,-0.00281912114497416,-0.00200381666454928
-0.00817534705341212,0.0107575476728218,-0.000780786026220755,-0.00164323135874829
-0.00264541388298419,0.0191997799333904,0.00545836508120719,-0.000648986619776255
0.0128515215660046,0.0261333991359674,0.0132534406210676,0.00076679644732619
0.0336646483850559,0.0224006472092124,0.0182144515431485,0.00180943205363629
0.0443943439106936,0.0224281899362499,0.0213450465496803,0.00239492196731191
0.0326002513416107,0.0391380707135137,0.0256072087968247,0.00305618784872645
0.00781808740138784,0.056251958179828,0.0275321270514563,0.00373264679057967
-0.00311747741351896,0.061219835473848,0.0247875364395835,0.00353560279417985
0.0155157319467404,0.0563058290541929,0.0236003845479804,0.00205873335770554
0.0451684584955864,0.0390834493197527,0.0251456060612506,0.000255003195877625
0.0664219191796444,0.0113317333091056,0.0260560705381093,-0.000977509594852983
0.0802926187076086,-0.00820913766034536,0.0252065578660517,-0.00169170256149057
0.074364872423732,-0.0124358018747072,0.0215976017371294,-0.00203845695082583
0.0390706868347181,-0.0173395571734469,0.0183794790634151,-0.0019297085339621
0.00616550128466463,-0.0219161211303274,0.0180296793788815,-0.00127742912263817
0.00970155128798261,-0.00775506637087682,0.0188141855355771,-0.00012851680470693
0.0234118385063953,0.0166190923813417,0.0200509499484877,0.00123015164449782
-0.00552976008091588,0.0173194948514844,0.0192062643377616,0.00233696791111966
-0.0607807020544863,-0.00623881623205505,0.0161758805029148,0.00293602246134039
-0.0678962477888396,-0.0132586981227207,0.0141677856193413,0.00293897375468212
-0.00874071187629394,0.0115930070474966,0.0131354619100006,0.00208991264826742
0.057398290232979,0.0416944996210467,0.011814433578023,0.000483577817779698
0.0878340145210456,0.0476667860976472,0.00748164498790032,-0.00119700328269905
0.0909822921643819,0.0258734394506559,-0.000535056180647777,-0.00227518359489458
0.0765787763500699,0.000820533000954013,-0.00751985015257335,-0.00237812149101182
0.0359485308070254,-0.0141530922034333,-0.0110638907034451,-0.00154646731611004
-0.017043274951587,-0.0276252671443796,-0.0143523624277278,-0.000357792412813176
-0.0373756434383671,-0.0389625010825349,-0.0166049378704062,0.00011162422097403
-0.0185676158266418,-0.0458703969332311,-0.0157196277628998,-0.000692980358181307
-0.00453413454154431,-0.0485538060348941,-0.015213546296335,-0.00198070725365606
-0.0275873056445118,-0.0439061320090406,-0.0170391250682336,-0.00282143042220177
-0.0714984664486558,-0.0265182773153014,-0.0188802184008616,-0.00314783138168574
-0.0749297890326487,0.0155343548292696,-0.0183107725805217,-0.00287046681589073
-0.0118061041166705,0.0652218579560144,-0.0161921818614557,-0.00204006787437939
0.061385059230057,0.0788340258093116,-0.00766226846373957,-0.0017691930354284
0.0868723054488512,0.0389832686089039,0.0111917491691647,-0.00173135615472588
0.0663036372951773,-0.0301055698027018,0.02360911094059,0.000746854622781873
0.0374701318369285,-0.0755165861846084,0.0183965936731893,0.00612651811462985
0.0353364316985781,-0.0640104422128698,0.00775214316321977,0.0108626309996149
0.0516613732264907,-0.0177738710013675,0.000828327064801971,0.0111688442836698
0.0473141792814517,0.0263770601958654,-0.00385766478896066,0.00662861085229188
0.0155198657584543,0.0643071835185327,-0.00608465669457124,0.00057215409381175
-0.0227541100210576,0.0856898128980438,-0.00495218206887429,-0.00240305974715023
-0.0525426012621372,0.0619314191095249,-0.00506437410360494,-0.00050509396217302
-0.0652313211374704,0.0135913160745691,-0.00974253458415681,0.00283832097218773
-0.0633414971684663,-0.010552481784381,-0.0134707758972362,0.00273185155101362
-0.0523552660831814,-0.000100154776592823,-0.0102790693407845,-0.00111097105804799
-0.0353141052869746,0.0172991540025305,-0.00655133040529192,-0.00423408291999187
-0.0168806699452401,0.0154099128343072,-0.00941926371964035,-0.003498236271863
0.00440513261394499,-0.00455269011591936,-0.0124744051420993,-0.00136705658391251
0.0174795289378568,-0.0235872527997256,-0.00957731438916989,-0.00169096436483036
-0.00404953757154261,-0.0281489430134375,-0.00413703796535035,-0.00394159454070821
-0.0468368884044861,-0.020695001278619,0.000447545867735728,-0.00474673592865945
-0.0633760440390481,-0.0104994514544513,0.00108720744297595,-0.00267706893856917
-0.0511173211277342,-0.00862764042397941,-0.00395239562580397,0.000410783600502385
-0.038802908580874,-0.0168367784422374,-0.00770826829709772,0.00173146928367352
-0.0309763515636437,-0.0197797910599099,-0.00567341298791431,0.000558887547764282
-0.0221010819137306,-0.0108613017796391,-0.00333584979375336,-0.00111368061725708
-0.0183225295793676,-0.0108370861743687,-0.00309146331442625,-0.00107343781965342
-0.0249410574664861,-0.0335641334621624,-0.00371065944767338,0.00101338944327964
-0.0335217977304272,-0.0531998295667807,-0.00511239769829247,0.00393762120524155
-0.0342924640261549,-0.0458387786104926,-0.00507618523485598,0.00646408563052218
-0.0278018929803535,-0.0243042558293481,-0.00322741987019072,0.00815693390594597
-0.0227785277632332,-0.00599859508726515,-0.000277518976883105,0.00895063734008713
-0.0225426274273878,0.000753635187309976,0.00253924332000679,0.00960187360055965
-0.0210440196362494,-0.0113675277620899,0.000529530923441416,0.0102069722383841
-0.0156984914126305,-0.0265569914153828,-0.00534120031750286,0.00792472803293883
-0.00838812308007953,-0.0174910858987875,-0.0088750638539188,0.000970777480843203
0.00664871159826136,0.0269303905088612,-0.00680864850718021,-0.00722001556991473
0.0331412551653285,0.102108022739664,0.00141795792805697,-0.0118510978139786
0.0412688220133902,0.162651949873648,0.00758504840680169,-0.0116799335857799
2.15281651489221e-05,0.151427242292883,0.00473683978594368,-0.00840563460078854
-0.06206740591194,0.0760390561470908,-9.55187346659437e-05,-0.00421588579121209
-0.0944521187224113,-0.00980057239777482,-0.00396444895484614,-0.000464776071439318
-0.0864386810837059,-0.0635900477977532,-0.0101406470498116,0.00284628520478247
-0.062891944413114,-0.0789508854498783,-0.0147145181361491,0.00720947812744032
-0.0448100032009508,-0.077694614816636,-0.0165731819161299,0.0132012075953734
-0.0298704722086302,-0.0727568299595668,-0.0173389428587442,0.0169654041742158
-0.00708306455109255,-0.0662085847204836,-0.0179265526606215,0.0132075593491979
0.0258739781214794,-0.0558952489969455,-0.0192407634918657,0.0010602938690135
0.0593952036905279,-0.0274344198025176,-0.0137513458924439,-0.0144322748567732
0.0781537290457216,0.018788709093946,-0.00121759593778769,-0.0246979474044698
0.0731982058223016,0.0605873893296093,0.00624862773470157,-0.0244450404126286
0.0536697831523248,0.0798055193800608,0.00453098896039224,-0.0160430038429935
0.0310803260997205,0.0722411307632583,-0.000604922018117138,-0.00543842833940508
0.00484307445494433,0.0486164711097452,-3.11268220769849e-05,0.00292437421208161
-0.020230330539439,0.0187257588230721,0.00998830961331345,0.00752782426979864
-0.0348165595815717,-0.0105371600199841,0.0193607604710509,0.00886125553162509
-0.0402199817891609,-0.0302467211304006,0.0169812408377344,0.00781054447891359
-0.0374134580757312,-0.0332921855229618,0.0053836436832608,0.00491632929206606
-0.0177837368832833,-0.0149885752416299,-0.00932793701772548,0.000391664624409266
0.0189872194807214,0.0146167350183242,-0.0219028248370721,-0.00489873828104575
0.0499177659796256,0.0353039230268903,-0.0229647815091593,-0.00897467199522239
0.0597142721919442,0.0409476613688018,-0.014867300612445,-0.0100736642299418
0.0526651728693802,0.0407753801009351,-0.0106409473713705,-0.00794304582139666
0.0278208110786457,0.044398248400435,-0.0116324150465529,-0.00404190327114973
0.00860783460963943,0.0522454205445466,-0.0104192273606918,-0.000444608113583969
0.0388994401352484,0.061912709140631,-0.00408069426836596,0.0014965149156819
0.110728117009857,0.0836332083583214,0.00769824726343182,0.00171630371489513
0.162122057441617,0.101461264297702,0.0189496447363738,0.00141928437388641
0.135402171923586,0.0678461848268467,0.0181209217284083,0.00151626241171495
0.0380404826478966,-0.00842233023717011,0.00586496757902692,0.00165049734679271
-0.0623204950309249,-0.0661163055162854,-0.00636811554985028,0.00137552031935165
-0.118576754416107,-0.0813318358303106,-0.00654376719294349,0.000836553739111454
-0.11658746310576,-0.0689334830859248,0.0024844669271196,0.000423176365827945
-0.0634470663662783,-0.0415657888302546,0.000342552604935119,-4.29167323837366e-05
-0.00657504888624935,-0.0164571488009838,-0.0128280125222805,-0.00100799264649816
0.00948990248954133,-0.0133545686602392,-0.0191385404728118,-0.00194428311803968
-0.00869251312723614,-0.0300809661372173,-0.018263430525551,-0.00195767680190189
-0.0179673835178024,-0.0465792463696761,-0.0161196211537049,-0.00144815876759142
0.0100897677839175,-0.0384537324297181,-0.00899750528326593,-0.00189923590827277
0.0575147833682435,0.000948650445296281,0.00153148821194349,-0.00394591422126418
0.0915316013224625,0.0595877570046689,0.00860200164166507,-0.00694090590480875
0.0964726934356677,0.107270872894619,0.0161853802044048,-0.00947111334593966
0.0674411379313256,0.105238051592355,0.0272839630989941,-0.00966872799388487
0.0135715656769992,0.0577173959043937,0.0317986282614548,-0.00654646881180735
-0.0285647752333678,-3.6467502738044e-05,0.0244379541581616,-0.00120818838819827
-0.030579678170954,-0.0399246595127495,0.0112665370782175,0.00372472106724065
-0.0117773082588501,-0.0562508132027928,-0.00269833458129195,0.00616650245871621
0.00767168564603406,-0.0635824694080067,-0.0143628005644297,0.00575646016458517
0.0253760235496531,-0.071754284105602,-0.020617364348537,0.00326094238719444
0.0294451655778226,-0.0778002871239571,-0.0204591539453047,-5.53207238543243e-06
0.0184596484561158,-0.0778251296810326,-0.0157295164622348,-0.00239134056337007
-0.000134875686589361,-0.0705478208503281,-0.0118153242964505,-0.00288693150738167
-0.0278260710986472,-0.0573081016152968,-0.0105408504835655,-0.00149109788564424
-0.058627664876951,-0.0525827011698808,-0.00931610887939438,0.00144634966601809
-0.0750187929608549,-0.0637528964904525,-0.00913649580252521,0.00504262529176776
-0.067528332051829,-0.0699875182893062,-0.00850075681554683,0.00781097156579007
-0.0422458568048499,-0.0566902425898449,-0.00799074888899047,0.0104297903838107
-0.0192454088081145,-0.0360130962084471,-0.0119347307358835,0.0151655877384243
-0.0167863073249569,-0.0164587480172195,-0.0141193604999123,0.0185921033918176
-0.0320548429629074,0.00124054063230463,-0.00780613152141774,0.0138841367996683
-0.0399428001536691,0.0151230815585297,0.00183305434187175,0.00151850768311446
-0.0261411438091075,0.0250821890730153,0.0062069480988107,-0.0112014180838093
-0.00290480986675941,0.0214924296357779,0.00141960396716153,-0.0179625412083791
0.0209256977960955,0.00930851892029298,-0.0091992454886077,-0.0176019379238327
0.0396355305340769,0.00980642490634592,-0.0146566342010687,-0.013576957701743
0.0386256738932037,0.028887398027364,-0.00512772293034516,-0.00964922627780365
0.00378760542863654,0.0618612938454309,0.00926185986835786,-0.00664130029810846
-0.0473861212891696,0.0731647971903227,0.00880661590752947,-0.00368430036975509
-0.0675705807919003,0.0333595937978624,-0.00442546875195349,-0.000354116253571221
-0.0400807225142611,-0.0120417818015381,-0.014292603237911,0.00263173608876375
0.00930999926246279,-0.010996626115366,-0.013715625785292,0.00400468058611278
0.0499578556702608,0.0301784983837662,-0.00987237077025086,0.00364431717025861
0.071497122556318,0.0714579184830792,-0.0104642928482532,0.00305398515364118
0.0761088863435024,0.0666711534759731,-0.01409827866558,0.00358047523633184
0.0559247190144529,0.00121670569944102,-0.0103793370818177,0.00517386986858667
0.0109517878393255,-0.0870722549282894,0.010070186972057,0.00753410892560913
-0.0299458254179415,-0.138656021081362,0.0310342305343754,0.0105362980076462
-0.0357352441683654,-0.133632789977316,0.0316101327253445,0.0129818743139677
-0.0217942242433611,-0.1077020570368,0.0167529201007703,0.0128767123703036
-0.0295578435044759,-0.0820701578116617,-0.00129125657296275,0.00957495405097723
-0.0516199114643434,-0.0441202941576097,-0.0144410939087469,0.00451566820306907
-0.0509988344092088,0.000475836883892161,-0.0159272894293801,-0.000216848185872431
-0.0251531869622908,0.0306460802954813,-0.0107865618699292,-0.00348697504638384
0.00133290862301948,0.0454165901690719,-0.00851513880862455,-0.00558765186390686
0.0104790346378945,0.0531436170351624,-0.00963884709536841,-0.00700948810216077
0.00860938520177747,0.0553371917681235,-0.0103240333131629,-0.00763846846874834
0.00377478296108621,0.0572244918729103,-0.00864126328531148,-0.00726802673435485
-0.0081267930676302,0.0658362639321566,-0.00879914875190656,-0.00598785623801306
-0.00867372442287419,0.0821644170622023,-0.0130247948790352,-0.00405925378783231
0.0159135745470734,0.0943492047526559,-0.0191431277068281,-0.00157161756441876
0.0392018991805521,0.0824246110087942,-0.0249916277781935,0.00102877813568379
0.0384023123306091,0.0456692821394362,-0.0277506209318831,0.00302958238646251
0.0189743387603019,0.0123538048058173,-0.0257178433675059,0.00432246266442525
4.13599354168181e-06,0.0085743140028607,-0.0196248001140964,0.00513368129069151
-0.0077783923560177,0.0175624035126831,-0.0111122274876284,0.00557921128559038
-0.00936573139570457,0.00404609652279735,0.00384529313325838,0.00562781073011385
-0.0148096246782862,-0.0323024607370682,0.0301354957817166,0.00543601812569088
-0.0357954401208255,-0.063988820761876,0.0546579516618512,0.00548841101141997
-0.0682225295997245,-0.0693444892142744,0.0565558818790152,0.00583237318211456
-0.0847177058025069,-0.0509588698016918,0.0383663963205113,0.00562850748572655
-0.069183751344881,-0.0242584283270649,0.0172513144562435,0.00423932280139095
-0.0368239910697117,-0.00532529614278774,0.00401220754651619,0.00194000690215318
-0.010742722714975,-0.00616636753141159,0.00279848978342791,-0.000643707566641399
0.00329333434425803,-0.016351448897525,0.0100559176177938,-0.00288945503105376
0.00966522334540957,-0.0153435591388532,0.0154025346666297,-0.00402813132414217
0.00832831488483089,-0.00330582398866204,0.0143947971925389,-0.00352789080605973
0.00453241218685107,0.00618193658490148,0.0100055800198611,-0.00206180900726567
0.00651379513894175,0.0105099182184849,0.00102888839869242,-0.00091353623723636
0.00310204698954052,0.0157442719926919,-0.0108623612852713,-0.000714401915695101
-0.0130666570377407,0.0210570996415324,-0.0164707839340171,-0.00120702222211726
-0.0249694895887826,0.0208500599509414,-0.0150353201261162,-0.00175689704073789
-0.0246856606580982,0.0164954134491022,-0.0132144904360033,-0.00213224050281555
-0.0197232306839219,0.0150859255301045,-0.0102425113918889,-0.00221233929680234
-0.016290673485613,0.0195441367028412,-0.00350209459567713,-0.00151829500788199
-0.0146163142176688,0.026867648320057,0.00515632221073365,-0.000375789639941969
-0.00965312712859859,0.0345924389340216,0.0139478578217612,0.000142944777865574
-0.000661650475449934,0.038432867286889,0.0223518359557752,9.95962906531409e-06
0.00740946243657319,0.0323063319767671,0.0278827481199007,-0.00032834793366885
0.00924045057977098,0.020983312227349,0.0272772426738044,-0.00113745082986256
0.00555089811184121,0.0121632754078327,0.0232849560921519,-0.00239065925820964
0.00240388994982807,0.00662721139319053,0.0203122294094893,-0.0037112664875419
0.00248985280819964,0.00476820435866849,0.0179869301478456,-0.0049123857088156
0.00160488058713749,0.00433074660384025,0.0151423809568797,-0.00557498771634213
-0.00902553629624867,0.00255974197609334,0.0127268718490397,-0.0052497421175971
-0.0239083286992711,-0.000192818964718695,0.0127413273993494,-0.00369176549495165
-0.0256193354447703,-0.00496291605207248,0.0152936011019103,-0.00128765095707144
-0.0158063162107915,-0.0107808641060534,0.0163339347620148,0.000846876555135477
-0.00726443664773411,-0.0149819089194354,0.0140737270236843,0.00213659111513531
0.00244110643224595,-0.00969024913674217,0.0124163306234746,0.00355913392426358
0.0161007140703549,0.0136268438598448,0.0127118390569948,0.00645134449585027
0.0225211707325708,0.0424334010588334,0.0109808799723506,0.00963596319105497
0.0243367213892267,0.053444320734559,0.00497027012672434,0.0094264462343766
0.0384906543844098,0.039879251506404,-0.000421707774294824,0.00429771300442219
0.055371380362606,0.0185252095505574,0.00189541963153265,-0.00278437246357238
0.0476644390440479,0.00343991826604353,0.0100999617079253,-0.00847509508549104
0.0121217252006113,-0.00878487306112203,0.0157580668374676,-0.0120475803667259
-0.0317042868169401,-0.022635369874477,0.0158006453142847,-0.0131555309115158
-0.0626454057871605,-0.0365428150581591,0.0128945306257667,-0.0108525004706443
-0.0664280597733136,-0.0422636820505187,0.0100734748841099,-0.00620501054731411
-0.046060176443107,-0.0381603833837533,0.00815058137173932,-0.00226779415941251
-0.019457585787444,-0.0337773379000102,0.00691711922798973,-0.00109734606506433
0.00280710852824219,-0.037257871462842,0.00557916259978061,-0.00238319256850693
0.0144755438970758,-0.0455617612780076,0.00591016564725675,-0.00331558705008165
0.00828884161180848,-0.0462755232529368,0.00718999238269879,-9.03386284199824e-05
-0.00543508711775758,-0.0331107540499888,-0.00078948914214993,0.00781566788546943
-0.0104826221083575,-0.00751197611188721,-0.015269547934081,0.0149388229976492
-0.00597913075798113,0.0189883035699848,-0.0205142000367054,0.0151470959845478
0.00953525411263762,0.032432458134916,-0.0163562130272602,0.00928333903292632
0.0384739882721227,0.0501200687202115,-0.010655864891727,0.00333793542079209
0.0605543398978749,0.0897138240605775,-0.0041506570486959,0.00160893728999364
0.0584093278413802,0.109515633907393,-0.00172701587256291,0.00364060949373504
0.0407377709204083,0.0712719837277697,-0.00548416372934217,0.00497461744076411
0.017543504823236,0.00950306522183043,-0.0073176713588728,0.00192265214904557
-0.00683256904080884,-0.0318302320637724,-0.00669878870881473,-0.00436799906770765
-0.0279279361607664,-0.0468856600883011,-0.00667930943730439,-0.0102467532774759
-0.0393931109780536,-0.0512264879160395,-0.00463137303240116,-0.0133290401884523
-0.0348773551958077,-0.0593475413178664,0.000770335442203948,-0.0129315302529402
-0.0221674107370227,-0.0655023985454993,0.00811846934579569,-0.009374412536852
-0.0161833530637311,-0.0594530725990816,0.0160015919108479,-0.00402070926281105
-0.0173702975008606,-0.0449461624704309,0.0182136783246212,0.00116730657311676
-0.0177512186752005,-0.0385979391694202,0.00965452688698426,0.0054961308465079
-0.012069021065205,-0.0404966221320202,-0.00123707393030564,0.0103560092757501
0.00918618420117324,-0.0280332062076539,-0.00456754956421843,0.0166872457122171
0.0594449721864789,-0.00689900940166274,-0.00371630122546238,0.0220915559646518
0.118342872549689,-0.00602496781374454,-0.00800413081096401,0.02127079938665
0.137498375679891,-0.0191944238637859,-0.016667292650036,0.0112772712031936
0.112568335679179,-0.0212742693223255,-0.0226389399051557,-0.00304994689948303
0.0723483301888239,-0.0284636897890676,-0.0249577551843277,-0.0131071185706778
0.0332128988156419,-0.059176732766719,-0.0246103631408241,-0.0154714023766035
0.00830903526340665,-0.0769074011128342,-0.0215946452275386,-0.0127103847691712
0.00220096061264326,-0.0483566059726312,-0.0171686943247282,-0.00832174551043699
0.00812410948028484,0.00570689886412842,-0.0139956961701864,-0.00413807635966769
0.0183868309277014,0.0580767587258591,-0.0161991971214038,-0.000955605027923643
0.0059541900728463,0.0949498344325339,-0.0219259837303676,0.000473154293153573
-0.0569636014962348,0.0933570851522882,-0.0249521516101464,0.000149227913410217
-0.108479138538038,0.0654328284094567,-0.0199346739872977,-0.000422962269462381
-0.0610312854274899,0.060991791278637,-0.00330956839873269,0.000484452808236738
0.0410959180259011,0.0794728404209678,0.013368839144016,0.00299209462179529
0.10944600867597,0.0785310637067179,0.014834832548056,0.00556565101267716
0.133548578923546,0.0588159508876339,0.00648245179076296,0.00674990578427841
0.136128987524342,0.0463899557004364,-3.33053363345583e-05,0.00619605115110846
0.124706248821498,0.0362467737721272,-0.00408310586685194,0.00438994070706406
0.0961020629539104,0.0101261797888987,-0.00983446804210839,0.00216565118645068
0.0583465026206789,-0.0260948134746421,-0.0159506484159352,-0.000245255341738937
0.00937806771823342,-0.0576203042250454,-0.0111934841206257,-0.00305886684401547
-0.0604581007949819,-0.0837838161021553,0.00262926407908366,-0.00573044199955863
-0.124109349384466,-0.0937068347632555,0.00652215805408463,-0.00741959829706644
-0.138937476020937,-0.0702535175516867,-0.00137343520400467,-0.00821813595187676
-0.096135676745784,-0.0239715240744683,-0.0133566378813288,-0.00860745168415787
-0.0355623125387418,0.018547062018743,-0.0269697431723757,-0.00836830663734972
0.00292869709886664,0.0461230716393476,-0.035885803838617,-0.00659611595732575
0.0210254121600581,0.0632245552904053,-0.034446354270391,-0.00165915823608966
0.0308476606235917,0.0710354168771226,-0.022076738137412,0.00670143282488513
0.0340777840282295,0.0707679770618611,-0.00617462248441755,0.0140566862819511
0.0302508736939305,0.0623247119041093,0.00429083272658995,0.014795257262498
0.0197756278720169,0.0366251859487191,0.0123357775836265,0.00875193589213204
0.00180499317872587,-0.00484184230325094,0.0223221745793159,0.000726584367965246
-0.0228526080990455,-0.0437442892461608,0.0249849777393616,-0.00482663227052914
-0.0425228090439333,-0.0692188837792668,0.0146967752141276,-0.00678405765225458
-0.0424567294481772,-0.084103813178654,0.000562216647693847,-0.00644473129064848
-0.0229642626178164,-0.0822307114689103,-0.00494581461830581,-0.00545173921320295
-0.0024152035832451,-0.0634264099633742,0.0040397484371208,-0.0046378025121678
0.00228247395683494,-0.0467843107599719,0.0185856992995892,-0.00370180908732735
-0.00283906729600927,-0.0393418372764657,0.0262738959144724,-0.00190945253636868
-0.00562742569016842,-0.0264098108048107,0.0220147062451735,0.000610306725025983
-0.00366082992676691,0.00778386068926767,0.00613580298440819,0.00252474411594943
-0.000181602910964487,0.0531558513507786,-0.00969194909236511,0.00269358906006006
-0.00766517559804474,0.074208844142832,-0.0166350431256498,0.00153229384342544
-0.0324456336166341,0.0555197429840264,-0.0199985906136545,0.000135520672606073
-0.0585845846212946,0.0288020702254096,-0.0224687738363928,-0.00081787386026179
-0.068167269209234,0.0215035390957155,-0.0228352635309054,-0.000975340112819383
-0.069855465062818,0.0169470116943473,-0.0249977655739762,-0.000416543733120425
-0.0853054725529201,0.00107005912293123,-0.0319905083871067,0.000170530247352564
-0.102047584644127,-0.021533424587772,-0.036652556239754,0.000358351091025277
-0.08349848179747,-0.0584779525347919,-0.0319904350183995,0.000718724226437331
-0.0374038766242597,-0.101817612396598,-0.0149879983315139,0.00154170399300808
-0.00431951718266217,-0.12254704225261,0.0071194349670648,0.00225611867486617
0.0105532516705724,-0.110766735322955,0.0179302045350238,0.00250224889746337
0.0244432848733915,-0.0761751499240953,0.0243767030261583,0.00261447507281466
0.0315989938129833,-0.0461433472538682,0.0319753329640139,0.00342778646674539
0.0202465003732658,-0.0372968855095856,0.026197116507071,0.00487528197184184
-0.0040393675608081,-0.0261104662739121,0.011492793164574,0.00549574173411415
-0.0259760028044677,-0.0120088632634716,0.00118844896698408,0.00404028523702341
-0.0308317445332921,-0.0226276763129163,-0.00408848689612197,0.000694243427517591
-0.019610595325421,-0.0406793001992868,-0.00673371073659489,-0.00315560116269022
-0.00633017959602603,-0.0364410175738651,-0.0086208976121883,-0.00599875316979069
0.00156564463734194,-0.0143969336310071,-0.00747670808225733,-0.00704716713042141
0.0045141159927349,0.0107656551744055,-0.00119790271377384,-0.00653868005944003
0.00736286036861248,0.0296237211406784,0.00638335075522613,-0.00533867154415379
0.019035253366517,0.0430640933726221,0.00925037285151209,-0.00434683138070916
0.03606657756478,0.0540411663090565,0.00442080908194903,-0.00362325886642492
0.0430404245512205,0.0518600348016677,-0.00256009407869428,-0.00260874754178619
0.036314136613519,0.0347243020682018,-0.00644465642867473,-0.00127741578550365
0.0224172367495764,0.0228347124452811,-0.00787202498458449,0.000212274799558123
0.00677416344385044,0.0235057310890706,-0.0112885867436465,0.00164750968848671
-0.00637934259571579,0.0206134748864351,-0.0213763343237777,0.00264450329937129
-0.0150499021246798,0.00148300808346082,-0.0295114646389691,0.00306999095454167
-0.0171088562273982,-0.0258362779995162,-0.0252556093459868,0.00334823591989876
-0.013943712449727,-0.0415332817871297,-0.0145525421687671,0.00405319770423461
-0.0109367532647837,-0.0400655454141414,-0.00432901555730673,0.00467435767325353
-0.0103358190068747,-0.0340550653139976,0.00478937662062829,0.00458774250995052
-0.0146100093629263,-0.0336550627483392,0.00986646042327824,0.00410148740858323
-0.0211263560259488,-0.0337880811495653,0.00998654490784662,0.00317985786798731
-0.0138267732588703,-0.0184467266531799,0.00753973957648763,0.00123941460461099
0.00920378016969544,0.0209772962335276,0.00493235956515843,-0.00175071802220197
0.0261187270895849,0.0627454271826163,0.0048659708777764,-0.00474541638986798
0.0311236548622757,0.0724574077713371,0.00534115799805864,-0.00663505299488826
0.0331532166446909,0.0591854155925584,6.19292760720017e-05,-0.00734776343619868
0.0300411183746706,0.0530240883685911,-0.008113080979455,-0.00712324867933925
0.0186310906634316,0.0448638392146556,-0.0115820939002457,-0.00594186799795091
0.00180014944966723,0.022506568413194,-0.0145924528930925,-0.00431373393745076
-0.00849635590781036,0.000566932811857539,-0.0196304796694947,-0.00294736280600522
0.00229788222488319,-0.00900974535132217,-0.0207320409794322,-0.00176527552210244
0.0216051200233324,-0.00862405601113852,-0.0186031244082637,-0.000566303826187445
0.0268287968215412,-0.0094044052445742,-0.0135738657578622,0.000544931919932244
0.0226684134764391,-0.0123217656196868,-0.00190029229844507,0.00146397364715454
0.0172172522161629,-0.0146738830727143,0.00993024088076817,0.00174666015737201
0.00574288690062624,-0.017210283206446,0.011432281280865,0.00119489233030982
-0.00544160299411814,-0.0196231781254245,0.00285723589024139,0.000364412947403161
-0.00412654567709065,-0.0349358542656864,-0.0075445226069191,-0.000883374627370223
0.0120906329375433,-0.0619847141617503,-0.0113970667019028,-0.00336293342993123
0.0340856592257391,-0.0952727629727112,-0.00663941330935524,-0.00658807169146452
0.0419183099419554,-0.144825537547163,0.00144670467166674,-0.00889214788832834
0.0249432823551739,-0.193098066661387,0.00552630867864944,-0.00925848847335054
0.000715520819137477,-0.213922781475505,0.000615956959397257,-0.00755671494048574
-0.0030515556135136,-0.205416750849317,-0.00872394469764776,-0.00361862552029695
0.0216729219716781,-0.172529646166118,-0.00880310687555185,0.00274038991779324
0.0722457881878683,-0.127121655491146,-5.14479588612513e-05,0.0111844998529373
0.125792777161594,-0.0766228544683182,-0.000206085104561474,0.020464026715259
0.133964889603028,0.0178379709073972,-0.00752351234279841,0.0272736023182082
0.101215965624428,0.166330025870022,-0.00953467281503066,0.0270899122004173
0.0876295144855434,0.313665118565425,-0.0114025547101811,0.0184441632889373
0.0916780843939971,0.412190642060692,-0.0140226809362437,0.00444348763920794
0.0532182721038504,0.387770307785546,-0.0143472618037386,-0.0093715078267665
-0.0270055668245856,0.228613333613598,-0.0174098865926913,-0.0181840663877827
-0.090035599375587,0.0501571964270242,-0.016438436567869,-0.0214934281975472
-0.12272699915514,-0.0820840753109793,-0.00761497720161828,-0.0223321309807153
-0.151721164650299,-0.17472463402918,-0.00309163320674468,-0.0220089091348412
-0.167068020667034,-0.218988129022647,-0.00120597093049206,-0.0185023819147779
-0.142621340052032,-0.215886070244755,0.00396437020584248,-0.0104244966032164
-0.0729186727498669,-0.182221371461376,0.00616791775621288,6.79331207056079e-05
0.0148794227270049,-0.127565701181391,0.00672249601388758,0.0089548789765382
0.0838287199659478,-0.0628970249105835,0.0131711545607409,0.0142277379846862
0.136850651282964,0.00259096491344497,0.0250388801791779,0.0175046950997992
0.175118071899657,0.0445356263990695,0.0362497897372529,0.0201883163239517
0.161617769560189,0.0276759413104642,0.0407979863119951,0.0195498005853194
0.09956886288885,-0.0179386735953778,0.0384596275526615,0.0122568525972477
0.0469981795757056,-0.0138537995170801,0.0302227678408643,0.000141223543000966
0.018858868813347,0.0529034071131301,0.0167518311094,-0.00985290785598673
0.000911919392996834,0.124441270003379,0.00837873721873625,-0.0113630996073221
-0.00813978047275524,0.149705196977241,0.00599832901468753,-0.00423245863459699
-0.0269642209850879,0.121998138780638,-0.000799365801301275,0.00556169982837913
-0.0681129956479176,0.0690516922399658,-0.00777088837226762,0.0112137779168616
-0.122149049315711,0.0144680319602927,-0.0069534117115451,0.0105788826935481
-0.164629690900805,-0.0258979733225161,0.000962371290643865,0.00655285962308214
-0.148183900750554,-0.0275896451411111,0.0145419330560571,0.00259876319005157
-0.0617288342397813,0.0031554520161646,0.0302493879966521,-0.000432057187673014
0.029285779162501,0.0148622578793663,0.0382690451644118,-0.00317103790588545
0.07210363010917,-0.0103820995205298,0.0311965771010661,-0.00556571172579715
0.0765867173204255,-0.027107131508812,0.0166242839579083,-0.006865356051837
0.0592942813402806,0.0109014277344769,0.0118314122137858,-0.00655616635296471
0.0327396009882232,0.078133299261935,0.0202372518535275,-0.00442226403406907
0.0172677641589111,0.0938446490318113,0.0277026875181034,-0.00100574671351594
0.0128740211904268,0.0498258518995842,0.0266141184141386,0.00205158588179622
-2.80466333397247e-05,0.0244584247682573,0.0233125873402933,0.00351439609821512
-0.0328113326484637,0.0290689777110867,0.0198444316055196,0.00363543462337439
-0.0712701982040136,0.00996832077866738,0.0132794612817235,0.00269596810775967
-0.0797690584050948,-0.0126544121258253,0.00852446724944338,-0.00092247977834926
-0.044115169009151,-0.00575450098036343,0.00905757033758429,-0.00808918361228207
-0.0132346390668774,0.00160225408615422,0.0100236534495229,-0.0149552176032009
-0.0299568013808808,0.000222366186990357,0.00927275687430638,-0.0162780853316377
-0.0536058327855541,0.0268310353542835,0.0142135840485653,-0.0114430263026097
-0.041029307267455,0.0841556734627217,0.0262785735627196,-0.00382458465360253
-0.00947471038803922,0.124022090665943,0.035752506672755,0.00359326465062007
0.00194898296268595,0.121892649479345,0.038494100583763,0.0107340887539544
-0.0247011709322035,0.0875734430448025,0.0332903670398983,0.020465799438502
-0.0598342156175517,0.0369404930235334,0.0189699446664746,0.0323433939238468
-0.0622704459494695,-0.0077767491535311,0.00343627623353185,0.0364321211121544
-0.03193969512777,-0.0300417337040319,-0.00459009420810054,0.0234157676861692
0.00529813171135292,-0.0371057804121087,-0.00465837245390223,-0.000839563571136716
0.0327324121461968,-0.0393084764088268,0.00122601492541787,-0.021031827231632
0.049440560663889,-0.0363134531470401,0.00728963187236088,-0.0284418109591888
0.0612612092346295,-0.0306336061266336,0.00822548265558304,-0.0252117758627239
0.0654610799702365,-0.0252112182803961,0.00655910250314228,-0.0175860935534725
0.0507611469636402,-0.0162979091711695,0.00572808287888974,-0.0100892921031841
0.0211557438437487,0.00135237592699261,0.00913556897597518,-0.00490621815481611
-0.0111106294768575,0.0207507132217582,0.0139026326934024,-0.00198699886824908
-0.049185627771433,0.0287128006786611,0.00975672291680703,0.000429786921942799
-0.0832487728925997,0.0273432892754441,0.00117611087062741,0.00392230413469208
-0.0855046810541272,0.0346628125745835,-0.00109016417949718,0.00788805965154097
-0.0583346262070193,0.0537619101539876,-0.00131146764574958,0.00936178118370113
-0.0289841054390642,0.0651416562925624,-0.00508653924460051,0.00678948463052212
-0.00922055544276248,0.0622133974426374,-0.00809758016253445,0.00242536463876503
0.00343206824520083,0.0554959469285812,-0.00442975895541577,-0.000366195933897795
0.00868685002719583,0.049218009422161,0.00192662720091713,-0.000462131303737766
0.00542628411189012,0.0417320305600402,0.00487571064043999,0.000594831760734499
-0.00133193112925823,0.0334410801782144,0.00686956073345727,0.000980201118090425
-0.00501771571204858,0.0280317891378369,0.00643583932803525,0.000499018287696954
-0.00609615650083503,0.0285162586723806,0.00295726474483532,6.69335018444235e-05
-0.00964238752793532,0.0292039772069148,0.00194397116592247,0.000303213081679384
-0.0156851177072202,0.0227399843564616,0.000673973889519286,0.000637540624850277
-0.0207518546281597,0.0110467002410759,-0.00260371965023899,0.000455352573236248
-0.0244087423874342,0.00051817519332995,-0.00162167162577305,0.000661424897453769
-0.0256876211296908,-0.000901383983810298,0.0053913082947359,0.00310113277002257
-0.0212478226020732,0.00911433704499397,0.00989400141471584,0.00882622458720295
-0.011863065236136,0.0221141595932811,0.00388928709329586,0.0149257820429378
-0.00287444741566451,0.0282663564460621,-0.00526354847537163,0.0152984693934722
0.00214012484828075,0.0211820119409663,-0.00758988226190681,0.00839319908942636
0.00119662861054379,0.00160921451976728,-0.00605490437853495,-0.00062240398500878
-0.00338557350850067,-0.0270314810164327,-0.0047178483466487,-0.00649746204062679
-0.00483310901631521,-0.0578214801815308,-0.00397551546467654,-0.00836647104131197
-0.00244892058863702,-0.0771268413134928,-0.00643230695627176,-0.00930771871605671
-0.00149668655893367,-0.0812014685428927,-0.0130546357169743,-0.0124567041344926
-0.00560732387543353,-0.0759239145815859,-0.0215612497341924,-0.0162653806237129
-0.0122209340789401,-0.0652824498553326,-0.0270786366721054,-0.0162410339910899
-0.0174603011170278,-0.0528741568776329,-0.0256085391529283,-0.0110837161392175
-0.0212886399894988,-0.0435474061359467,-0.0186155608127619,-0.00354252192008314
-0.0250693486500323,-0.0327990830482289,-0.0105173445151825,0.00353616081249082
-0.0274500772726846,-0.0103398742361129,-0.0043259057766258,0.00903554637446633
-0.0231503230128736,0.018969852055625,-0.0013192878794296,0.0122343354506409
-0.0120598637887133,0.0429187648827087,-0.00207074033082409,0.0122654173965866
0.00339947233156319,0.0540794695861778,-0.00756993559729746,0.00896851528851529
0.0212343799625423,0.0490132392914403,-0.0166620518187473,0.00325306500895591
0.0336248212025977,0.0316880449839582,-0.0229684061840456,-0.00282526617105903
0.0363225842864258,0.0121111061051627,-0.0229177772637117,-0.00684170554167702
0.031903761648099,-0.00396088037379056,-0.0203006801901995,-0.00775433797476541
0.0249513434331562,-0.0158935294087102,-0.0183144847467321,-0.00631135761926378
0.0184884469462669,-0.0275498121000241,-0.0173092457146037,-0.00388263715841009
0.0140244061626527,-0.039630767815489,-0.0153421273342132,-0.00174560859820771
0.0126766522160169,-0.0363014269677599,-0.0108459643290018,-0.000422861137742204
0.00354853090992793,-0.0200189557922989,-0.00919260856360058,0.000254778339218747
-0.0252427383718721,-0.0252864859080722,-0.010735295661999,0.000342445120929337
-0.0593225180273774,-0.0577050732218108,-0.00132374291899163,0.000196658762337838
-0.067200364066286,-0.0835959164125886,0.0229355900550956,0.000622985328341196
-0.0435315830586583,-0.0845695226770292,0.0379140505990951,0.00166563025524171
-0.0157344705223248,-0.0613984233266829,0.0257987699497782,0.00187963583818124
-0.00078899418909404,-0.0291930076440387,0.000590772260733841,3.29236150942765e-06
0.00236434168794012,-0.0207276026803117,-0.0203537456498277,-0.00336905968552812
-0.00343960764270206,-0.0407695973352023,-0.0352771039413784,-0.0065901128959008
-0.0126457195114539,-0.058845014329796,-0.0437834452478023,-0.00841635407049905
-0.0201085887712516,-0.061505218349116,-0.0453384459401299,-0.0085150728767408
-0.0210192920390652,-0.060198304684449,-0.0453694174144449,-0.00733737589411241
-0.00949623690934412,-0.0651467381468755,-0.0456140569809924,-0.00555619847608789
0.0175598575162196,-0.0826220118979596,-0.0424375165792971,-0.00352697669392951
0.0409722024084771,-0.131910809795931,-0.0377231087448919,-0.00157316600028441
0.0391519778097897,-0.216143195113001,-0.037109683073094,-7.45513418946991e-05
0.0307998724909321,-0.280438118103086,-0.0405913870583283,0.000583484249325641
0.03155578950721,-0.2617537616766,-0.0446635563370242,0.00051667674083644
0.0348967584592519,-0.161758916114974,-0.0469581254421622,0.000577665050484352
0.036105328356242,-0.0497744273307746,-0.0395406204007571,0.000996703869005587
0.0320587649876306,-0.0110511183206587,-0.0179041936203489,0.0015106065998768
0.036005894028388,-0.0475626630369558,0.00317366010272897,0.00198485458717016
0.0574465936477448,-0.0510153815507562,0.0121247096715244,0.00165049300449807
0.0645949727239101,0.060357292113151,0.0171666038030778,0.000428117853805517
0.0236680009015183,0.243920308782351,0.0266649820769794,8.69005142307891e-05
-0.0364475515522063,0.374015024914164,0.0333591856362229,0.00241457768687952
-0.058937373487683,0.403468804544631,0.0269620063802101,0.00743808763399608
-0.036563953224361,0.349035399189448,0.0144045385586652,0.0124245368849058
-0.0109003346948001,0.186829640760859,0.014249206938796,0.0134716162003108
-0.0011193306028331,-0.0180867781747354,0.0264990878021481,0.00978031419078729
0.0194110153420462,-0.159284560501227,0.0336819881864337,0.0042515741302913
0.0463578093005813,-0.241846945491577,0.0291179704951284,-0.00112081995245146
0.0395022849517637,-0.289115926826194,0.0112189154954497,-0.00743565450424195
-0.00753182318349079,-0.273135008753583,-0.0140284573085399,-0.0147421188480404
-0.0580918811013667,-0.199965853090993,-0.0289377260949033,-0.0191931466815613
-0.0606839254932784,-0.117599205387964,-0.0325789452130443,-0.0175132838453806
-0.0121658042111086,-0.0542432196494013,-0.0365505346740454,-0.0112701010802651
0.0353300657231701,-0.0183571365385788,-0.038401859853122,-0.00392352699214678
0.0520943948320627,0.0102148516195765,-0.0283651967040789,0.00304508445426976
0.0494694279917609,0.0845077572533535,-0.00721401551335009,0.0106809520681651
0.043155112889451,0.186631125150702,0.0138140471543361,0.0210412802935836
0.0387461802068336,0.218124466635398,0.0223250445001921,0.0318797012167743
0.0370058731991741,0.163755759307147,0.0186369747982409,0.0343555141235145
0.0356086823851709,0.0980674588823399,0.0197417219610202,0.0225541963689212
0.0363287121089358,0.0676411044952565,0.0326013454377021,0.00301119593959103
0.0414135363075587,0.0624662553888938,0.0424580916940242,-0.0117885260836821
0.0414599702038411,0.0599221936861726,0.0423666295834811,-0.0164843930552716
0.0312191834771438,0.0656893940353032,0.0392040524708225,-0.0143547631663974
0.0219540183814394,0.087286043751039,0.034782336034952,-0.00953012023026798
0.029737222563677,0.102884226696183,0.0291027629369441,-0.00308049197813148
0.0557563499438001,0.10242247134643,0.0274251174423295,0.00286933137214762
0.0789458353556665,0.103107455866108,0.0315959465642915,0.0034522666729075
0.064443224259021,0.109629046453603,0.032078349164803,-0.0025337889000433
0.00176952480012567,0.126495482457838,0.0252911965654606,-0.00980695954012007
-0.0544349547313501,0.145258915734509,0.0200749276938285,-0.0121592697641817
-0.0530652698722713,0.136556630945964,0.0200151460935573,-0.00772084831786955
-0.0269347802988372,0.108659517684378,0.0218779453703252,0.000810202687058854
-0.0288576454194114,0.0807049145911862,0.0221319204687467,0.00880414361857615
-0.0356164569367931,0.040536859453562,0.0186554764878063,0.0125805778452944
-0.00641228556383177,-0.00819481578656467,0.0139258659270333,0.0114800099179026
0.0279607620255434,-0.0375932915316821,0.0115887206293921,0.00782034980534402
0.0330170781632803,-0.0383256528438228,0.00968492421083716,0.00428404172651471
0.0201525064496439,-0.0236750768675337,0.00507046110614224,0.00179612970595258
0.00144818265129665,-0.0103705185302397,-0.00230391788275021,8.86172403646167e-05
-0.0204674028995843,-0.00252642192798593,-0.00706400091635843,-0.00117580944528314
-0.0231390484156428,0.00481439642949124,-0.00633041144768928,-0.00194569027173473
0.0107601193746623,0.0120181523061048,-0.00495658141085467,-0.00224807653697612
0.0388063972511532,0.0207854163902799,-0.00524211788531545,-0.0029062111235268
0.0169663508518066,0.0315878620153111,-0.0048987630721881,-0.00402524456104411
-0.0213770064874623,0.0368393672918937,-0.00140205661972021,-0.00473968807832704
-0.0139813715489141,0.0371476848384273,0.00517212923317076,-0.00517006002964117
0.033902766855725,0.0350896179574145,0.0108240059597045,-0.0059954445374278
0.0594150497503002,0.0250105746307288,0.010983399998674,-0.00715018528901886
0.0473884306474677,0.0128303460351588,0.00500774080512722,-0.00791054517917042
0.0320546224191947,0.00923691493947331,-0.00281190641025554,-0.0077039027776896
0.0277607659149255,0.00423350920432642,-0.00730424231152775,-0.00633535285654458
0.026117919214298,-0.00826074747162452,-0.00901368902368179,-0.00421217937898945
0.0221228028757563,-0.0102621220145688,-0.0151607196891609,-0.00252454717515518
0.018347058933859,-0.00948915085637976,-0.0302915154543234,-0.0019967172308917
-0.000155062210509212,-0.0332546665354927,-0.0492659373239098,-0.00225886145298776
-0.0558125498682965,-0.0607845713445629,-0.0606259901628552,-0.00287815114561168
-0.1281523232374,-0.0587510530238268,-0.0564025974706316,-0.00382142884717843
-0.154595723819906,-0.0456792648788781,-0.0422969682525558,-0.00499992977529526
-0.117436118656619,-0.046780815171849,-0.0298573085015407,-0.00579293370320364
-0.0691665998332716,-0.051348567487632,-0.0236155833804844,-0.0055318585031758
-0.0409528869666581,-0.0363660051498757,-0.0216222515582093,-0.00457507242890193
-0.0207216521695617,-0.00379392359254177,-0.021024459659796,-0.0034936293231533
0.00198259283621927,0.0123625062706542,-0.0189951900653143,-0.00203014229471334
0.0258967804226073,-0.0024466531154488,-0.0114777726801904,0.000655412585242679
0.0488120795717411,-0.0287083240277186,0.00280482429276976,0.0059639933567571
0.0776212558056386,-0.0521436046701215,0.0190792513264147,0.0136547224788252
0.113814194527109,-0.0475304572786017,0.033605472835766,0.019323147815598
0.127183100259033,0.0159629476842117,0.0424370276304356,0.0188217678506531
0.0723281816581011,0.0960933606018402,0.0352456242809636,0.0135331133782177
-0.0396098347113228,0.108349279286402,0.0131024488900652,0.00740531254059836
-0.129710475440138,0.0520048869736272,-0.00984981635467573,0.0019053403007669
-0.144777186938477,-0.00540187449081836,-0.0278890959756224,-0.00347875758885568
-0.107608971999749,-0.0427370812302151,-0.0432970030625954,-0.00864672509268818
-0.0664752071987113,-0.0699917790307378,-0.0522960054592314,-0.0127580016955929
-0.0421399792976952,-0.070247020972288,-0.0470239681078468,-0.0146595502752607
-0.0259999630825192,-0.0361436627318416,-0.0331306074542339,-0.0134650842598139
-0.00812518724864957,0.0053262828512123,-0.0238869017468685,-0.00959841641914598
0.00680679822891822,0.0221536286619271,-0.0190859487679522,-0.00447394781248566
0.0140900577090415,0.00513129575559255,-0.0149333344310821,0.000687233886910029
0.018402885617272,-0.0169540432112701,-0.0150155825621778,0.00506442605179922
0.0197355747148797,-0.0112864701790077,-0.0189143017854587,0.00808390729854551
0.013351919402963,0.007440288366799,-0.0188840984151981,0.00999401142126904
0.00237544890075332,0.00499059806522038,-0.0114279407891038,0.0113314383232387
-0.00749632784318524,-0.0169434579117139,0.00100467757696126,0.0118618618015752
-0.0137472118954118,-0.0318666044755447,0.0178019736274758,0.0113459391717131
-0.0186299740467231,-0.0290639536284055,0.0286818240561377,0.0102838918730613
-0.0265565535319086,-0.0112667775141774,0.0223462720967828,0.0090233681189659
-0.0344339314369832,0.0128838505162812,0.0107876411116273,0.00740731082543992
-0.0344484220935442,0.0219717913713267,0.0106568156000973,0.00580671409375578
-0.023412012075182,0.00945702344164536,0.0193747881833226,0.00476786803042968
-0.00925627067494039,-0.00449287548009529,0.0247070316986171,0.00391742180747714
0.00174172839479809,-0.00546959729230595,0.0237984395067358,0.00281639223946576
0.0128471566941634,0.00527674934898893,0.0194675565610539,0.00164654625831748
0.0138275348612144,0.0178430692413899,0.0120003830011625,0.000823119422656273
-0.00206269022289991,0.0222532479331397,0.00287185715888459,0.000593922192326828
-0.0135195534225134,0.0250395869229924,-0.00446788590809203,-3.13652634601526e-05
-0.00833445348309144,0.0351970417508912,-0.00795958344620331,-0.00219267217864715
