0.0208323468588626,0.0268068023615962,0.0158801519207124,0.00330086739644539
0.00885567517481766,0.025896816653779,0.0170277002633662,0.00208260011536966
0.0152477980508536,0.00880115089692865,0.0194821157643015,0.000375973320358228
0.0200445806323917,-0.000500267722694679,0.0190506063094456,-0.00165986197964918
0.0152653905635928,0.00570753663664999,0.011639303593278,-0.00364773601999841
0.00757563143614996,0.00969480421322407,0.00179429820330565,-0.00528529709446409
0.00570769025012479,-0.000813995784245019,-0.00767049175148078,-0.00596222054547683
0.0136501503519058,-0.0210795904490782,-0.0160527378648207,-0.00509420880194423
0.0244074308080293,-0.0388999536754938,-0.0173112500691793,-0.00332701494191271
0.0295125460067472,-0.047370534185024,-0.0132140747273718,-0.00178708223087713
0.0323874320517761,-0.0456583061828297,-0.0128379565639427,-0.000805615008025407
0.0367761963159579,-0.0332188654399751,-0.0161965477060231,-0.000551248076555866
0.038121186819643,-0.0141045896135732,-0.0168281235802253,-0.00126237752351049
0.0374852694442784,-0.00124378271408072,-0.013181368868935,-0.00216776002466208
0.0397906308020637,-0.00459574644542063,-0.00859872706339275,-0.00203137840653674
0.0401158460092574,-0.0165903457207573,-0.00503636810675516,-0.000726379819053196
0.0304699472134862,-0.0228308688813933,-0.00298295237109259,0.000850611463236763
0.0113120220380883,-0.0217546924208172,-0.00296573402516767,0.00202912509911831
-0.00566912595892061,-0.0181500077133896,-0.00305865597682219,0.00267483611640011
-0.00748463528763286,-0.0149767048221605,-0.00088173136636943,0.00266981450868813
0.00379674538628797,-0.0144008422054634,0.00285963380125204,0.00217653464515821
0.0156922697206614,-0.0139769428101904,0.00458713218291649,0.00158073787553888
0.0199322582819828,-0.0109781039302924,0.00294129192346494,0.000995980909904433
0.0183936550731048,-0.00730531483213089,0.00157867832560547,0.000308579551869088
0.0173194761823195,-0.00261399252273189,0.00130933000671476,-0.000461248924724785
0.0166687974215004,8.6140080153156e-05,-0.000391751808661982,-0.00101840289515113
0.0143091908608778,-0.00695966665474344,-0.0033645792758436,-0.00130452127025733
0.00617766028756411,-0.0198148447767061,-0.00496551132141053,-0.00148683683615263
-0.00738627142193417,-0.0298854647800677,-0.00371738757663488,-0.0012664290596242
-0.0143993152387008,-0.0339612492168127,-0.00112654342435731,-0.000359880059924594
-0.0101172293265414,-0.0295880122565726,0.00142185813825411,0.000900239249939626
-0.00302243577567645,-0.0202255745020467,0.00225722777630269,0.00198472075816285
-0.000351611514411446,-0.0134060182031724,0.000747263898649842,0.00255159516433534
-0.000403951950579441,-0.0117462760839146,-0.00133486914649529,0.00236125473090651
0.000595606825610415,-0.0134892073809764,-0.00199286050772669,0.00103423990370587
-0.000342700771217733,-0.011054175531032,2.99731841263209e-05,-0.00109895948014276
-0.00675403333184745,0.00138121345401327,0.00395784749786694,-0.00283456371204516
-0.0135535437164933,0.0148479614363758,0.00576285139735263,-0.00353329780755968
-0.0147644696939612,0.0209980584760447,0.0028075782132615,-0.00332199962092078
-0.0117106311420729,0.0193884464891483,-0.00242843104977025,-0.00266057126188671
-0.00514697174907314,0.00828390774962053,-0.00710754445197038,-0.00206836253752059
0.00407251596901523,-0.00478061187610925,-0.00968541395830309,-0.00126161868911599
0.00806196309699518,-0.00723377775569902,-0.00829202321848522,0.000186100185306421
0.0015393127572288,-0.00156372094261457,-0.00477099836080985,0.00185556144224755
-0.00840131513572367,0.00109111377391721,-0.00199784827788973,0.00320633727354312
-0.012051508461924,0.000216646993034209,0.00395620830448371,0.00392814901696183
-0.0129076414675159,-0.000349718882336645,0.0116923788642749,0.00396667868488637
-0.0176052187132744,-0.00120650399057452,0.014797719884974,0.00325893515430554
-0.0240608792484379,0.000674266115497524,0.0140003543479178,0.00188512996215365
-0.0290243255829759,0.00641561643794522,0.011325771100651,0.000735812988890191
-0.0264522839867014,0.0114285179319737,0.00890995871431362,0.000365018853852655
-0.00938250158387589,0.0142648733444954,0.009605306566937,0.000434271386756179
0.0117471862628882,0.0183676520597906,0.0107108144942592,0.000773067932792106
0.021362155737648,0.0225231052926378,0.00675600843885241,0.00112997520418531
0.0210336383747822,0.0177158300632637,-0.00102865862968584,0.00103095777258063
0.0151855556254618,0.00713428868161252,-0.00467334696573485,0.000510709304953923
0.00305988226091196,0.00373821707497779,-0.00181825583427847,-0.000273634344381773
-0.0121799345801077,0.00343509089950238,0.000263452721872264,-0.00134744949025496
-0.0196327520738822,-0.00522151448953097,-0.000319343853449278,-0.00259214895232547
-0.0169841818540538,-0.012933878835684,0.000220557364360545,-0.00339360365739547
-0.0144346593081905,-0.0046110947220699,0.00261188399093988,-0.00310388817541513
-0.0136204945600595,0.0111990865718804,0.00515490025765017,-0.00193054145822459
-0.0121915586723708,0.0178223243168242,0.003907181041851,-0.000645006818520834
-0.0139558687152563,0.0160740917420272,0.0013980927924196,7.59408405344619e-05
-0.0231329422232409,0.0164265173423043,0.0039485234498604,0.000102989917437129
-0.0344635559891651,0.0200258393455611,0.00894643894046615,-8.75673078282518e-05
-0.0312608666126464,0.0184494225301471,0.0103780414269908,-8.83089139533893e-05
-0.00178863438792819,0.00139077630630219,0.0040994564904627,-0.000150482171629788
0.0377796984552378,-0.0220696194615179,-0.00644806591173267,-0.000649120335408083
0.0534091623412515,-0.0249683645887762,-0.0118288492136849,-0.00146780378556405
0.0430172325161399,-0.0129096460623073,-0.0144004682144537,-0.00207214385112794
0.0300729585578203,-0.012548414888346,-0.0194191879996269,-0.00201029843335006
0.0207535381683671,-0.0189949104836247,-0.0208479079607575,-0.00172079551314864
0.014235592235614,-0.0154385208257917,-0.015317841764575,-0.00173595565197645
0.0107048869474796,-0.00487681324868242,-0.00673729148793477,-0.00162218239392276
0.00679919280720528,0.00269381530137222,-0.000697161942657898,-0.000906906077262927
0.00634128229561175,0.00517360677266882,0.000791790335274154,8.00815808754123e-05
0.00859320107534695,0.00616377842074143,0.00213871600881774,0.000636267054131366
0.00276805791614576,0.0122310554483093,0.00535928985144219,0.000548548547286596
-0.0094672110108384,0.0292785298289312,0.00839944003777742,0.000125041143957575
-0.0178628756478404,0.050504579352553,0.00910604788767294,-0.000358221255427013
-0.022131903892514,0.0589042190146474,0.00740260106856046,-0.00083722722534488
-0.0235192529401662,0.0481162105950098,0.00494830322259664,-0.00134595809279354
-0.0170914747110072,0.0270506406109596,0.00242144914361174,-0.00172295116454971
-0.00366401841727844,0.00893229860531213,0.00172298954551239,-0.00165739265306681
0.00801059181136628,0.00533020587364905,0.000776024182874788,-0.00125304089485406
0.0130651839688956,0.0151432589898342,-0.00436094846484424,-0.00103809321911488
0.0167389907202879,0.0231095784474967,-0.00791536235939901,-0.00106312244500809
0.0195792747529688,0.0157722967941103,-0.00552976171257292,-0.000720229093606776
0.0138312260945245,-0.00227763583661379,-0.00211227144400588,0.000267089585377831
0.00492720008836998,-0.010142936837045,-0.000623245375642065,0.00152674887062383
0.00216526578556196,-0.00235023468118218,-0.000835396723764883,0.00246224428085939
0.00418652471719775,0.00414057142465733,-0.00209424657218366,0.00268317900633754
0.0122136520711686,-0.000590007745161006,-0.00308671140606433,0.0024907521640748
0.0261998613186204,-0.0139188319478801,-0.0056706487838117,0.00269404806703416
0.0378451090082781,-0.0350559807854455,-0.00973064999748,0.003778830635926
0.0400337560352163,-0.0628783749343487,-0.0121312978436139,0.00482475777158867
0.0324707745515328,-0.074064483135466,-0.011128973580615,0.00419593586863412
0.0220995995422909,-0.0433443825240716,-0.00555555319038177,0.0019868200773201
0.0162772865581688,0.00596115998629269,0.00136685321281947,-0.000345841043547362
0.0170847347559824,0.0353192719994495,0.00373386136647108,-0.00217103301783694
0.0184889218778364,0.0389587016287851,0.00236616993941148,-0.00345432811903802
0.0126008770559737,0.0319875492640758,0.00245914817315217,-0.00391277563826448
0.00153541436358996,0.0343248748117745,0.00335686075513144,-0.00348004832439827
-0.00862151019691846,0.0482393268404397,0.00579452355086636,-0.00214950459617131
-0.0223569088406572,0.0657128302760989,0.0132989004039997,0.000358393237419289
-0.0446950015764123,0.0816700459192073,0.0201601032865039,0.00338673379963053
-0.0609430757581068,0.0786502902025338,0.0196609080529327,0.00544665789005692
-0.0543473505902556,0.0540184892288029,0.0143494212826124,0.00578827871491974
-0.0354670259350638,0.0301795069885133,0.00998025520600527,0.00469670853897393
-0.0265201068825642,0.013164218730917,0.00871939133603244,0.00315243225283332
-0.0328456251782574,0.00270984207465767,0.0075520886870918,0.00190062587376913
-0.0463598056017886,0.009034902793417,0.00538142942693819,0.00102270154627768
-0.0528627560938839,0.0185388114105459,0.00341661883540189,0.000676503623152877
-0.0423993205820448,0.00582868374309056,0.000604298683091361,0.000918358298651849
-0.0166227919741385,-0.0253414876519598,-0.00488926743727154,0.000793514033081131
0.0157538775846682,-0.0421632393811181,-0.0122093955584997,-0.000564202631703751
0.0482914510349054,-0.0231088950286626,-0.0145193584600136,-0.00239397681198709
0.0754682156765706,0.00573488460867195,-0.00917822408544858,-0.00290373068448957
0.0807331321405287,0.00440000951524444,-0.00218936221937456,-0.00126756350217034
0.0619334778515793,-0.0210407569496753,0.0012239660067007,0.00103396788482537
0.0385179857390065,-0.0395668692390174,0.00116159162114403,0.00230854424205975
0.0250428481337936,-0.0516017827778473,0.000222277475450326,0.00258929939473107
0.0190351021590673,-0.0593112381123728,-0.00190049336354009,0.00239988978384948
0.00797238849055276,-0.045206031921278,-0.00613577220852303,0.00185231461665141
-0.0128852050779298,-0.0153999504595732,-0.00873616571684011,0.000792949674969558
-0.0425007503044156,0.00409799302146847,-0.00630204864015253,-0.000851103242241052
-0.0697837033423534,0.0122900835900308,0.000351860762229692,-0.00236321405051506
-0.0827089089342716,0.0225449180922107,0.00550403459183106,-0.00283207901964084
-0.0829100214853424,0.029529212344686,0.0049473814989896,-0.0021286583630974
-0.0694044302963115,0.0266028939711926,0.00295196172668562,-0.000777163727540424
-0.0434654507029604,0.0141556819647256,0.00103561699245865,0.000319047559213331
-0.0159201730707553,-0.00936876042778418,-0.00364936228014498,0.00035388671398796
0.00451998768364585,-0.0340734390953801,-0.0100112420944339,-0.000932828826798261
0.0154612262255627,-0.0405217825118691,-0.0129961398889516,-0.00284474827346528
0.0206776822135286,-0.0314626899964728,-0.0103077233006719,-0.00405323616880646
0.0300913122494168,-0.0261639105410369,-0.00534319536456438,-0.0038574993483769
0.0428343745429143,-0.0288431767281562,-0.000523225701030382,-0.00238048057985205
0.0441032933311515,-0.0351674404841518,0.00174873421781684,-0.000312886966743865
0.0355357372885178,-0.0387080213168809,7.45322602807193e-05,0.00115526436069237
0.0282350602563361,-0.0298809812392691,-0.00187313391219121,0.00138457958280823
0.0211866805550783,-0.00733403966798457,0.00100412128486276,0.000692062552561706
0.0110257639380813,0.0153279228789466,0.0082746179524398,-0.000303933766370861
-0.00160393921129926,0.0230259985359859,0.0106234298238364,-0.00115080528461739
-0.0153639595315243,0.0168487970381114,0.00183409882212554,-0.00177993048988633
-0.0241213265284668,-0.00422679051562006,-0.0123870277078506,-0.00229067099620453
-0.0212272110794889,-0.0370870772562532,-0.0224784960043992,-0.00288027226875406
-0.0131041052306244,-0.0564023190650822,-0.023360407328748,-0.00327946286842145
-0.00718698659839413,-0.0548722130066652,-0.0179829400790064,-0.00259081167696869
-0.00407618628469977,-0.0500219420311439,-0.0130174734208054,-0.000797961101020618
-0.00494250531533125,-0.0634370421033174,-0.0119021538564022,0.00101384026820359
0.00118599260911768,-0.0897584866022288,-0.0129216700137803,0.00182292493646223
0.0277094487984478,-0.0843385745479953,-0.0111493444109834,0.00170953579120282
0.0568270467362578,-0.0374562220491317,-0.00686746909111182,0.00158552008831699
0.063040914017375,0.0141126587531223,-0.00591048461668763,0.00164378426018548
0.0491051985778872,0.0441612061359909,-0.0109081335427545,0.00132624564821884
0.0320213034566809,0.0532054612657319,-0.0139861765317823,1.78057811465451e-05
0.0224423609598009,0.0541913711235469,-0.00633998846454117,-0.00226342993015639
0.0162860252296846,0.0479553599461472,0.00624452088693761,-0.00433351186474976
0.00381636962489014,0.030713660981731,0.0132376017418503,-0.00505778627098668
-0.00606993354242301,0.00790030327102768,0.0116666372792401,-0.00460129992177555
-0.00548728561328501,-0.0168723258402607,0.00441196416455297,-0.00387179751205019
-0.0147670311605529,-0.040430884852559,-0.00292264558920878,-0.00335642997982061
-0.0425436190096826,-0.0473726301181577,-0.00331148078167367,-0.00275463059575301
-0.0694722699761401,-0.0258890887449457,0.00468113685105492,-0.00120361767383405
-0.0766580536073363,0.00553542155948717,0.0114218663686874,0.00165256675451543
-0.0619307937386896,0.0213301115273431,0.00963940772299631,0.00453589083595279
-0.0405842193463444,0.0205907667866078,0.0044906959742345,0.00596013677269562
-0.0263249115474457,0.0111907239272809,0.00228606260774361,0.00586921011972258
-0.0183286341590832,0.00049722126327139,0.00291088162597627,0.00495401683410484
-0.0109923107718824,-0.00223813367109558,0.00467942951419223,0.0037564528859166
-0.00601941395674867,-0.000778554193367574,0.00496643512803035,0.00243754390182958
-0.00168110926585949,-0.00415271581001246,0.0031623310153417,0.00113348079738212
0.0100188797668206,-0.00522648362346082,0.00322791562856298,0.000247745110101517
0.0213995403975042,0.00787603055088299,0.00581223454118251,-5.41472370244075e-05
0.0254699706114134,0.0327898330387617,0.00740375559460342,-0.000346037415867522
0.0355579444881337,0.0581918318511597,0.00675700502916776,-0.00108214342956639
0.0500556647297355,0.0714019119395691,0.00328412084032905,-0.00162116837725798
0.0446153629110813,0.0684600294267579,-0.00256663077478922,-0.00143608641111816
0.0152488371305248,0.0618634217697275,-0.00321264721990016,-0.000921764239052514
-0.0130709076486839,0.0568357944764251,0.00462371064098983,-0.000244314162425481
-0.029511842036137,0.0518974837353775,0.0138194032325492,0.00092888737085136
-0.0425545598243474,0.0549556060119497,0.0196195923043826,0.00243919293378738
-0.0475097661978036,0.0592253360371656,0.0205959407426331,0.00342111591173765
-0.0359980496207476,0.0440053181027063,0.0142343906773804,0.00347856138475246
-0.0167219754670593,0.00594250953498017,0.00498706234602628,0.0029858377683716
-0.0039559459851669,-0.0287518964202857,0.000971044881138796,0.00195631283498703
-1.56939081922105e-07,-0.0306323854547835,0.000268206756871493,0.000526361173389856
-0.00060766806896273,-0.00788759316459971,6.34518873402749e-06,-0.000567375142846243
-0.00172424601006999,0.00723245424768152,0.00205441618808529,-0.000981981897230409
0.00660554840000217,0.00139079603317141,0.00523493746691568,-0.000624755095588142
0.0152984521443449,-0.0128678710800644,0.0075106695683188,0.00037943986408525
0.00393334332898847,-0.0168882821161616,0.0085656071860948,0.00138566571915608
-0.0165198060034297,-0.0187740796405263,0.00579014614445797,0.00156550574550015
-0.032335633623888,-0.0295759955726536,-0.00125114003672455,0.00032509960960276
-0.0492160860017044,-0.0178075588885582,-0.00358066413934022,-0.00171197687548769
-0.0627667963625332,0.0263244606999717,0.0045886980595185,-0.0026486598169187
-0.0558671189506215,0.0620744991010465,0.0165533064667378,-0.00118012997010629
-0.0253640185827074,0.0633248316210108,0.0216149812259763,0.00206658604005019
0.0103725862740152,0.0393151070476962,0.0139289729226288,0.00473219650859253
0.0270209089878792,0.0109504150396429,0.000760590192939312,0.00457767369434229
0.024754525633293,0.000124288835236242,-0.00505666588504542,0.00202912944604121
0.0286739686151089,0.0154124594455906,-0.00345260513557823,-0.000455278621614117
0.042349054822588,0.0311876310202481,-0.00236709917912476,-0.00130237701991938
0.0490278510003955,0.0266789529447933,-0.0034164772698301,-0.000797634111480111
0.0398979684811468,0.0142585475535528,-0.0043645902036264,-5.6590691565444e-06
0.0120219772886196,0.00999972341149337,-0.0036311259536216,0.000211176502102258
-0.0193232246950385,0.0126989101411944,-0.00157957813536146,-0.000150068518179434
-0.0286014133470661,0.00345628475838577,-0.00305407443113216,-0.000193234172995954
-0.0104453999297794,-0.0396091956529498,-0.0127863288111072,0.000460287014966154
0.015287502432148,-0.0935913996877418,-0.0234508673907062,0.000905660086424808
0.0205687216352936,-0.0948216672213077,-0.0217848155653522,0.000369618143085314
0.00378122289627385,-0.0420938007392346,-0.0100832031519682,-0.000680937470621107
-0.00998747715447894,0.00111327935214252,-0.00224134737596147,-0.00177224275051024
-0.00536564712295791,0.00342362076226247,-0.00385040880368281,-0.00319507397278917
0.00939927937819351,-0.0192248713235371,-0.00658087002338374,-0.00455550279641012
0.0249807984338115,-0.0448440001708437,-0.00481941384999102,-0.00459319466784271
0.041070606108298,-0.0598582101776903,-0.00422272650977461,-0.00327354048192421
0.0474514302070048,-0.0536002167994744,-0.00689872921895275,-0.00220633960013474
0.0346032135424829,-0.0346261867442013,-0.00938258802491325,-0.00231271555461537
0.0125472922619254,-0.0248261858576232,-0.0109529839342491,-0.00284612878210386
0.000199410433235472,-0.0273832248657513,-0.0109254381600499,-0.00276115557506604
0.00788555397186004,-0.0349095952557746,-0.00909967874443822,-0.00169039782918363
0.0210104640756063,-0.043637033513513,-0.0088499161364688,-0.000382414699013091
0.0179616148910221,-0.0461620854379592,-0.00939933027709692,0.000382464830767066
0.00362895295433131,-0.0369815426683247,-0.00612715328299368,0.000959735200914716
-0.00251865150797121,-0.0189708243014031,0.000599732644199861,0.00184244715215784
-0.00205994207512811,-0.00120174391796121,0.0068482477147152,0.00319209333217882
-0.010879981111179,0.00590929844792333,0.00876575936818292,0.00454044210967657
-0.0239481145499045,0.00390456711668923,0.00460057339706435,0.0046431658736246
-0.0230290241709101,0.000598995709802958,-0.000849883798653389,0.00289880084537746
-0.00976481127110911,-0.00742022869353018,0.000258829457360884,0.000676168925461833
-0.00286054378562709,-0.0215859598965528,0.00657233061874983,0.00018694864985776
-0.00564607073057969,-0.034368136246382,0.0104642077965602,0.00163591404010473
-0.00663606228568303,-0.0490435199284227,0.0111068031882412,0.00328174150091236
-0.00248913237563337,-0.066219840342394,0.0108144862409667,0.00386907400113858
0.00315615429835568,-0.0718012246256821,0.00663185556783516,0.00292629372084125
0.00903672956972658,-0.0618470040708403,-0.00271078117801343,0.000355078180690298
0.0176356035667095,-0.0462071451322632,-0.00860220867024971,-0.00320870903431021
0.0302094572180301,-0.0227493758313178,-0.00737946612485454,-0.00631054465310496
0.0406287195080615,0.0142350537572235,-0.00539174228866567,-0.00738244881444231
0.0414548135950905,0.0475584688956749,-0.0031754545615479,-0.0062740578681224
0.0381990362005174,0.0543711183403457,0.00108258713047876,-0.00432560248675402
0.0393518111567744,0.033033547228957,0.00365129898231756,-0.00295170921825021
0.0341031721421797,0.00765737388663256,0.00325119367288447,-0.00225761752769757
0.00637854825204453,0.00109520928236863,0.00513562335198323,-0.0014539093263665
-0.0336820802301232,0.00861319215250146,0.00977227800312085,-0.000633954591628501
-0.0546719048895146,0.011613393709667,0.0122112986594893,-0.00018413039484236
-0.0443160753213939,0.0011675026129443,0.00982957412884949,0.000610192672506005
-0.021445216906351,-0.0132486445128721,0.0054705913483998,0.00240410560215255
-0.00214372400094926,-0.0175176829154168,0.00519101728719972,0.00458882317305912
0.00583254546020569,-0.0106964284617736,0.00883361294126718,0.00608096607221835
-0.00444451992565383,-0.00353004863867756,0.0110441855356391,0.00618545020660375
-0.0219814296314553,-0.00372070516208644,0.0121960360514613,0.00516889081201925
-0.0296692625815846,-0.00390866939261493,0.0151535500013535,0.00404388592836822
-0.0277295670179546,0.00601258798686708,0.0163277602185047,0.0034291041972287
-0.023347491430197,0.0251396063093425,0.0150908808071514,0.00312880313940135
-0.0213801207089335,0.0466437011206158,0.0149114943548592,0.00244123073497634
-0.0191171996150178,0.0601662776194717,0.0142685980947839,0.00106389891593023
-0.00851121340601559,0.0605580490970917,0.0118681644540841,-0.000838988946333085
0.00599193989401805,0.0579999042230519,0.0102591248997142,-0.0029388483043939
0.01733175371897,0.0590285004944109,0.0109133220609484,-0.00422148635762885
0.0220646827553939,0.0543210497951576,0.0109873069096006,-0.0038834870451186
0.0208900342124201,0.0284769835183221,0.00256152040023235,-0.00270208503866245
0.0242522077294025,-0.0105565495093991,-0.0126518145089501,-0.00214288730761947
0.0279683522418495,-0.032856460686491,-0.0232734693413968,-0.00268846535970884
0.0167796419352224,-0.0367409936318804,-0.0254611251813401,-0.00394388079119424
-0.00793837804399591,-0.0320575800696673,-0.0210444600545295,-0.0052149953659904
-0.0312336552730874,-0.0239976716404707,-0.0152832911163836,-0.005816470642536
-0.0412312709844423,-0.0221884871484192,-0.0137540378789431,-0.00589907120918799
-0.040481852514277,-0.018676527478351,-0.0128274252333804,-0.00601974006051111
-0.0374737669380509,-0.00342003821103958,-0.00416941129080452,-0.00561805500315783
-0.0327515788189152,0.0158961025467004,0.00768564941469661,-0.00333149785143602
-0.0227203193461587,0.0246379046918637,0.0112684428466766,0.000902381564739917
-0.0084255773239264,0.0212345700390609,0.00755059042323575,0.00526881205598527
0.00640074331115156,0.0187457964118851,0.00222368822380264,0.0077152838326654
0.016948945102615,0.0234284979221018,-0.00323455360344847,0.00744260439696352
0.0210075968464532,0.0255266744900375,-0.00622152913786728,0.0051226208824704
0.0228381775974875,0.0197794583981005,-0.00762755209014299,0.00223317431406979
0.0225481592620376,0.0153851228230662,-0.0128729292512715,-0.0005519101499548
0.0174143521272232,0.0113408328710424,-0.0197352866224717,-0.00382020983299883
0.0113529149472292,0.00242869834185629,-0.0211456616724361,-0.00715816507127289
0.0102481665865723,-0.000205513973464634,-0.0182875176019348,-0.00880767869167079
0.0129349123601602,0.0114188761619087,-0.0135505562222597,-0.00763577586648519
0.0104375893577491,0.0216061898431289,-0.0057467556349191,-0.00393512210709665
-0.00279321296912772,0.00946070655395187,-0.00166563818548677,0.000628101017318193
-0.0201880445502105,-0.0182633018944017,-0.00487074282734212,0.00381693477221905
-0.026472091670446,-0.0340317999739592,-0.00705781775184877,0.00467872468279515
-0.0217097941732329,-0.0261503761591132,-0.00337435264935303,0.00430001567650233
-0.0217957691490343,-0.00289426741322201,0.00394336661418478,0.00384939236833993
-0.0275754792749317,0.0256399838771902,0.00887852705668608,0.00324332784745099
-0.03164102676269,0.0484884843319061,0.00971739644612166,0.00203715902956879
-0.0333262662378899,0.058924639160159,0.0089570354935239,0.000201183239547415
-0.0339862066242004,0.0659508115988249,0.00869541290286917,-0.00165760516795191
-0.0370238595367023,0.0777792665036905,0.0124652142635059,-0.00219837233885283
-0.0376684369855625,0.0868053850473288,0.0159064472719947,-1.09744427672378e-05
-0.0216412307813171,0.0850162432566888,0.0145790418049386,0.00445458651786236
0.0132996714912317,0.0738645298231962,0.0109498353217586,0.00839492545987323
0.0555683520878116,0.0645773697939707,0.00687730381873507,0.00943078434291624
0.089055961125694,0.0498954684758898,0.00496321845866371,0.00764586501303127
0.0964650093724671,0.0110549948248298,0.00279321057282918,0.00435471002501145
0.0841290234987159,-0.0261558815840217,-0.00423280440952362,0.000707487088818131
0.0756271614135454,-0.0332738903540666,-0.0152568697220861,-0.00305206272778176
0.0682181918367472,-0.0318797877280079,-0.0219379607349095,-0.00690926272999391
0.0501187417666758,-0.0445787614496931,-0.0125098858724036,-0.00902487742698815
0.0245445764372488,-0.0606256226037188,0.00575635375411287,-0.00735735504958807
-0.00616638837360269,-0.0821124269751631,0.0151449520578912,-0.00323497796409066
-0.0553768242387478,-0.113694311439056,0.0172106282227323,1.36473035006659e-05
-0.124982236689687,-0.102479792486556,0.0210391555811944,0.00194548694512955
-0.166176208305996,-0.0236512808278458,0.0216060439372148,0.00439162743309744
-0.136963613081847,0.0558214313403259,0.0110303761811752,0.00669145608061807
-0.0624947572503417,0.102944537160463,-0.00246025007005057,0.00694752272604669
0.00302327376631892,0.150841717193273,-0.00080273948314497,0.00667209942885264
0.036744155000344,0.200454864918737,0.0195672036804976,0.00909003704742187
0.0477168951155137,0.224111412194074,0.0388670245016229,0.0140718048773545
0.0417896609143973,0.208505714316922,0.0412943675171654,0.0174921995916901
0.0227965956835252,0.161401922299213,0.032398327766628,0.0150971123228365
0.00497152739813506,0.10964469765323,0.0271518722804474,0.0074035765312918
-0.00625560022723764,0.0796932323281108,0.032054338894705,6.82536799502045e-05
-0.0229418854977089,0.0630563435479841,0.0338527686986901,-0.002821749387797
-0.0376664614714572,0.0251130072406434,0.0229249463499191,-0.00468380517812952
-0.0236269441736622,-0.0335150510761772,0.00559884135195873,-0.010498791775105
0.027612279864069,-0.0921941586316533,-0.0169664304094569,-0.0172021430330916
0.0992526078863903,-0.160826664053417,-0.0414023410713912,-0.0177926368062212
0.143654319374988,-0.231658791110073,-0.0519754226183978,-0.011381151540289
0.11687118035658,-0.253549581581241,-0.0462310764156309,-0.00423339850053166
0.0325017852364709,-0.198290069644543,-0.0383476675874094,-0.00285132037334727
-0.058390538000865,-0.0921910048929775,-0.0289974742202529,-0.00717099465466202
-0.110775389935732,0.0317807933509157,-0.00773692512964842,-0.0105879819833561
-0.100295366318804,0.133485617512046,0.0172776661818745,-0.0069719609744588
-0.0396629997051286,0.15949286730622,0.0284140771714168,0.00258063915145328
0.0249127895694286,0.117978865107157,0.0262577344456226,0.0118081508067923
0.0626445567324585,0.0568297294144718,0.0221002399200312,0.0160048892366234
0.0638850186361855,0.023183378690382,0.0231969749198585,0.0148238419705381
0.0204894940756578,0.039051294023027,0.0289267128491834,0.0109517438106675
-0.0301269474011597,0.0573935550611663,0.0303790351205593,0.0070957966624977
-0.0213972534604213,0.0502428442542753,0.0237392719228653,0.00377045920491949
0.0357526016146274,0.0488814957241667,0.0134243735619061,0.000245306271647225
0.0704428054856274,0.0436294406920898,0.00371710578629945,-0.0029875674238901
0.0592507868504001,0.00202332895910809,-0.00388674312915784,-0.00574750140232563
0.0348205123067383,-0.0568312296852524,-0.0144391306780049,-0.0102235825971309
0.00960099620397223,-0.113908684750928,-0.0322598074719284,-0.0167459246267942
-0.0214341001977513,-0.147366644234231,-0.0484507954579262,-0.0221762998694356
-0.0334125995087133,-0.125162659661912,-0.0501489365416876,-0.0245891573869546
-0.031520957903686,-0.0759779243574222,-0.0372880404046122,-0.0228263234612729
-0.0446920946127129,-0.0233031304175053,-0.0174349817085163,-0.0145916807198294
-0.0460187265098677,0.0325449429852687,-0.000561710723966741,-0.000191578609203286
0.00245193142064762,0.0560874880034066,0.00653403683768063,0.0151543686173428
0.0711547791886356,0.0465369487119834,0.00748530307707185,0.0247295859310251
0.098111455012534,0.0306977941761358,0.00536368451055805,0.0253173528916171
0.0683305028967147,0.000326157957771359,-0.00227773667332572,0.0171525755725459
0.0194470034854614,-0.0287138428312295,-0.0126423219486947,0.00193568558195232
-0.0173064441910489,-0.0304648249341457,-0.0155810094142838,-0.015241236856298
-0.039795802002341,-0.0262975245811556,-0.00446739825329724,-0.0266578419397923
-0.0431341505637224,-0.0258785678485732,0.0136348663881759,-0.0264835995742074
-0.0225948674082597,-0.0243303525492517,0.0220137101842114,-0.0143622707256534
0.0111835312324249,-0.0337371016291351,0.0161510807742731,0.00204388705577731
0.0356614515972774,-0.0532777411313707,0.00664574800819,0.012538077850239
0.0452417944467578,-0.0631923222114683,0.000903602625856674,0.0137970675560268
0.0589002877673441,-0.0566143855459007,-2.37014429036245e-06,0.00908188967557406
0.0811410559001451,-0.0513805642578525,0.00192716319818608,0.0031240920852385
0.0929061530299185,-0.0677780063618043,0.00309265162507686,-0.000505106270571876
0.0736134122626121,-0.0784178439668085,0.00303063330898911,-0.00115416390972161
0.0154913904008313,-0.0482945586555966,0.00201268782761712,-0.00028361911293056
-0.0709977670000899,-0.00878102111488033,0.00113898563604686,0.000700682019248474
-0.140841593427124,0.0128993843184475,0.00211021666479807,0.000718829240265035
-0.150649905534208,0.0196424270747496,0.00487558639576421,-0.00027875346481668
-0.127405978310893,0.00958641106884971,0.0118762056340018,-0.00128434777432682
-0.113103427091693,-0.00156878139655752,0.0181876858615701,-0.0015248284857142
-0.0852469815967133,0.0085568123230939,0.00854768245897669,-0.000704556493066598
-0.0314346750174524,0.0363050816692586,-0.0189760552408871,0.000774347792507906
0.0167725985226368,0.055875664101719,-0.0358122049825237,0.00124127605048531
0.0474250375466105,0.0449465963172648,-0.021682060982582,-0.000666356671244285
0.0675446116729225,0.00844738397012021,-0.00304437257306442,-0.00380495581267336
0.0803777169948275,-0.0381476775074349,-0.00384192004802898,-0.00599912613275686
0.0801121299997908,-0.102144962888329,-0.0159917120890044,-0.00632579273239561
0.0606253683394205,-0.160875142259193,-0.0262480441740832,-0.004971892198787
0.0354290407372448,-0.171144042258885,-0.0253460004290316,-0.00260143005888168
0.0266235991767432,-0.151802824753067,-0.0102210472248842,0.000397568060116555
0.025491891710477,-0.128746339155077,0.0118162263737919,0.00412465959957272
0.00828543041758438,-0.0883768397569186,0.029599409937808,0.00774556543702126
-0.0234293184101909,-0.0224646646283354,0.0413199322046614,0.00952416263205384
-0.0497135036254209,0.0468371939305406,0.0490504555727639,0.00884265942215845
-0.0622506742017066,0.0843489806493829,0.0556033907757256,0.00660759697260877
-0.0694258042043325,0.0838564511476246,0.0620278004435715,0.0045863389992628
-0.0672644176835776,0.0703414141535895,0.0544580676325095,0.00425285161847164
-0.0613064504943806,0.0583507937095252,0.0259983826034646,0.00501689622803185
-0.0761379676402959,0.051920247664317,-0.00396115108030742,0.00465883466691408
-0.0899370269955075,0.0565343695469965,-0.0208584837108448,0.00180073749946534
-0.0634662924835352,0.0582795130689012,-0.0299322121810356,-0.00260959524441784
-0.026288869151286,0.0331893722238091,-0.0346538798756054,-0.00680516823274948
-0.0152398542576652,-0.00836474703851985,-0.0364978132102882,-0.00993282631147968
-0.0117817997752943,-0.0314191300916514,-0.0366586607131545,-0.0108110453033455
-0.00806383585593543,-0.019702648563521,-0.0303432952126067,-0.0077905638926365
-0.00949627003515889,0.0175745591706455,-0.0194759076078469,-0.00130767930729845
-0.00576073234015205,0.0565027328566898,-0.00738538269732016,0.00578459827208806
0.00435963379168244,0.0878778865321831,0.00600372799836318,0.0109418163889309
0.0204656938237374,0.111574399423663,0.0151164543802654,0.0133960986437134
0.0339817178755472,0.118371987426844,0.0156932787086351,0.0132989693564701
0.0410443999064459,0.100840298238664,0.00799385206355323,0.0112189662428343
0.049290526543846,0.0581455727688268,-0.00180995975503187,0.00766655834460111
0.0486223350793302,0.0022839421613941,-0.00347643149267695,0.00331718978664533
0.0334035433148766,-0.0436230327781815,0.00493006028500195,-0.000299333685960376
0.0149861126374234,-0.0834282806417229,0.00659975825234676,-0.00254059972684328
0.00406173225547798,-0.121854473633387,-0.00502760091580053,-0.00494066474010302
-0.00851821767425899,-0.116458651559151,-0.00936804827523131,-0.00844073023880717
-0.0254284102325721,-0.0542945333485496,-0.00102383993400891,-0.0108612160593225
-0.0291604989288194,0.0301930534057253,0.00658207891396586,-0.00979987702277342
-0.0131851814513443,0.0900272173397367,0.00649737637668829,-0.00582264702540546
0.00775384734774754,0.0969343664612855,-0.000611565976088551,-0.0011446580769348
0.00639707293800418,0.0810318914524179,-0.00702649444493013,0.00267200657172421
-0.0282452618268658,0.0747315544018437,-0.00996129937812637,0.00529684056499108
-0.0626200810823743,0.0789019108071182,-0.0158805922639493,0.00675335714849305
-0.0528956630641344,0.0760054685950117,-0.0200603744922009,0.00674851581646608
-0.0139264666570877,0.0520907720637966,-0.013546739580312,0.00573800347834503
0.00563741862726093,0.0352518864423577,0.000193444369318837,0.005311340488919
-0.00258329739094859,0.042247533388942,0.0135555981218673,0.00618521833079268
-0.0142937438130026,0.0411894484058912,0.0193141298013042,0.00735680639413696
-0.014983257056046,0.0115387882793815,0.0161459762507869,0.00760401747202055
-0.000815267297933945,-0.033903229627378,0.0109195379575098,0.00643139666631954
0.024007139624789,-0.070371812718811,0.00856228759702438,0.00414969313978552
0.0523249441594995,-0.0948347036973965,0.00597716524501566,0.00158173512135583
0.0719573511714867,-0.119369817182924,-0.000948723949381308,-0.00104587583273297
0.0678111512306752,-0.13065342049135,-0.00984798017823706,-0.00373435469643666
0.0395233616173283,-0.109908789851151,-0.0171263506740381,-0.00576341426007926
-0.0147783250649589,-0.0636534034439522,-0.0163177952385409,-0.00643147412448657
-0.0749417758019781,-0.0215551909429255,-0.00923864376355078,-0.0059453828205893
-0.0842644517195351,-0.0205660302366003,-0.0123756095448311,-0.00565125000965284
-0.0360876860168938,-0.0418302974297001,-0.0262831328147266,-0.00662162209319439
0.0186607935117725,-0.0233664924916634,-0.0284490921250564,-0.00766486105626682
0.0430455371843791,0.0274691268673767,-0.0185370199397923,-0.00640280759274957
0.0330979275599069,0.0532824963158646,-0.0179422643151577,-0.00317850196091202
0.0105631759477906,0.0512139873141085,-0.023471695711475,-0.000644458535603883
-0.00576218209737015,0.0519154438473702,-0.0197066239636527,0.00103511366660854
-0.004981032225597,0.0538731368255995,-0.00181379702439877,0.00378236150920242
0.00857808223044895,0.0413915999636692,0.0218199943694421,0.00787870024703721
0.0103154425126825,0.00911577364946704,0.0372672520697192,0.0119076826571983
0.00984259680623439,-0.0300936608529205,0.0356200995948031,0.0141113358505998
0.0298970904298011,-0.0509855483785272,0.0158092662794881,0.0129143648625238
0.0492291210144472,-0.0618098495391579,-0.00478127181841802,0.00834501725427416
0.0437914192101119,-0.100987923161827,-0.0145565599237975,0.0020067307022977
0.0249294557828035,-0.140940326067524,-0.0205609220287362,-0.00516723295230634
0.0101962804298717,-0.108252003156572,-0.0219137101315458,-0.0124455062291977
0.00734153312384282,-0.0194843025175313,-0.0174237109706399,-0.0174565676859671
0.0188383691856371,0.0497095344161577,-0.0127639483609867,-0.0174264365142478
0.0304997717463579,0.0530707660872883,-0.0094594107270524,-0.0125026236996329
0.0255819907789154,0.00654968737285326,-0.00811018136411123,-0.00640211548021732
0.00815650670785732,-0.0159278669489969,-0.00843404291532781,-0.00278256724219761
-0.02198405223932,-0.00339749775045817,-0.00480154839560989,-0.00192872523791448
-0.0599799649942706,-0.00443843029439509,0.00252272704192768,-0.00150243420894198
-0.0743098121422104,-0.0109215673097255,0.00609168458809434,-1.30416936732127e-05
-0.0578171921769132,-0.0114151880706278,0.00531847665575351,0.0023664468798347
-0.0293820432603626,-0.0219557529497667,0.00302159125617778,0.00525104305698703
-0.00389265656829239,-0.0183561661808279,-0.00088305812436385,0.00758941662015906
0.00938897427083403,0.0101732781105701,-0.00802501672919435,0.00773862774764299
0.0101311388450483,0.0220981468281163,-0.0174796510495733,0.00536718886345845
0.00332907707614556,0.0140486733865204,-0.0251241277198083,0.00181228286373962
0.00020043712175979,0.0239521197039561,-0.0283629985213779,-0.00174529245172946
0.0102686794548732,0.0580562517909129,-0.0243388844609053,-0.00477199287815433
0.0320647828147159,0.079635519626432,-0.0123608322136521,-0.00594727274778378
0.0504990629347107,0.0625973509560515,0.00162257796440454,-0.0040255724703959
0.0416234239636917,0.0301173574497459,0.0113168853237853,-9.70196433493229e-05
-0.00298640413160985,0.0155515872592512,0.0144327022783657,0.00293392781672157
-0.056409184709272,0.0177375621382542,0.0141654407273665,0.00301600116806125
-0.0807808877125062,0.0244597104913224,0.0146647659991384,0.000593523783454268
-0.0747581728149766,0.032927561297549,0.0139317888928698,-0.00254625162637931
-0.0624629192197982,0.0297930253563134,0.0093844083811072,-0.00536850263737807
-0.0517437086175669,0.00930982189572407,0.00414050950107144,-0.00759223298310297
-0.0415043831394431,-0.0155190018312469,-0.00143842693219516,-0.00834458884682065
-0.0258158992955119,-0.0409658881921368,-0.00954041828239858,-0.00672790510654942
0.00699330646649898,-0.0712468628626686,-0.0181948213096219,-0.00309447473403207
0.0432745015625167,-0.0974568387004697,-0.0262682640552694,0.00108498351634243
0.0511955386929355,-0.100376922188863,-0.0285871109201942,0.0042895053504319
0.0298562889228048,-0.0782734505996715,-0.0194722136539858,0.00612307738218941
0.00812520639262472,-0.0658083085047676,-0.00796673147186768,0.00705968655254681
-0.00371527463318084,-0.0795864658526738,-0.00536273891329601,0.00694798871506768
-0.0115559394970866,-0.0832617778404548,-0.00556064902776041,0.00463024834568231
-0.0158672121215142,-0.052116210524772,0.00450589017168786,0.00022143528255332
-0.0250172464863803,-0.0135525495580069,0.0199858425831115,-0.00305805130509072
-0.0404752070577328,0.00848226382561657,0.0207451226190003,-0.00198082210829833
-0.0502530978803248,0.0253560904994398,0.00733871007112421,0.00256233477628904
-0.0554389101762044,0.0397631928657387,-0.00327602975570879,0.00653226959684278
-0.053616025105366,0.053374174286626,-0.00771638125625,0.00668888994269075
-0.0363272135174715,0.093198350324545,0.000133662189263837,0.00377701011258623
-0.0142503488041956,0.157935033166232,0.0238431765419247,0.00160099940649998
0.00089095352413616,0.190410733282727,0.0434548177700337,0.00200258703672591
0.0219994682677241,0.148833285477234,0.0440325339095971,0.00350431228573609
0.0515233288196109,0.0531943250070247,0.0362295709850305,0.00435877644075474
0.0513540353466015,-0.0237406744749418,0.0336038443739489,0.00387108986539879
0.0101314776469929,-0.0370986464133153,0.0336613865597392,0.00269929146959273
-0.0206029968296453,-0.0313388585232582,0.0342356716655543,0.00232669559336984
-0.00628015258487054,-0.0743290497858105,0.0271750140553311,0.00320085343901727
0.00902119943933472,-0.168391794756222,-0.000478539414812032,0.00380917593797516
-0.0211777303856534,-0.217896006896877,-0.024629833471859,0.00236804161538369
-0.0620881283200892,-0.169890799145066,-0.023386669953535,-0.000565251871752355
-0.0612810838364484,-0.0918397051216285,-0.0186907667735456,-0.00411116162428849
-0.0336805303745494,-0.0205753159008998,-0.0262802631520339,-0.00961666020333758
-0.0218346334780162,0.04717186619271,-0.0374157330557837,-0.0174695232069485
-0.0164907869847866,0.0977979450102752,-0.0424052685577659,-0.0238009265706522
0.0135674297676669,0.128048238721149,-0.0358889485040371,-0.0220901024991006
0.0509320743076636,0.12649918624943,-0.0186753349489716,-0.00985253125235288
0.0553294696762838,0.105492016210662,0.00238971158292469,0.00605286695367477
0.026979511788951,0.0831701405556989,0.020990204874457,0.0159304154132523
0.00533901056184151,0.0510960654901517,0.031195240626151,0.0172967563141839
0.0231801269594232,0.0372354120490055,0.0307154529440774,0.0143946020921707
0.0666248035152045,0.0353495770279284,0.0267721661403488,0.0115605548622396
0.0873170278370873,-0.00348161798147946,0.0258856041129747,0.00962010362906995
0.0684023082226724,-0.0488065251954439,0.0248178321133922,0.00756558170361941
0.0429914169453371,-0.0601781664679384,0.020383571739757,0.00511054710179309
0.032416483366332,-0.063272984775844,0.015193680338468,0.00229834161323482
0.0155077228921818,-0.0629319096260764,0.0128215493402527,-0.00143288665228096
-0.0206943812095645,-0.0265591753079053,0.0161565810989192,-0.00530251122485151
-0.0477599094468173,0.0325736410152123,0.0189187082556502,-0.00685246437707802
-0.039768310222975,0.0685093754350073,0.0136734844812047,-0.00615159182396249
-0.0026829569888018,0.0653718889286708,0.00440762491834678,-0.00596137679662242
0.0419484327610009,0.0542241283795191,-0.0037878512271903,-0.00790366769778455
0.0720119335072271,0.0644561016392031,-0.00802988053857809,-0.0112337295326528
0.085490625276788,0.0771071120014667,-0.00813728433609436,-0.0134058985326483
0.0928775493687266,0.0860264399940194,-0.00392050044220549,-0.0120130805093762
0.0848857572822376,0.0931654005532962,0.00432200993840511,-0.00743922869078044
0.0501775100186797,0.082535240974834,0.0108405159062641,-0.00268083866262187
0.0101783417348699,0.0525452924336384,0.0132266848973577,-6.50649517151963e-05
-0.000146147829147694,-0.00498219066722203,0.00781270945374784,0.00123766544881663
0.0125982535097338,-0.0912106897691065,-0.0111542324988989,0.00305379984328035
-0.000814735251103475,-0.147038890909856,-0.0267206838630537,0.00423023495124014
-0.0382279976468785,-0.126736066535196,-0.0180148098302388,0.0028821342615293
-0.0398845369407948,-0.0798233867384514,0.00243000842919404,0.00167496068933867
-0.00139746897321066,-0.0596826323841702,0.0125689336310466,0.00430464311201264
0.0284130810604265,-0.072066575921974,0.00943048399968374,0.0086990506066799
0.0336275971540469,-0.103616778752992,0.00257445246496842,0.00968300231461696
0.0245016662077532,-0.122415624252359,0.00366550313576023,0.00604769636509157
0.00197094344650848,-0.104405837123084,0.0112644303809832,0.00107350469808723
-0.0181819265595549,-0.070916414526016,0.0115621435126886,-0.00254819199722064
-0.0106962981653331,-0.0372978621453141,0.00185154649300894,-0.00496277391750769
0.027293606609216,0.0297385769245437,-0.00786830300437509,-0.00654826499979907
0.070432934091543,0.107324967641799,-0.0124193417499743,-0.00575025643302645
0.0851198473740158,0.115295305131333,-0.0155985486456916,-0.00181327219712028
0.0602853887167455,0.0523533016970508,-0.016040436031897,0.00261672078339287
0.00805976941654534,-0.00276375577684534,-0.00901598644509788,0.00411971764633943
-0.0368668998177182,-0.00373442792897398,0.000686467650554634,0.00189379925797099
-0.0485057776883302,0.0279343255672812,0.00912880004283982,-0.00164137708381966
-0.0436557132358126,0.0718689132686704,0.0213645374385382,-0.00301412896141267
-0.038892002733599,0.122234452049537,0.0318888403292135,-0.000439512316480569
-0.0299156596110506,0.140507576053076,0.0251372634270867,0.00452715749003898
-0.00760205005171395,0.108033254612715,0.00861465486256935,0.00750106675780862
0.0257104181789619,0.0759485552817613,0.00712196033365299,0.00626029069245138
0.0302311751340064,0.0973424582422601,0.0242795468312367,0.00384019488076576
-0.0226221512147752,0.161787493881696,0.0377642418162474,0.00318863580788373
-0.0928952756068591,0.189990581785246,0.0370603100324376,0.00272574561283231
-0.0987459120566118,0.12307369868837,0.0329482054170228,0.000483162263154766
-0.0123625998390433,-0.0243819067128321,0.0260817105794802,-0.00145918290332122
0.0719882157140234,-0.187697952145069,0.00880363575349959,-0.000850774832804031
0.0651807810046788,-0.238576962042814,-0.0134658354201162,9.65676381330893e-05
0.00609144364878411,-0.120567895404669,-0.026170999716144,-0.000554509394330073
-0.029802740626671,0.0175794668906954,-0.0218253095317878,-0.000356786795265277
-0.0171207174780935,0.0284918955725677,-0.00959653764934936,0.00307559064433442
0.0216402119104768,-0.0751383713073365,-0.00899984210343749,0.00857736289893972
0.0513855474411243,-0.18150051724542,-0.0249771176440706,0.0116815080536908
0.0696419539277979,-0.190325797463698,-0.0364044501118608,0.00815244395576789
0.0651935749634789,-0.114716736271527,-0.023690877044213,0.000235930270232453
0.0106342868160891,-0.0367352867838524,0.00284178541264787,-0.00502355446617129
-0.0737615794732187,-0.000816994843978736,0.0153963286535945,-0.00579154797342533
-0.134013443675771,0.0363070400847589,0.0059194958775206,-0.00776109857083673
-0.128503125762247,0.100499165222027,-0.00680014738412706,-0.0145943888156984
-0.0695066467424176,0.153158191443152,-0.00923844728137981,-0.0219695772454471
-0.00988591468534333,0.167887453503168,-0.00744702963600009,-0.0235330582328643
0.0222328851963041,0.133110514985351,-0.00348911662610063,-0.0174038096492366
0.0292344868643937,0.0561572857300595,0.00324358609253537,-0.00503867368903823
0.0176745624914253,-0.00935323318502245,0.00523100356719083,0.00982892303284252
-0.00155474497154645,-0.0120095667851614,0.00518334604562631,0.0210344191066099
-0.00972043039940261,0.0152876064869053,0.00800472320296747,0.0244163046856693
-0.00282271519306589,0.018432615415026,0.0100401232587774,0.0204458896884464
0.00986981091305671,0.00786628642920371,0.00756319541699523,0.0119290970107134
0.0193304463422356,-0.0118438640786064,-0.000448165326716334,0.00242624570445264
0.0143995624755095,-0.0564203850015669,-0.00783673571707026,-0.00544103003989077
0.00283645694268747,-0.0926649710370627,-0.00827794001457552,-0.0114497458399581
0.00462755061559358,-0.0940939172675407,-0.00477257408341513,-0.0152279253444393
0.0145695076148469,-0.0876445034731714,-0.00430894904790248,-0.0145228393430005
0.0131248959280065,-0.0930875612923355,-0.00761253188909962,-0.00923473327618668
0.00727809035291961,-0.0940607777900804,-0.0108324095959633,-0.00339732091420956
0.0190907341953128,-0.0836641353069413,-0.0126274201144921,-0.00014796987730727
0.0310051293523539,-0.0733934271670493,-0.012171509081687,0.00107749011263816
0.0125732991793735,-0.0528598847130666,-0.00683606147984404,0.00179231245089014
-0.0227711134159328,-0.0124167419974587,0.0021628952279343,0.00247692150068264
-0.0447218418309788,0.0248618527551406,0.00847350335280285,0.00302963876883975
-0.0353112727234991,0.035524484432088,0.0087854666952798,0.00325534562823885
-0.000873071578186807,0.0219163025603334,0.00405327045049327,0.00250364559549362
0.0366629833141619,-0.00167690599583967,-0.00256257915224398,0.000249429072854277
0.0682201137472065,-0.0342636963092692,-0.00785269759942201,-0.00288218447564399
0.0865086859145897,-0.079783224794934,-0.0146623333603166,-0.00580758698396223
0.0906486302726008,-0.112181322202084,-0.0288638950074524,-0.0081462137203253
0.100217784566588,-0.104185721133649,-0.0435476306466448,-0.0105115557826389
0.111204922000088,-0.0804884678182655,-0.041252922694381,-0.0132572383231078
0.0761440338721967,-0.0841341342181053,-0.0195819830132184,-0.014071023394115
-0.0213082094667068,-0.101159937703692,0.0010175158114917,-0.00917593615405081
-0.114422247046116,-0.0857916247728484,0.00527999680333619,0.00101134770167443
-0.149239703851257,-0.037831681716307,0.001200239043659,0.0102611237237775
-0.144337102681216,0.0151790884214393,-0.00766828834628549,0.012459966835736
-0.118658525323998,0.0630753638672806,-0.0209907338519962,0.00716291782010093
-0.069031684627654,0.123671969705943,-0.0181177880646441,-0.000322951703188926
0.00829071195124617,0.179231312196747,0.0057363633356968,-0.00267519607025462
0.0879933005463644,0.162844982025521,0.0224564229796859,0.0027667197516714
0.11853386497748,0.0873476379805704,0.019629168765556,0.0106608423361594
0.0939255921439746,0.0109581679949843,0.0126551569032556,0.0142762156030434
0.0622831118133392,-0.0526755010628382,0.0104062930953957,0.0129224429558288
0.0396167748549547,-0.0889318844363988,0.00751393792452948,0.00979584256801636
0.00225786424248463,-0.0966280860460215,-0.00170678747306392,0.00615149756868127
-0.0466316515064102,-0.0819576350355394,-0.0118625638936066,0.00131676605586956
-0.0741616255716934,-0.0438974228471805,-0.0136758910893299,-0.00323936957817074
-0.0579656748251876,-0.0132520595282181,-0.00880134100344365,-0.00421410802294946
-0.021850051421691,-0.00760088602572824,-0.00585661496376705,-0.00102719944055304
-0.000908810689624909,-0.00580052606816887,-0.00697851307143156,0.00298887834093172
-4.9903775740448e-06,-0.000364990169700593,-0.00343664944581026,0.00435728741065085
-0.00989532731398314,-0.00360509591256557,0.00266296066515806,0.002395651679656
-0.0186222363768908,-0.0135249312201156,-0.00486145906479301,-0.00243840195873479
-0.0182256990220197,-0.0132947150676568,-0.0182969868138917,-0.00957270881668558
-0.0106722096754542,-0.00189434489011004,-0.0147251397736739,-0.0160148457249572
-0.0078344370258465,0.0152251793280288,0.000885167009882967,-0.0169473187699496
-0.0159901021846578,0.0459327716062785,0.0103054399590739,-0.0102843523884339
-0.0199058215749282,0.0737388298614899,0.0128887269326307,0.00120228626697853
-0.00527871402011096,0.0620155437515647,0.0136580961531703,0.0122620847817199
0.0165467555766005,0.0336037538027816,0.0163741120373561,0.0189950591963388
0.0202777155429632,0.0412629876104164,0.0193703297498738,0.0205838705922574
-0.00171006704584759,0.0632126706934534,0.0129659136592912,0.0173722603109657
-0.0270348301779769,0.0719103444093693,0.00425007689431513,0.00982894225250158
-0.0356760863957161,0.0682033016883519,0.00209689573475992,0.000715737268496885
-0.0367697536395323,0.0170253202609425,-0.000945593640265478,-0.00639765103247019
-0.0492352480563128,-0.0627852696673962,-0.00368665051616327,-0.0105264482082989
-0.0748840347119379,-0.0689354864216233,0.0057486598859244,-0.0109339573954819
-0.103421934300316,0.0121937597899153,0.020314902084597,-0.00586836741582582
-0.121116694216242,0.0662408823772524,0.0201349762973484,0.00293778239267551
-0.111675026188591,0.0488377982611251,0.00984384819952311,0.00991593612404672
-0.0722320787024683,0.0249640654352831,0.00154957365855497,0.0118949739521487
-0.0388750912194411,0.0243239429397454,-0.00969656233379858,0.0103286628215941
-0.0441296880024677,0.0288294131959954,-0.0238135538984172,0.00669045013095796
-0.0586280109958695,0.0231216482789741,-0.0315520678627853,0.000201032705450358
-0.038506532519043,0.0185316550382931,-0.0289982177089857,-0.00803820270742021
0.0111898619523814,0.0209435080829863,-0.0158099348048456,-0.0127662824409526
0.0485525759863524,-0.023317392578886,0.000338898972320013,-0.0100872031339778
0.0479523829012895,-0.0996397005556331,0.00563383806934018,-0.00350628618654555
0.0176020560567316,-0.079354599692973,0.00769185914931321,0.000192952545162314
-0.0119803250713379,0.041078586171381,0.018059014618041,0.000210607569903331
-0.012232008838704,0.129728229817006,0.025180566301862,0.000575924015595478
0.00479905815771824,0.149840504118284,0.022267881059814,0.00235196301389129
0.00853722536227697,0.145364673531099,0.0188236456262462,0.00300175333233042
-0.00308414270870052,0.147326699324789,0.0278122170702574,0.00121829879276149
-0.0183467842257703,0.148544568943728,0.0402469412334959,-0.000545755291374579
-0.030712633064842,0.106348029756832,0.0311497276135597,-0.000220108530528016
-0.022350617056379,0.0206730996480838,0.00385968346662509,0.000194309971182548
0.0170861794823464,-0.065425363186071,-0.0170570403965606,-0.00122523888984241
0.0573328586483811,-0.118991264306749,-0.0208842542074483,-0.00298465195696646
0.046490858350125,-0.118362888356766,-0.0161951238898684,-0.00281295936575401
-0.0222990728412698,-0.0512356084210395,-0.0106584711725267,-0.0010740876385375
-0.0681118176315778,0.0428513731390538,-0.00375540955492308,0.000601501405198178
-0.0304106981720481,0.0873050567382639,0.00036491062617971,0.00222664829618744
0.0339161019851736,0.0834390901295554,0.00190413441678072,0.00404498703167131
0.0566395734266149,0.0598583242900592,0.00363288396705357,0.00480081901466985
0.0617481464565042,-0.00268345964805668,-0.0071080492771473,0.00300319924428531
0.0635141117847496,-0.0776721705583054,-0.026984427253762,-0.00127139997841194
0.0314947732203726,-0.093029482096236,-0.0328024533839803,-0.00608190738697036
-0.00633023634399059,-0.0460978363793727,-0.0263479786400611,-0.00930901808478878
-0.0195035804755845,-0.0373613210663145,-0.0229980222440644,-0.00985216069950279
-0.0128119953734738,-0.0929983528193936,-0.0290217112905699,-0.00837133495648593
0.0130096090182691,-0.105020904799928,-0.0330812027390307,-0.0083454892763694
0.0435536562915876,-0.0411508703001957,-0.0220103498640871,-0.0113412413499186
0.0553005295011762,0.0154004892872061,-0.0124337438492555,-0.0128321147250342
0.0366729776596915,0.0275226041554683,-0.0128560972221288,-0.00845302411072868
0.0122158980151099,0.0196772449840184,-0.0120703030771921,0.000663327958147261
0.0112166250657925,0.0127997082251721,-0.00776485804107476,0.00970937808805937
0.017036740778963,0.0218905410831072,0.00141071776925702,0.0142091610333945
0.0163113937896208,0.0246342798100231,0.00978214605035043,0.0139978677076321
0.0170909062190662,0.000477483575412137,0.00693105591080399,0.0115912162557833
0.00628068878928638,-0.0237765073637799,-3.26155583760829e-05,0.00726216945488129
-0.0237444300195759,-0.0318618583858659,0.000659174145340533,0.000619778661579326
-0.0439588235578929,-0.0293882469201283,0.00840630852793274,-0.00557346081367815
-0.0369740345287703,-0.0335050349538223,0.0169501414355411,-0.00745356239229322
-0.0199766217327389,-0.0550205035974563,0.0195926716777436,-0.00456752439122598
-0.00464996259876571,-0.0649335590198467,0.0186467874546202,-0.000268843924540985
0.00673539751860155,-0.0465092757595511,0.0202503576137612,0.00270405032310827
0.0105367332642132,-0.0203240683992004,0.01931813121699,0.00386049123240787
0.0141735266987746,0.0114235148943075,0.011535847095775,0.00303613469800727
0.0356926055618213,0.0654289773078171,-0.00495820659250489,0.000447371390131101
0.0694811998024634,0.137744552904165,-0.0211629949497214,-0.0036869024884036
0.0830800935494285,0.212138104338112,-0.0139427815060658,-0.00818837147768264
0.0726630673442764,0.241796757341273,0.0068188767227972,-0.00955542492718322
0.0667054383435396,0.15488369519401,0.00605299954025905,-0.00620490537933684
0.0561372205471681,0.0106251323460422,-0.0128483235029404,-0.00127976008337349
0.0120191868359302,-0.0327791132848879,-0.0152234568397829,0.00118686164135134
-0.0488167494815563,-0.0245718035871205,-0.00558273664496157,0.00049289265946858
-0.0938923780720201,-0.121173361791704,-0.0150804770148245,-0.0028721415779763
-0.10026654615924,-0.222050357833628,-0.0312729665388099,-0.00919633132529329
-0.0591849909876395,-0.167348863492664,-0.0255673070733744,-0.01448165415112
0.00268601426304725,-0.0699795726695436,-0.00746810601635549,-0.0122542672728569
0.0404357383400156,-0.0655183012483966,0.00433151373347884,-0.00302222958204751
0.0287755727122775,-0.0677427967253053,0.0132771154883633,0.00716649801405445
-0.0138628272165972,-0.0171894116786692,0.0231655142104241,0.0146298637955417
-0.0461939337002091,0.0204221510175105,0.0323159471756636,0.0188576042521537
-0.043762141529273,0.0339688778555982,0.0384042277119473,0.0204604240865131
-0.0156762121287102,0.0522925246306641,0.0329157945644961,0.0197858897824052
0.00651279234222167,0.0595994592824214,0.0155880067660429,0.0156532683718997
0.0153325899032352,0.0515033466376025,-0.00388421118956871,0.00686498056810321
0.0195516794871129,0.04779813683945,-0.0183690016478673,-0.0053672549975443
0.0138086064833327,0.0478374222985208,-0.0206431110065052,-0.0169075279320272
0.00101973155252578,0.055725698419468,-0.0103979337132482,-0.0225965663912876
-0.00664943767935939,0.0664939632036612,-0.000499551661689832,-0.0199462305406123
-0.00360978930417796,0.0487045594600805,0.00381677163737087,-0.0109031909024759
0.00417911656534548,0.00575828410993752,0.0114564128267288,0.000663794788064977
0.00933834576997181,-0.0139004724136769,0.0217282158335105,0.0111659307383527
0.0122441024287808,0.00539356299384222,0.0242719783040931,0.017210273955413
0.014492486987638,0.0254226694343515,0.0217150576892569,0.0177109339859049
0.0192116262538718,0.0303318381518272,0.0217279903714225,0.0152273963949579
0.0282617504132765,0.0431930490794418,0.0155034264105175,0.0120236780148887
0.0403090331301209,0.0611065469597686,-0.000495857987652386,0.00718082243021533
0.0551618544786913,0.0558517678227851,-0.0102350531404297,-0.000101333288602581
0.0705153600678181,-0.0102491740366397,-0.0102181858240452,-0.00822476395921368
0.0725562873279938,-0.113408259052902,-0.0161704486621049,-0.0163706486279084
0.0383949888321619,-0.159063845194996,-0.0293041958095696,-0.0241972243365683
-0.0171791413387133,-0.131098751235315,-0.0295902911623547,-0.0273508635184652
-0.0363182084947008,-0.0609398163618172,-0.00896036160164551,-0.0206998199582881
-0.00910982387681801,0.00017456811501089,0.014366637360163,-0.00478219078707965
0.0156557740714941,-0.00378344611396594,0.0203065962605615,0.0141270678548675
0.00849360748992306,-0.031863841097771,0.00957043304256613,0.0265794790192502
-0.0192898583310279,-0.0402131167841162,-0.00389335415973568,0.0261705424286653
-0.0378713775315759,-0.0417385816626235,-0.00963439635942462,0.0162997406010942
-0.0291611347838692,-0.056054641102489,-0.0105210792792163,0.00630896688776785
-0.00427791199822024,-0.0803258293001849,-0.0151725729622186,0.000602700795876977
0.0123137200052091,-0.0723351850414425,-0.0211879074302103,-0.0035359826460004
0.00997890731596762,-0.0225831502466892,-0.0195254791826072,-0.00716733948872375
-0.004291085831284,0.0204211926823921,-0.0106972951038988,-0.00682461034221689
-0.0194259076548676,0.0277901046023666,-0.00240701060666571,-0.00172657218751639
-0.0258173941782861,0.019561983407732,0.00417543552091872,0.00408852675026704
-0.0233666931953642,0.0160249681908306,0.00976977499092488,0.00688287587630047
-0.0175919501232038,0.0118450644358479,0.00968708108016442,0.00567190427930827
-0.00757269745891328,0.00674288739784128,0.00328469497685413,0.00135315885930023
0.00376023812724315,0.00440087448413551,-0.00240460595411931,-0.00420992036416354
0.000916174709199344,0.00119662651849804,-0.000927431105033487,-0.00911035373042548
-0.0243293298025575,0.00212974685381331,0.00850915325530804,-0.0112292186736405
-0.0505851310122919,0.0208017718781472,0.0212965731663844,-0.00773298682567656
-0.0486259306159631,0.0632551807700077,0.033903471180418,0.00232433500879765
-0.0145604649969795,0.116803769526706,0.0439158779640264,0.0145483413501773
0.0357425971976084,0.149826220668304,0.0449665808810133,0.0221773462694174
0.0800863531630525,0.139140376042066,0.0297236624353194,0.0221384618139121
0.0974088942100807,0.0889911659431703,0.000372486485971615,0.0152243378774782
0.103348714168708,0.0139511446172839,-0.021196585578064,0.00380497335795661
0.129243825863068,-0.095062493037315,-0.0226649443184801,-0.00835096382698522
0.140038670242047,-0.225103967335434,-0.0282159438945188,-0.0176078770700853
0.0905404167043604,-0.294193923362818,-0.0465896079609403,-0.0223548731479399
0.00547240369995131,-0.270852788589058,-0.0546214294804946,-0.0214626216313626
-0.0797715785152562,-0.17106910659448,-0.051649098539925,-0.0161574782240705
-0.143612222503783,-0.00825100791929384,-0.0460884324683627,-0.0129326930556541
-0.161433550167515,0.146938924897757,-0.0281687460941446,-0.014694883753649
-0.114962257791506,0.208002216598899,-0.00630224812129603,-0.0136504193140509
-0.0149054847930885,0.169351939536495,0.0040911219912665,-0.00281489792140879
0.0828822388449269,0.108854104547168,0.0127514101375555,0.0127151689941
0.138203145760981,0.0507136486712278,0.0215437852811922,0.0230616958563202
0.145110915797329,-0.0350244678476201,0.0200180702882729,0.0249455756059977
0.0933574844137093,-0.100076937381578,0.0132153526431749,0.021490353130049
-0.00205284428738098,-0.0768205683663942,0.0143254279016784,0.0156351479107741
-0.0759254893100841,-0.00900156943670286,0.0202793756126448,0.00859064915877038
-0.0836467427319808,0.0289647590732812,0.0190311020876699,0.00129848111202645
-0.0589093148306515,0.0462359684965621,0.0121456307916944,-0.00543126356896828
-0.0413709191190439,0.0475536354385361,0.0050283667119154,-0.0102045564958641
-0.0276246601809649,0.0135641488374849,-0.00186122499740798,-0.0135351904043458
-0.0121240579504669,-0.0172847805220319,-0.00796495107246463,-0.0178082717983561
-0.0060041505951542,-0.019359218427644,-0.0123171661836951,-0.0217167498329097
-0.00465723748771914,-0.0227082764743168,-0.0159788315603728,-0.0212323974291205
0.00912622107836916,-0.0380000689553589,-0.016836149670646,-0.0148907775379475
0.0191864287867932,-0.0379593982854861,-0.00914273056909571,-0.00444212759252289
0.0179401280782038,-0.00348323247848586,-0.000524368148541488,0.00652994431731889
0.0296294247030486,0.047271911758313,-0.00253459467805528,0.0137727178005446
0.0519701627949314,0.0804206557959109,-0.0121722327884575,0.0148005683876467
0.0604146477092819,0.0695918449802664,-0.0175953893975817,0.0106648697679484
0.0388427107014083,0.00427010728591115,-0.0132478181674137,0.00470608915796838
0.00284843648732222,-0.0708926832355337,-0.00858856695913385,-0.00049692588442404
-0.0157156544638185,-0.0848269361872278,-0.0107817123246343,-0.0041336040371677
-0.0131327409176107,-0.0570034859476233,-0.0119064005161427,-0.00584310779207019
-0.00127781577154496,-0.0482706131906038,-0.00859519354782991,-0.00560806838128174
-0.00390078264813673,-0.0496824544742597,-0.0125617775913775,-0.00460563119235916
-0.028910364029648,-0.0406822683204639,-0.0236770975704379,-0.00500735185359284
-0.0503722624737764,-0.0126192461984098,-0.0258204755569368,-0.00752125978378083
-0.0478538697260884,0.0309033011382611,-0.0136588500213641,-0.00933879144371344
-0.0199875968186077,0.0222590053705142,-0.000100517967444307,-0.00741048695176781
-0.00196682082075565,-0.0403568140281131,0.00852833008243861,-0.00199635325453334
-0.0261856605792096,-0.045965755879529,0.0192382768067226,0.00508975865608753
-0.0619878540601604,0.0201985136739329,0.0259361777733904,0.0115986318481583
-0.074032871826838,0.06236772658035,0.0226275722378562,0.0143115974710475
-0.067017430890614,0.0359635841867214,0.0150094671824732,0.0116804421886111
-0.0471236072190926,-0.0119180368861614,0.00751451366618042,0.0056970592626905
-0.0263035359910258,-0.0262723352346789,0.00682973024246917,4.52615022272212e-05
-0.0260767385158748,-0.00166734984701422,0.0129883443306771,-0.00228662079023507
-0.0419264679987783,0.0424750683686394,0.0149098218724016,-0.00106008311160767
-0.0557536276014507,0.0739247717279534,0.00438194766257217,0.00137820914105836
-0.0668889172678459,0.102044079238826,-0.00271547207620811,0.0035312001351404
-0.0692280348543603,0.152272844708648,0.0059310205480606,0.00630985816985783
-0.0467052499702096,0.168899399019412,0.00304968566766757,0.00876161450377037
-0.0151556027696662,0.133370205298006,-0.015436267734749,0.00620414684501884
0.00669570783541144,0.117352878578756,-0.0186219722519062,-0.0020981400401347
0.0354968366914412,0.086353060950831,-0.00930036809199725,-0.00961750532378029
0.0863805721193353,-0.0226792008478458,-0.0110576610940875,-0.0116352409838701
0.138538082813252,-0.144289388135456,-0.0240809878797324,-0.0102232659585796
0.144240564531352,-0.242762457293909,-0.0310231343201125,-0.00823589682351884
0.0854230993588625,-0.291499678297785,-0.0241378244830125,-0.00440596049364074
0.00422563268999168,-0.229891221372539,-0.0146661987100387,0.00293232029545424
-0.0561280761730702,-0.101030184373464,-0.00664996671674324,0.0107862074946188
-0.093921637600835,0.00504558793327603,0.00460903395708324,0.0149403791688254
-0.104419992948767,0.0611718839601266,0.0135521058210655,0.0145483331492666
-0.0786201768676155,0.0791206107409016,0.015686280473603,0.0109489647057993
-0.0429493276873135,0.0742782174141354,0.0137803655043146,0.0060456772727213
-0.0256920373458207,0.0643619127066441,0.012125942471666,0.0012385661711402
-0.0257089668262926,0.0597564146727824,0.0111548027368682,-0.00269781901558458
-0.0336911345001186,0.0653406097880699,0.00810663071777751,-0.00469329481535351
-0.0406710526891646,0.075424571918806,0.00490943855113663,-0.00437955170001736
-0.0354435127190602,0.0680272375425739,0.00829389095059114,-0.00301131997878948
-0.0151195889416308,0.0405846062608882,0.0168283890854734,-0.000403644206542144
0.0116598388405985,0.00970577084314879,0.0183557624107566,0.00526067788439353
0.0304813805878118,-0.0205279124388608,0.00879343486855951,0.0111948476271884
0.0415571780016421,-0.0472178521352329,-0.00304457832559468,0.0119348240044101
0.0532893819371103,-0.0481747265929951,-0.0151261844502001,0.00712395447910995
0.0541948634576485,-0.0261405120131019,-0.0383090653306387,-0.000196805427146389
0.0327747264986564,-0.0142397978059497,-0.0662059471460031,-0.00829876741728358
0.00846874348537312,0.000193994553358678,-0.0633794701419739,-0.0160065800271652
0.00755699814814053,0.0275683686702433,-0.0203125749969421,-0.0191992756824947
0.024862393907822,0.0262453920070882,0.0162834573239536,-0.0127868561381791
0.0337967664728133,-0.0359698062874656,0.0181538532823008,0.00011062267696756
0.0151165493372492,-0.149337265000353,0.00713845394449491,0.00865694206468443
-0.0137873526115254,-0.250975888674069,0.000937171680255923,0.00658249804092522
-0.0177764031522915,-0.256840187945146,0.00285331352850799,-0.00210312163756209
-0.00531979459059389,-0.155318637262666,0.00358532883217227,-0.00868999972343125
0.00807693364619426,-0.0397831389750071,-0.0118507996013663,-0.00980119319215455
0.0275958223535237,0.0160976233304085,-0.0265908553237301,-0.00929998721539546
0.0289569834020679,0.0526750258826918,-0.0144482695401173,-0.00803519687989246
-0.00417895424511565,0.0909459782353651,0.00748380151475124,-0.00130879279068855
-0.0412318695353959,0.0821134020186149,0.0165474968086282,0.0103801334532958
-0.0532273935591827,0.0341485287441352,0.0182772250655397,0.0189845966308077
-0.0486121410511589,-0.00680701982609191,0.0134582235137738,0.0183395892824002
-0.0420887488084455,0.000460041903935053,0.00235506289637623,0.009323412956708
-0.0231419544382526,0.0470864775438088,-0.00185534051927308,-0.00199456321291912
0.0134143563732649,0.0402678090553497,0.00251534515149984,-0.00798821658030497
0.0469935937053094,-0.0320174722845032,0.00314492306138089,-0.00554107155297353
0.0653374340366029,-0.0719226879901816,0.00289676295079168,0.000831041588476336
0.0811694721265352,-0.0490278235267194,0.0105298291522112,0.00609760000052311
0.0926657811929,-0.0211081959915225,0.0144511691306068,0.00958358477150699
0.0811806651450252,-0.0150496634557189,0.00873935072253598,0.010137920711548
0.0384377635773083,-0.00989705657052532,0.00597136258905324,0.00661936623808711
-0.0233818377311091,0.00648552919171079,0.00983989921176626,0.0016246008994475
-0.0684991212661412,0.0331911867065289,0.0122856827276625,-0.0032315090413718
-0.0757883528871767,0.0589365067389095,0.0085624077140497,-0.00993605727564247
-0.0510977945374533,0.0727405605411366,0.00457104279641941,-0.0190939529298903
-0.00869130350459942,0.0774984631975643,0.00685209508979989,-0.026650621556716
0.0239495125351467,0.0748165743892538,0.0105437570936824,-0.0267342045405969
0.0344527985198214,0.0721166706689334,0.0108090589524653,-0.0179676472117717
0.0392384488759327,0.0714654645133595,0.0106295779973909,-0.00399067675904689
0.0461911327895386,0.0452379919022293,0.00820065443216838,0.00990936104295796
0.0624330446949373,-0.0202481875763208,-0.00181335647505179,0.0176455047058961
0.0874744365260609,-0.0850533066006337,-0.0148562193671928,0.0166341891148406
0.0953577817466612,-0.0977253934270439,-0.0222312334651414,0.0103886409504447
0.0760854203796007,-0.0510361543873377,-0.0184322228492119,0.00463690543329111
0.0275468606379236,-0.000186095245043691,-0.00408510004531482,0.00310404986820566
-0.0504455149372168,0.00656002875592376,0.012221106757818,0.00537139316596094
-0.107120343767266,0.00338094758721311,0.0213012137124823,0.00839027407094029
-0.0981812060594461,0.01808751225529,0.0229256120115249,0.00973064624425384
-0.0633935957946279,0.0324188088405431,0.022314322223265,0.0089025393545242
-0.0486975084277091,0.0389664028777204,0.0160322002062041,0.00630584899774725
-0.0406169010451811,0.0335951144762108,0.000963186956044383,0.00184819991136172
-0.0221072698867891,0.0218465007272672,-0.0111200492819844,-0.00428332483465431
-0.00300036293039012,0.00747551831147902,-0.00857546858842222,-0.00966194679673384
0.0102257851318029,-0.00479328065137176,0.000640274158013134,-0.0109382871248097
0.0214884041545111,0.016423701115239,0.0052181423142734,-0.008192835976309
0.0419045290486756,0.0548894346868773,0.00574247285599524,-0.00444352738686249
0.0714656628163633,0.066405854737194,6.62714780520768e-06,-0.00221087379262815
0.0702373241937794,0.0796176107491792,-0.00454442524062235,-0.00324848697169534
0.0244972823161124,0.096741008367898,0.00401091519527039,-0.00696029662255131
-0.0109967387573212,0.0437797559640663,0.0120460288691508,-0.00970879819513705
-0.0137991295736859,-0.0323768658717242,0.0117296450597974,-0.00849112023900811
-0.00706580198086026,-0.014498631180289,0.0106809505321365,-0.00331814517374233
0.00740839264470114,0.0387200074338793,0.00433504700580824,0.0035087005291736
0.0107891087906178,0.0301752758609256,-0.00477385238925541,0.00903688833396066
-0.0186481234642131,-0.000726006233162102,-0.00144395408894418,0.0113834674900055
-0.0470859639283444,-0.0448810138034517,0.00498191962247725,0.0105742731502512
-0.0308125027280663,-0.0816644001409576,-0.00539468035341903,0.00638667443713734
0.0151694680101386,0.00268544142754214,-0.0218698760727686,-0.00220570097789635
0.0494155048493974,0.134418718311382,-0.0236197111054375,-0.0120895165241983
0.0679794206869484,0.172435398341165,-0.0157958713325408,-0.0153817850213999
0.0715051968491538,0.131711857239814,-0.0142060719299281,-0.00851647373286145
0.056433079018858,0.0391568281617034,-0.00940876108168936,0.00284228569406369
0.0387442539105323,-0.0653542949505791,0.000501878321669751,0.012108994014814
0.0221870903459258,-0.145192197705927,-0.00593801197181818,0.0161195924819147
-0.0214108290282335,-0.16506574527731,-0.0160752077498617,0.011525539811738
-0.0868926825235434,-0.0965909535574272,-0.00579984340002003,-0.000657392572654764
-0.126309832726593,-0.00117670281335266,0.0131798108584776,-0.0124066277696594
-0.11006774259854,0.0664628517221271,0.0236103638249963,-0.0163161409657895
-0.0467746252894902,0.0975967283655381,0.0227522106579727,-0.0111707713517474
0.0143836491839736,0.100541303908068,0.015396160419656,-0.00217932475107906
0.043589025861821,0.115921669943915,0.00873247757862061,0.00420664608393858
0.0515795218636431,0.166581262518595,0.00623008877113224,0.00631497088857558
0.0487793182978157,0.170316622363235,0.00332707786533603,0.00625479718837249
0.0414184360029023,0.0883778517721522,0.00138515190978184,0.00541549390980956
0.0358059242832318,0.0249452650451916,0.00747581695946459,0.00444607735632252
0.0316523607411453,0.00769265064256942,0.0129913437787683,0.00510035594260416
0.029912053293973,-0.0405076866160263,0.00809531010061667,0.00720475914322879
0.0420826894457016,-0.12901435146501,-0.00480007821220456,0.00687988072664938
0.0649284076617812,-0.175736432826789,-0.0148667050554607,0.000926343288642684
0.0740231141447702,-0.158926056644907,-0.0145123803407845,-0.00784761824749204
0.0576518929979596,-0.153809516142526,-0.0107612740413116,-0.0131015362226125
0.0156526742752254,-0.163880856361226,-0.00810223820962292,-0.0123979689972569
-0.0340858874013779,-0.132710227062098,-0.00610272191091314,-0.00687632563678524
-0.0540336068545313,-0.0643148279816938,-0.00536353425609968,0.00110363736074986
-0.046954549159933,0.0606172980000437,0.0012734074273892,0.00807543528401628
-0.0393352762289029,0.203544222998588,0.0137287121561586,0.0131342153759135
-0.0279633611616213,0.217055587853841,0.0149869741262068,0.0167961380712423
-0.0127971068724757,0.122971900340031,0.00767006795162783,0.0166371567224449
-0.00842310914715401,0.0745158871073495,0.0123990733783365,0.0112575056198804
-0.0102539610342849,0.0613886834070385,0.0134929462094184,0.00310347254507334
-0.00541230427193676,0.00714307646530025,-0.01029048033321,-0.00680123464661208
0.0114716280656154,-0.0265581599858189,-0.0251179257470173,-0.017674129952962
0.0377100759319775,0.00219838089462385,-0.00467858929247464,-0.0225763105006309
0.0433573030423153,0.0248443076784021,0.0207096792194253,-0.0147650849733161
0.0109871083424679,-0.0328064087775961,0.0198551149292506,0.00117450332131118
-0.000740548917519172,-0.162189812073102,-0.00742818540143881,0.0119905926054322
0.056458282913406,-0.26190532957054,-0.0329420620914093,0.0104667368382625
0.102460317752061,-0.258511147622272,-0.0286098387137552,0.00290647764481621
0.0349395864324012,-0.161969682084328,-0.00694065583457957,-0.00188188117387269
-0.0858251605554181,-0.055189697082357,6.2894602268361e-05,-0.00358627296870252
-0.133410691179633,-0.0198094086162576,-0.00621969324102769,-0.00568648994762192
-0.106333578144083,-0.0362397789932108,-0.00228438086379999,-0.00652993800720721
-0.0669868400012395,-0.0410454113870817,0.00905093236594049,-0.00148097150344269
-0.0513415619100717,-0.0103390507822252,0.0103780016800805,0.00737828397842636
-0.0655718445581487,0.0450441377103305,0.00703264941187482,0.0128429958761129
-0.0774968024982213,0.104142381419812,0.0152529489486677,0.0144573664279646
-0.0592456096049744,0.140639493998807,0.0333778698271054,0.0173982023615882
-0.0375969679974561,0.129104209289169,0.0462065370255491,0.0213609376729636
-0.0452900590259495,0.0971624044577627,0.0355897685919691,0.0196576908485753
-0.0531063493993621,0.116894355364368,-0.00103447981416593,0.00620079211333725
-0.0108979509970315,0.13039305724758,-0.0383080812481992,-0.0179858776364449
0.0669305522430352,-0.0293774644812805,-0.0569109583156599,-0.0426486243500869
0.115831844488133,-0.24538065098656,-0.0550933827592987,-0.0553527458555524
0.111499913900679,-0.240811130613373,-0.0366983536827684,-0.0497281914094747
0.0710274995531356,-0.0864622200770209,-0.0159718600376061,-0.0269439969919762
0.00864094740233358,0.0114292283800219,-0.00362876507450102,0.0035047042684422
-0.039595528809894,0.0429448829727188,0.00507293412178129,0.026655300013061
-0.0347606489601907,0.0437915661959584,0.0139597328991516,0.0331433296514954
0.00237362572585215,0.00738442089361508,0.0140164945381182,0.025821157596029
0.0341289881739956,-0.0380132114661068,0.00500801541106126,0.0137426071587089
0.0464012279208621,-0.0608637609812321,-0.00170952047809228,0.0038014007781853
0.0317187600446412,-0.0439501190152573,-0.00594563364331942,-0.0013022166284684
0.00125311518312794,0.0169395746861788,-0.00527617820899466,-0.00276474969172026
-0.0163551166513098,0.0583504481880793,0.005704046971096,-0.00314345638737682
-0.00604327267990816,0.0399753467130523,0.0166865447616451,-0.00318059693631819
0.0149190096738979,0.0106329580915325,0.0181877459896782,-0.00274646402374904
0.0127495080775112,0.0151406257502929,0.0141440511401203,-0.00230489944118426
-0.00946683547868241,0.0401754537201689,0.0113008287362584,-0.00253828805304047
-0.0137813109725179,0.0244027424355877,0.0069468124488446,-0.00342793018974032
-0.00600467891466714,-0.0415567286578197,-0.00186398385254627,-0.00441868017242657
-0.0158015741521939,-0.0603209333588891,-0.0043704473277769,-0.00457952753069803
-0.030193670660128,-0.0117002976172482,0.000870702710003652,-0.00282282988944705
-0.0327165251536962,0.00583393117094684,0.00129297232966192,-0.000785932600076175
-0.0228594136326908,-0.0446938849430122,-0.00353012645666613,-0.00226608097337396
0.00120203991589236,-0.108271869048704,-0.00987158971776483,-0.00736816283305322
0.0235354882002282,-0.115070184946775,-0.0160331070016147,-0.0121567169436214
0.0348789600264724,-0.0541061728517217,-0.0127973545651111,-0.013065979769015
0.0483307054379371,0.00971189975533286,-0.00365575620154586,-0.00864854156945786
0.0627666244367758,0.0180288918433952,-0.00656293371523252,-0.000707764417448039
0.0639438555653612,-0.0136167088105558,-0.0202227119061007,0.00566578454874212
0.0496083305102028,-0.00515293400377584,-0.0201453149061779,0.00725560953342098
0.0282685538811621,0.0466693699714915,-0.000847695223048669,0.00751460482026464
0.00916149298609267,0.0511383362864375,0.012223102135145,0.0113810958373621
0.000313203103801657,0.0159417061900997,0.00633230545420459,0.0170967285355076
0.000951277793591951,-0.00148870726273152,-0.00369343012848394,0.0171966319622968
0.00221943132930553,-0.00218808990078359,-0.00101684753549193,0.00787170247015406
0.00512940110127007,-0.00473141914768961,0.0100127380210309,-0.00424646188508863
0.0164491437414295,-0.0202360593708373,0.0128605058071668,-0.00954742056472908
0.0288397824838101,-0.0427083606162401,0.00289162522928221,-0.00648932626375524
0.0281422336363693,-0.0633897874012561,-0.00758801917243019,0.000149379559651336
0.0108778980719493,-0.043189562152205,0.0011777276150316,0.00690494300945069
-0.0180657136833029,0.0249071874451155,0.0219649768056794,0.0140680035432722
-0.038616325365116,0.0631363761247822,0.0253093933118287,0.0200085688079308
-0.037341595353696,0.0468610002771496,0.00967462944282846,0.0178455852956351
-0.0353986915698243,0.0178995120507754,-0.000438280158691313,0.00341203080288308
-0.0354278423961307,-0.00309679531748384,0.00218153965513544,-0.0171268158545966
-0.0100055252376738,-0.0102405056101725,0.00564244550960808,-0.0308123526261364
0.0300090816805668,-0.0122663877411298,0.00702433531425727,-0.0279777384508146
0.0495239207352502,-0.0391108122791788,0.00671344156137853,-0.00958934421450458
0.03638133166074,-0.0554180155061973,0.00489733249104936,0.0126468732169275
0.00344528580053871,-0.00860454532142294,0.0085422287259189,0.025460555952985
-0.0178636094857544,0.0258357979027024,0.0147862998416531,0.0244763027150318
-0.0360156457682626,-0.0129230193793958,0.00777519627328384,0.013029445241515
-0.0738720680783095,-0.0485269322968229,-0.0121710504799877,-0.00351969784925308
-0.0848999231134495,-0.0174492241655165,-0.0226450091010826,-0.0164129953708713
-0.0396602096218896,0.070292141975687,-0.0143737284960352,-0.01620532843119
0.0150509976674532,0.17705499347855,-0.00109871830171828,-0.00285377585600202
0.0425022975554769,0.205905052315323,0.0044489559504325,0.0136109076945234
0.0403586267159087,0.123006419577479,0.000525334867181535,0.0232324306437209
0.0248866148567174,0.0399555429895786,-0.00415257497660581,0.0229268351476691
0.0170225787375935,0.0137350746507752,-0.00226210128095048,0.0155299403596832
0.0152948738716119,0.00765042211423152,-0.00362272716222636,0.0056551276575277
0.00136689796794831,0.0323132080970638,-0.0133999366551205,-0.00378114819701451
-0.0327297149715167,0.102953732658167,-0.0129168698549672,-0.0109237119684425
-0.0618838289941858,0.152563830407942,0.0097655564324673,-0.0133655537907349
-0.0728772826616619,0.141985946826972,0.0369718250255337,-0.0101017135283199
-0.0708111301983147,0.104791671380726,0.0422507011520689,-0.0042364642017566
-0.0384390562595605,0.0351091585331015,0.022385442871326,-0.00106153659537466
0.00449061905133954,-0.0644005984594021,-0.00544051739571421,-0.00290948029769192
0.0237042101806896,-0.0874845624342604,-0.0280807382711944,-0.00837761708000712
0.0476061052497981,-0.0146149268878061,-0.0349314192951314,-0.0134499915745124
0.0799786567244362,0.0232565977788309,-0.0192469185464774,-0.0128177954665174
0.0598921114892103,0.0177516966782882,0.00631829445690421,-0.00501474486870841
-0.00272398495041365,0.0150560638500042,0.0171412647721197,0.00526576216898379
-0.0376472078550407,-0.031825011193182,0.00694580633783205,0.0103689512275998
-0.0634037564508264,-0.0880045736822998,-0.00390710221567164,0.00503923209122941
-0.0945277509511775,-0.110272393780329,-0.00356698725441865,-0.00787626834329007
-0.0923539380186535,-0.0997156912617161,0.00630551880887781,-0.0174991131526147
-0.0681190623793438,0.00629423320945302,0.0268262039241065,-0.0136411365199699
-0.0289974560827721,0.136370659364766,0.033945743861295,0.00316103245789322
0.0204499354001037,0.134636809751186,0.00811604019372,0.0202879343776781
0.0504904291709836,0.0770018120151681,-0.0171491106159486,0.0237101473980665
0.056080105018886,0.068815226331282,-0.017452904162072,0.0111647814530494
0.0433572989471774,0.088414277565795,-0.00230861142725997,-0.00736357249704288
0.0395535652922744,0.12492629654693,0.0236019578379659,-0.0191060338984943
0.0747179823709965,0.117700099866976,0.0478063375639632,-0.0164812213091651
0.115337605968884,0.0435333656928879,0.0488197565757738,-0.00275640764923797
0.100170019347931,-0.0637498008471459,0.0207592463111995,0.010658674715738
0.0165375509968879,-0.19616462366267,-0.0208971162000101,0.0154136642678542
-0.0776306248541047,-0.242458375867754,-0.0463311936544747,0.00943291535065186
-0.121531769497166,-0.148837086503458,-0.0316679053095619,-0.00590465361246415
-0.125074270546494,-0.0449601529763078,-0.00166842443127918,-0.023319243318613
-0.126777176228964,0.0343627267456243,0.00386643209321668,-0.0315703518287569
-0.13494894995049,0.0930531926526545,0.00362995739890104,-0.0253450259102851
-0.130423383411057,0.0702810675659461,0.0186105918827142,-0.0106604848617625
-0.106497988238415,0.0201465900494097,0.0290820974123723,0.00150579546199017
-0.0703303636914966,-0.0173914283651553,0.0203263375969009,0.00652273212931774
-0.0162186809612253,-0.0526288885837846,0.00584818735523166,0.00709035026689774
0.0367024849343933,-0.034469896604733,0.00794422213012093,0.00743099336003216
0.0668409059906588,0.0154817756946398,0.0185549956817619,0.0100464514162028
0.0890786047882636,0.030369258036818,0.0216738966745564,0.0127626265802104
0.106790400939635,-0.0207214547264115,0.0211664825702226,0.0119836177828668
0.110039482884519,-0.0974144526116769,0.0181078949671035,0.00799315481730529
0.0980514423665845,-0.0877264717266817,0.0153767800130791,0.00379805895111531
0.0687669735784483,-0.0274396156765881,0.014191254391792,0.00273040556257382
0.0297704736641548,-0.0240986946175205,0.00981421039743525,0.00486684429827751
0.00281855592451866,-0.0445509075749845,0.00341188087623431,0.00634646024757498
-0.0164023292613998,-0.0264297267354879,-0.00691629706753647,0.00424410587201347
-0.0624035029190008,0.0698888138805377,-0.00791100843238038,-0.00107517829967838
-0.127959275344127,0.242169670683705,0.0185972814557695,-0.00542765353189666
-0.155917742293352,0.342402707302868,0.0477422623947395,-0.00393440849617306
-0.117797881265085,0.275727749223469,0.0489132401593712,0.00129668820773876
-0.0349588105103201,0.177238556713491,0.0304197381951811,0.00342167724399553
0.0424692648651671,0.0948894412302603,0.00619342879321363,-0.000154777783107586
0.0761544205205178,0.00361422130380085,-0.0201782265942457,-0.00768346201295048
0.0921605943838032,-0.0136844018913779,-0.0364825296850353,-0.0158645978133751
0.149004704976666,-0.0443742979844258,-0.0328929756027196,-0.0189461880278503
0.238636668534491,-0.15582531069444,-0.0187894190385246,-0.0115708079527906
0.258911298534977,-0.260500921322234,-0.0165689903378013,0.00462209299192042
0.130742724884502,-0.34635950294662,-0.0281153305332216,0.0196506702643585
-0.0582686607684047,-0.305081118451431,-0.0258319483103393,0.0248024275146572
-0.143264694789753,-0.104006400948173,-0.00884454156864015,0.0210692982638264
-0.120292914476675,0.0716456464706715,-0.00159428921891472,0.0129990988075751
-0.0970722940704365,0.141215898861649,-0.000384642026167822,0.0013448992645344
-0.102889787876532,0.144037712554317,0.00879649248221002,-0.0126051582641033
-0.102375265592951,0.105235483577696,0.0170665482296915,-0.022125098244928
-0.0653640661232276,0.0282662143871879,0.0203437925254667,-0.0208639544812624
-0.001380394973847,-0.0703973299382243,0.0250265931165744,-0.00896578304393007
0.0442984606255418,-0.14242819919418,0.0211599355382372,0.00739968325226253
0.0467680125209762,-0.0987185967306999,-0.00433386442626753,0.0182171415431982
0.0243547848480946,0.05106047553176,-0.0358823488679104,0.0163826190585884
0.0141576984828846,0.146055219203262,-0.0434116567244093,0.00530205343574085
0.0353098164456421,0.140160473216622,-0.0249180202365821,-0.00409171044449083
0.0634878061757182,0.137062839634682,0.00104730137404219,-0.00470094396613254
0.0688558919451046,0.126656096511141,0.0161634098819734,0.00117152962738656
0.0612723658890061,0.0200092387613759,0.00474357771594703,0.00660103213736557
0.0653907132109593,-0.0879226035765414,-0.0195887540548042,0.00623877132891218
0.0847348743336373,-0.0835762005125014,-0.02546049542512,0.000593946772050529
0.0916049039172176,-0.0524472851321693,-0.014282896044036,-0.00431763057761482
0.064740608198868,-0.0697205050419274,-0.0052294373673517,-0.00491304688512116
0.0217302087064959,-0.102181174738771,-0.00366892146976325,-0.00377236270034971
-0.0176739560684907,-0.117672061731015,-0.00605276412405285,-0.00478386607517511
-0.0466050046930532,-0.117684219390351,-0.00811087032430901,-0.0087661739738145
-0.0569982935214411,-0.118884703406338,-0.0115089303762747,-0.0125836192073813
-0.049560265070951,-0.127075233289845,-0.0137707829754387,-0.0115049619475277
-0.0343999912482687,-0.123550676750157,-0.00711041812874936,-0.00372722228368693
-0.0233820490712062,-0.0812249360182962,-0.000136517311388144,0.00696731440566594
-0.0166347085821007,-0.0267673457836627,-0.00486253047341259,0.0141170156486164
-0.00166642021436873,-0.0494576583730013,-0.0149304068801981,0.0143370029575752
0.0184189438369615,-0.116186898138722,-0.019613816512248,0.00893112085376532
0.0403904684372585,-0.0765609046009575,-0.0217324086186368,0.000712201614400281
0.0692642839253265,0.0446426852465668,-0.0232840522650716,-0.00729097363034026
0.0908012045683653,0.0898883074685155,-0.0169661127115337,-0.0116401336451001
0.0959028185023032,0.0295695132152998,-0.0069207702887403,-0.0107623427706549
0.0776774731074487,-0.0297258285651497,-0.00288751321793458,-0.00590531064981781
0.0159114048245704,-0.0265263702389841,-0.0057950262812891,5.18854197185392e-05
-0.0763455395766419,-0.0136386527563657,-0.00834163800413975,0.00392381858413493
-0.136392341512634,-0.0125798142442666,-0.00139451419819717,0.00404324113671639
-0.131138711933803,0.00956507179998899,0.0125922013806773,0.00163339544817984
-0.0969533926815566,0.042782581912936,0.0206518712972386,-6.57846991680116e-05
-0.0675310926630139,0.0729872941136413,0.0172574548324769,0.00120096616311265
-0.0429521330650079,0.0888060855625959,0.00545014482054616,0.00438866056997145
-0.00965924930365131,0.0578293165794345,-0.0143564343064183,0.00591446380691348
0.0342201051202005,0.00649001442413639,-0.030775153155971,0.00296992477458548
0.0678114116734071,-0.0125189672337843,-0.0316228110835145,-0.00295451282503804
0.0691885541192278,-0.00479472247510578,-0.0272279128744433,-0.00712347672722567
0.0577022231856601,-0.0310616282824077,-0.0282699590240708,-0.00699664684041122
0.0566998420168047,-0.109850095383769,-0.0287575739917614,-0.00435173467175476
0.0407096812236699,-0.143695803247924,-0.0244855103306763,-0.0020802851491514
0.00553406877256666,-0.0793511308299603,-0.0139263035000226,-0.0015973392452953
-0.0142246957884339,0.0164948221126679,0.00729432485177805,-0.00227727322558397
-0.0013918860124045,0.0865933911184635,0.0267211749403967,-0.00171397344755412
0.00705842913592235,0.0920320851442524,0.0317730952990718,0.00130007765711674
-0.0330685618169407,0.0212116871739439,0.0296341447550152,0.00482732711297074
-0.087686682479288,-0.0219937992304553,0.0292708912770139,0.00616562202852746
-0.101610235453182,0.0189191043985503,0.0259679442398754,0.00472498796557809
-0.0816951941447691,0.0231827683088401,0.0103604917632831,0.000454764198756759
-0.0605002515021568,-0.0543755438248243,-0.0187802794293491,-0.00713581469122376
-0.0378378811333017,-0.0555965086245227,-0.0456928412560397,-0.014689119223018
0.00653930902977323,0.0759354688594446,-0.0400057207638833,-0.0153322715169825
0.0562515342941837,0.157107083189432,-0.00798398363335291,-0.00654712376418018
0.0737717993647461,0.0848759346557416,0.00778231636025054,0.00583782249582726
0.060506843682494,-0.0368050725448656,-0.00187736736046231,0.0131777019043233
0.0328642238149192,-0.109274173464941,-0.00468954891843036,0.0114596467578222
-0.000705499911352818,-0.122755582699263,0.0172615840571594,0.00490875228699032
-0.0264732614234761,-0.096501683125707,0.0382935060155291,0.00250289265024954
-0.0385158668642396,-0.057481763682216,0.0365892508076785,0.00722864022623225
-0.0418610446049994,-0.0440430827814972,0.0260671290884437,0.01341435929631
-0.0493717474534989,-0.0896767645357994,0.0190157916671534,0.0160349075834296
-0.0729276358954557,-0.0912269754289309,0.0167219607878141,0.0149348956915806
-0.0955973021455926,0.0368611530877289,0.0280627166011305,0.0121788984137881
-0.0860876403084619,0.0918459535774678,0.0404767446248908,0.0105197158583426
-0.0440613351218793,-0.0153631514343747,0.019110706166435,0.00899849891473691
0.0032660654547394,-0.115446662594388,-0.036908019631279,0.000639611374206518
0.021365978911682,-0.0888672918097636,-0.0818548015885322,-0.0186865606035843
0.00638020045523985,0.0414386035194781,-0.0750965292144732,-0.0423771909455408
-0.006110434965523,0.0948224254761045,-0.0301484998100188,-0.0578114377994566
0.00047990253733606,0.0415764385834249,0.0149675785386316,-0.0542170314741296
0.00666218581575817,0.0268948187611261,0.0365676021155759,-0.0286577558877914
0.00603220066473535,0.0601351976557309,0.0339044555970154,0.00813089465158398
0.0166773929237285,0.0727419010837255,0.02472053568563,0.0384437811044391
0.029456551109733,0.0462084035728863,0.0180156833524095,0.0525965970490257
0.026260615479436,0.00412482251680386,0.0139866097089583,0.0514484521131217
0.0152675790265996,-0.0330582342814547,0.0100165254243889,0.0392995759108453
0.00674368257628198,-0.0263456580000757,0.00443067946022294,0.020389357224357
0.00268538402577927,0.0316442726206239,0.00900919249664814,0.00124230766364239
0.00215135782036206,0.0693363815452301,0.0258619561352074,-0.00892498438982745
-0.004891085227618,0.0505596730052388,0.0381005674133875,-0.00669746831385439
-0.0313991891551026,0.00842872212732683,0.0370992055175809,0.000306701524153121
-0.0582696778449378,-0.00598715248931195,0.0221929244562816,0.00266269096696404
-0.0540142395802915,-0.0120342836942149,-0.00824905787918796,-0.00225353765363909
-0.0223517838034277,-0.0273763853796658,-0.0386159233176397,-0.0120804915411852
0.0186827776356523,0.00142422389785175,-0.0454539822330316,-0.0219836330341148
0.0675184825784072,0.0412675763972916,-0.0246856021790553,-0.0262793889151143
0.10914336286298,0.0580190378643785,0.00988777143868888,-0.0205927422382695
0.102916079715812,0.0701637592958015,0.0317845057374645,-0.00478477129254947
0.0411568869254335,0.0531995948591415,0.0247295783855884,0.0124671715854721
-0.0327070551907596,0.0683907898459826,0.00879688484972718,0.0189870311240096
-0.0683467076106996,0.151016806784025,0.0162525232839465,0.013235475120316
-0.057716945477686,0.181425398837383,0.0390344009303255,0.00474519859753332
-0.0415810612285587,0.170644173710745,0.0435539300904137,-0.000568495303274592
-0.0351793214653461,0.238248977568348,0.0320047313504288,-0.00357648288722838
-0.0264241505256117,0.324885156203124,0.0229069463711509,-0.00246569561797619
-0.0216845463706046,0.221385497159661,-0.00209826571422455,0.00394254818054707
0.00272583529937225,-0.0438972724014508,-0.0600093593535162,0.00725393322451747
0.0538721188281617,-0.146606260229016,-0.106255434866307,-0.00127066469365317
0.0878367792061909,-0.0206777732072124,-0.0896752870228107,-0.0154939045742648
0.131801643179776,0.0238320934996532,-0.0418018414932288,-0.0202497065464591
0.227585305959526,-0.210255137910224,-0.0297834453455051,-0.0112901980515935
0.270855782723363,-0.398408267790454,-0.0403456088848934,5.63761047362096e-05
0.160155741473164,-0.222042623878609,-0.0246355812141643,0.00406121976043599
0.0152177549996645,0.0281062182265417,0.0032332396579023,0.00355228245079961
-0.0252288166411211,0.0894393452303179,0.0199826013756417,0.00498525892843691
-0.0199826915568099,0.0639540379689378,0.0266153359031318,0.00950801072271388
-0.0437852352352042,0.0457556636167738,0.0227768802208759,0.0128764638549658
-0.0671337356503039,0.0408945031199376,0.0151669073985265,0.0104864883215891
-0.052470612690147,0.0147252343588349,0.00815221925448825,0.00227243973232752
-0.0196101315269876,-0.0175878431310426,0.00238528287200694,-0.00794693872402107
-0.0199929477023334,0.027233240247596,0.00591186173430447,-0.0144547552868877
-0.0645289010754907,0.114213991269315,0.0153732381551064,-0.0119509264023282
-0.0919463907554513,0.121668470545321,0.0167641436359868,-0.00181109807627174
-0.051514681726363,0.0227547379129455,0.00105228032758754,0.00692358133750768
0.00699648928159288,-0.118824647920487,-0.0349010865126144,0.00558787292968472
0.0238046742707154,-0.170423494802047,-0.0630475227044399,-0.00568020479269674
0.0164993352944231,-0.0565826389857229,-0.0483760487523783,-0.0159836731074973
0.0265211236310113,0.0326367324462845,-0.0155918183288255,-0.015135352001907
0.0559141881557662,-0.0487839477499082,0.000518642044432312,-0.00504700354895157
0.079423900733557,-0.128469130233039,0.0042495026053859,0.00632964988825279
0.0989095517930897,-0.0980898810818061,-0.00585741222294297,0.0129294577583799
0.10742124142955,-0.0383763755765899,-0.0249750110135465,0.0105721805616659
0.0768421973545502,-0.0133287395049557,-0.0279751092405156,0.00120039790876554
0.0292997620485483,-0.0377383403976077,-0.0194186406648951,-0.00632420772742379
0.00184503336605578,-0.0781093360115807,-0.0181818205167807,-0.00809605433304868
0.00131745140132846,-0.0852593030095656,-0.0176987932208802,-0.00786581182075579
0.0269960814582753,-0.0814028835853441,-0.0174528147159032,-0.00597184002009234
0.0498807127970774,-0.109348350120649,-0.0265872634522367,-0.00109231960838459
0.0368982822193782,-0.122153827127829,-0.0354111246292239,0.00190613886848408
0.00285719415875298,-0.067334805018628,-0.0278273663308439,-0.000233943131735373
-0.0381085319194582,-0.00179682859979782,-0.0106283287781486,-0.00255095878984021
-0.099357271254899,0.00709680678866017,-0.0039795279162149,-0.000791947777910361
-0.154294956342398,-0.0208988655692611,-0.00595303179978822,0.00161428209347076
-0.151062022981163,-0.0428319019782771,5.00137141839201e-05,0.000558472851489998
-0.0949954028964844,-0.0533047653395036,0.0153375030276133,-0.00126566633176768
-0.0405239251964777,-0.0468789016183401,0.0294322993099248,0.000656184596067297
-0.0232586286684822,-0.0190536961507591,0.0334925973026739,0.00543091936488498
-0.029228790329243,-0.0318635499580388,0.020952376078744,0.00831904973574444
-0.028540590720411,-0.092521017938572,-0.00295304498216042,0.00584848462559965
-0.0234247815418554,-0.0792642238950941,-0.0230172089166951,-0.00155666405853313
-0.0282625163002203,0.0186134228544869,-0.0277954568802076,-0.0100171667726361
-0.0374046294683618,0.109770837991608,-0.0137788416727726,-0.0135221233650289
-0.0474952316443545,0.180906109854264,0.00891972477636674,-0.0081825366568419
-0.0558944319785047,0.210005133705869,0.0207694597738567,0.00194128117898568
-0.061001096525836,0.181765018450731,0.0226894221264631,0.00816016040114547
-0.0681102866940757,0.133557165652477,0.0312684644940433,0.00835327843858265
-0.0729410705025921,0.0684421952765229,0.0436603329008389,0.00841152723693101
-0.0483313314438443,-0.0127154444523682,0.0476734012446457,0.0117302906693041
0.0169667845265332,-0.0888800781701468,0.0331653580134652,0.0155706251221558
0.0712073178951771,-0.188207094019079,-0.00842268312705366,0.0152087985509943
0.0565386444043036,-0.20498768395787,-0.0515538372788351,0.00668485599875479
-0.00935028647751569,-0.0242223343230535,-0.0586175236464252,-0.00829406407103393
-0.0449857726091048,0.115292701266882,-0.0352346504483897,-0.0207780590795326
-0.0211175189430396,0.0548812771319714,-0.00425207191575171,-0.0219920717851153
0.00961443668519186,-0.062007090558574,0.0117762374778711,-0.0122731377743228
0.00830092215350383,-0.121364157356156,0.00526105532887626,-0.00207991180520423
-0.0182915993130419,-0.045305541726666,0.00572870884386123,0.00191834202715793
-0.043972576523318,0.0998235251815932,0.0239610991173764,0.00609950793536586
-0.0468892096075004,0.126147190766914,0.0284686376599663,0.0148888308699482
-0.0227056431750838,0.0646766445525216,0.0105625281992186,0.020445399289274
0.0150435165646731,0.0821758475875291,-0.00263876374416441,0.0182969337329987
0.0361980369714396,0.176698544272159,0.00165984486290225,0.0145901210115587
0.0368763770089166,0.187546341026397,0.0122946804618537,0.0115689275660014
0.0464126418231129,0.0498897699891123,0.0142450933793263,0.00530703823457244
0.0492534752532887,-0.10788495937244,-0.000353223902635666,-0.00452955994667835
0.0151904867798523,-0.11366975079492,-0.012959590858966,-0.0155240362775535
-0.0215009281033898,0.0168737881710324,0.00436109753612825,-0.023492249483427
-0.0155871779329626,0.0761461674460979,0.0323714119996581,-0.020938020375107
0.00858938046786646,0.00435814836764943,0.0349381474400607,-0.00636137234032192
-0.00272341820751084,-0.0503002189798624,0.0193683754401197,0.0101322268748854
-0.0301074221335588,-0.0391328846144567,0.00525904514163058,0.0183322329929103
-0.0238378609644392,-0.0288633859769527,-0.00911493281223463,0.0172998899288024
0.00140101789457825,-0.0356801286012156,-0.0192765449893029,0.0118574241869964
0.0129875448516134,-0.0669070585229761,-0.0152530167819216,0.00696804731937956
0.0142981629075949,-0.112409162166281,-0.00701044156793415,0.00417124043184939
0.0107399290444915,-0.125016727943554,0.000961208965573361,0.0017889228566044
0.00114624232119169,-0.112968245923588,0.0103588629872699,-0.00114774336048601
0.00381554535437189,-0.0695482138474881,0.00540827982439618,-0.00495160526126066
0.0342727207848956,0.0454072935125791,-0.00114623250302366,-0.0110360070531061
0.0785078812009898,0.182943319389294,0.0153561107463132,-0.0178107163544194
0.101772609483606,0.236355273165323,0.0402113744386902,-0.0187706654792283
0.0750365661896513,0.15313804203237,0.0599127607216764,-0.00898760294480882
0.013204126456256,0.0103698101782857,0.0627516692529791,0.00818967418889607
-0.0267212877156536,-0.0956810128789981,0.0326080484207911,0.0220340758930669
-0.0166213359260586,-0.148246180868397,-0.00942029357266247,0.0230381880504177
0.00530612542467016,-0.117073025142327,-0.0326385247453568,0.0102641611258947
-0.00478288326702236,-0.0302508460715735,-0.0361867224299588,-0.00874238279318672
-0.0485899233151246,0.0104457081181548,-0.0186144830765177,-0.021765886615013
-0.0806158899660124,0.00997498183536947,0.0216833605507727,-0.0194401529053256
-0.0516547904001731,0.0456343401190492,0.0537854171762776,-0.00338882771600305
-0.00914856487632275,0.0788924739615538,0.0360113956257906,0.0139151757990601
-0.0259307323017509,0.0660493235426084,-0.0200126112004269,0.0167381797334465
-0.0795194954437473,0.150340414551336,-0.0477196217207878,-0.00018353683549688
-0.0939162885033943,0.303197237749456,-0.0215234340071563,-0.0223362892116638
-0.0126962044298496,0.182270332752824,0.0042859241189243,-0.030122624243086
0.127616015293206,-0.157282501806551,-0.00358590285023044,-0.0218925160815406
0.214901846904929,-0.310673940692637,-0.0182284263119582,-0.0102350645355971
0.173120618397789,-0.270021313191132,-0.0190401454739026,-0.00363452672224689
0.046614700515853,-0.168658097487372,-0.00682714590461447,-0.00240121505579316
-0.0663120905128001,-0.032041503308846,0.00682158677985058,-0.00202153893843792
-0.111411644561755,0.0550434950861738,0.0190458540374339,0.00251171155270691
-0.0699703479981568,0.0633673095052403,0.0272629863675648,0.0105547820686745
-0.00577367000854495,0.0292552323775174,0.0191214986059162,0.0156354628866165
-0.00287042123427676,0.0036363895300826,0.00703801836134798,0.0130431376913507
-0.0343959938420873,-3.38785834326852e-05,0.00421171449430494,0.00554848565848589
-0.0437221639644084,-0.0134460634525114,-0.00275111750571562,-0.00153144334685454
-0.039887993500708,-0.023318153565767,-0.0202003856440051,-0.00697431120998574
-0.0454070439131259,-0.00465085405688073,-0.0277869334889069,-0.0111234518826142
-0.0460119743183145,0.0236469520922397,-0.0139919035224133,-0.0109560333200578
-0.0220189913430244,0.0342083113013623,-0.00209051306280838,-0.0039873777633296
0.0115649190135629,0.012125801049318,-0.0100674730259528,0.00471558993274328
0.0242833222637953,-0.0284270256552084,-0.0273290840660093,0.00708503326076971
0.016714510330657,-0.039653496759049,-0.0342885545817501,0.00157160451407267
0.00924009150315875,-0.0117974026380265,-0.0212437312759008,-0.00596507819882318
0.00666291773601018,0.00679568569130234,-0.000100849874365604,-0.00866060581504798
0.000402473882966315,0.0021379283863528,0.0105924037951918,-0.00548096665016207
-0.00837274241517642,0.00634991952838348,0.0123682739355681,-0.000597521662067307
-0.0111972402162301,0.0278190168528457,0.0155791160490755,0.00265216650975919
-0.011702822960014,0.0143237908424727,0.0158075125188065,0.00374884926778321
-0.0160028413650201,0.00263436625912683,0.00864081508184764,0.0029849477767596
-0.0175070304609213,0.127289790727052,0.00591381240055563,0.00112593804139513
-0.0109875989555434,0.267019733483859,0.0162064058789811,0.00114681741136245
-0.00308276105829682,0.201923254611817,0.0202093357686043,0.00584578021521309
1.86528992144608e-05,0.0182620915297495,0.00153246515591687,0.012070447506587
-0.00293665855069716,-0.048163303544731,-0.0147770721585586,0.0132903761079741
0.00151489147666885,0.00857158650591591,-0.00954150979147756,0.00911434821534567
0.0387259050567506,-0.0025962816652331,-0.00291013212475759,0.00440662681722238
0.0846024328419941,-0.105757013781073,-0.0100521191493471,0.000715118771104048
0.0776104880506619,-0.197895396896295,-0.0192355724468818,-0.0032959719679598
0.0218698123778574,-0.242306315705976,-0.0136788560352242,-0.00627915768098057
-0.0132214192129816,-0.243492214007011,0.000906093903383777,-0.00471012577725042
0.00243305889754286,-0.215860746469618,-0.000889508860807816,0.000962734607766515
0.0186052575279986,-0.141872982582744,-0.0178413761358442,0.00437488694703631
0.00160005084548544,0.000696956228712742,-0.0182335269962054,0.00146483444772974
-0.0336961530508372,0.107663239660922,-0.000786017823510721,-0.00265159399431928
-0.074677767263555,0.0749480644358584,0.00446393894615459,-0.00153712614391236
-0.0878292468209285,-0.00405722495646776,-0.000647492679846241,0.00281220773239656
-0.0464552865403768,-0.0315570854584901,0.00128885065514375,0.00606254015725413
0.0116422325839311,-0.0589486386700664,-0.00381045276561836,0.00759461292677251
0.0331726064728489,-0.0456155460605743,-0.00531356708302979,0.00695637616283197
0.0177229364770651,0.0992949575658191,0.0249191525845997,0.00720586871839272
-0.0079915503998799,0.209010596181868,0.0571897636785221,0.0138425560122775
-0.0326543034659471,0.163004968153068,0.0590609992024627,0.0227546094166698
-0.0370171836908351,0.0970388345722683,0.0363251196214255,0.0236264760356284
-0.0238939586454275,0.0872254833677916,0.00578688796050033,0.0139618735272094
-0.0372248361490361,0.154162418979072,0.00246701993865182,0.000418206124068801
-0.058136408005335,0.230724065736659,0.0283705493407316,-0.00898721744816278
-0.0327652070584105,0.0939474722063848,0.0233840550437388,-0.0122218728158445
0.0188469114354807,-0.182785030178683,-0.029925956699819,-0.0158484766400702
0.0482210514943724,-0.288855931598565,-0.0675322565762887,-0.0257264180883274
0.050467888481237,-0.187753937478175,-0.0470571386210279,-0.0346128086321384
0.0517175708231422,-0.0810250042160784,-0.0142437046708638,-0.0292144365970279
0.0517929500449818,-0.0791841866605517,-0.00672815834593814,-0.00998151423047548
0.0378759160489564,-0.0902729215480241,-0.00365706591891183,0.00932913972052394
0.0207760699782249,-0.0570688754879451,-0.0019201354304127,0.0190999749394123
0.0227404943793203,-0.0415292522114106,-0.00989802823406917,0.0193333444216945
0.0324459337313259,-0.0704858304043389,-0.0201429121752268,0.0142062977740286
0.0203586675249736,-0.0965452726350033,-0.018580918789313,0.00733987985808048
0.00779498589342186,-0.0655209054827098,0.00205798083266989,0.00129124180617864
0.0124458030878796,-0.00499508791711897,0.0168018238279947,-0.0011057026076571
0.0159750918569089,0.0293548461118846,0.0121758390154832,-0.000133912437500912
0.0184861153124801,0.0629896248355561,0.0164233985517452,0.00112780308215517
0.0263092216642125,0.123850075044307,0.0296571191616814,0.00203385076777264
0.0193710289167621,0.175052158328867,0.0256152663418303,0.00179584050518829
-0.000633847965655035,0.177757892172607,0.0173421428149012,-0.00147402267085516
-0.002135328781658,0.136675029958405,0.0210697705869647,-0.00529206383533209
0.021095743699433,0.108224171758232,0.0132507527902111,-0.00648222212828944
0.0455040238909791,0.128147611522896,-0.0129266026004936,-0.00745140210349941
0.032109366181109,0.126053785610768,-0.0312355181927011,-0.0100831473870492
-0.00801013067406675,0.0465578695948128,-0.0289583211571484,-0.0111567630874805
-0.0372857970518419,-0.0264489505824038,-0.0163803633757595,-0.00900130846222931
-0.0537509592960394,-0.000635780092465982,-0.00302139734942002,-0.00748095975889947
-0.0381279666284535,0.0429740080205961,0.0102065759909935,-0.00940069068991783
0.0106846637286238,-0.0241130485462257,0.0150332887143113,-0.0112762427430018
0.0504755968628213,-0.158855390171831,0.00700766058796429,-0.00896120077088673
0.0671480882161036,-0.260737166349682,-0.00478174056862682,-0.00196677311253374
0.0724089833798435,-0.246123153926125,-0.0108744882813181,0.0084296572993391
0.0539269106829343,-0.0996125301093878,-0.0139626857445713,0.0180011385090226
0.005579224977264,0.0450880840271216,-0.015086503911333,0.0197727115665197
-0.0382928254441417,0.0724855450482021,-0.00782272069866451,0.0109660005005009
-0.0522340026111225,0.0370882339297401,0.00010638791240692,-0.00421824434401026
-0.0397196809391228,0.0568094825601545,0.00725634265824503,-0.0172303707300079
-0.0102625543985452,0.0741487637736325,0.0151957711970533,-0.0188173567000047
0.0214395611733602,0.0280873733669369,0.0157292557026048,-0.00734278036283117
0.0329395565108921,-0.00325936231004327,0.0150324879185899,0.0089794125027428
0.0138471783304715,-0.00893165885817516,0.0162322081587864,0.0203306982250052
-0.0177291035840621,-0.0197503199523059,0.0108681192241686,0.0210257211587339
-0.0391492143184703,-0.0178708275494194,0.00421033028616154,0.0115527091860944
-0.048714211573552,0.0298569539916651,0.00370229181353714,-0.00111570222425094
-0.0505548236461914,0.092911211215265,0.00498127995020814,-0.00936472072634017
-0.0455462293128788,0.127086967182912,0.0068258490723891,-0.0110398713404144
-0.042169943572828,0.105706695078815,0.00666887020971933,-0.00813893120392273
-0.0565307645484544,-0.0133563550155187,-0.000502363202680376,-0.00393223528630213
-0.0824197165645599,-0.143827630848572,-0.00106049681922032,-0.00116055988112595
-0.0928519237811251,-0.101693878043027,0.0156126850352998,0.00120504468600847
-0.0840506884412308,0.0457591206854515,0.0304667576058387,0.00600461032371728
-0.0527048875058251,0.075302716081307,0.0281660709823148,0.0104599576441109
0.0178395778570122,0.0175535903977094,0.0121410212868704,0.00594431978888481
0.0790007878696711,-0.0183800293630657,-0.0149088135212342,-0.0112980699353489
0.0547092240842637,-0.0255182600242992,-0.0414185122861248,-0.0313487229478369
-0.0230060778037464,-0.0374694914533824,-0.0413207877412892,-0.039671723929504
-0.0628532752050983,-0.096956697798266,-0.0136763302575901,-0.0320972744999705
-0.0391157069382776,-0.115693526107258,0.0148210538232481,-0.0136491725955727
0.0129740536619772,-0.0451679141323875,0.0344298925429932,0.0088250027269373
0.0597302362924017,0.00305311493915288,0.0492819214896788,0.0293156272965826
0.0780105741235053,0.0385063848953983,0.0565854724642295,0.0445788421729547
0.0496269815961183,0.1229179894831,0.0565737895798675,0.053449041338514
-0.0178250595206475,0.183183274390244,0.0513789548690005,0.0542439623487982
-0.0777464928191595,0.147419981189985,0.02948367038941,0.0442912335685069
-0.0766821588410612,0.0902344151491531,0.00166952183251137,0.022739860570131
-0.0400205326713071,0.0618506985746365,-0.0191283283668846,-0.00329460240753156
-0.0494337044958578,-0.0733487405305732,-0.0676121489459674,-0.024979554543743
-0.070594074366087,-0.185555509319681,-0.117944610561177,-0.0422923940524496
0.00869723908102025,-0.0568523676382588,-0.093450723260218,-0.0518049095848005
0.133565470203652,0.0409154949088069,-0.0213078841208148,-0.0434291613035459
0.154208237779153,-0.0600999116607347,0.0221146990596606,-0.0201448235431318
0.0832324279591468,-0.111284147533473,0.0308618585817472,0.00216977963355647
0.0343233740946265,-0.0932584451636992,0.0311194941415264,0.01374219952679
0.0202233686001827,-0.181351738006971,0.0186678570377538,0.0138792902393568
-0.0110963774668108,-0.189158801902978,-0.00429086711482236,0.00352838523377067
-0.0501115981349726,0.0399673238215997,-0.00166727661106129,-0.0118593112662728
-0.057131667170719,0.232599768962607,0.0288324357966392,-0.0189836539485232
-0.0349289299289555,0.220659682425463,0.039870841282967,-0.00791154168228933
-0.0151407305796181,0.157842449901109,0.025239419368795,0.0147457636581381
-0.0174287154630405,0.137822923280731,0.014687719297157,0.0327761727136056
-0.0237465129915445,0.0940810517633041,0.00627977700233005,0.0367446262006161
-0.00725769545117004,0.0281680011952369,-0.0152363408416038,0.0272512449901558
0.0070794879308729,-0.00988553673556444,-0.0395834300900146,0.00800132840382096
0.00354474801588776,-0.0160260282972791,-0.0386929098756201,-0.0136244424289542
0.0234059814912248,-0.00165771482060957,-0.0225254529633426,-0.0231273939630349
0.0601412580853555,0.00660322614042545,-0.0166415280769159,-0.0143863777755816
0.0640045704104471,-0.00119677444180519,-0.0106433128356336,0.000224640112917996
0.0535601315774831,-0.0191209964386611,-0.00245923420764409,0.0077841826220192
0.0728606841669374,-0.0314012872534993,-0.00389490641621754,0.00742600501225694
0.073090850412919,0.00423559804621272,-0.00413126682226819,0.00423951190544113
0.00361758222165307,0.0814287304023454,0.00736891806434177,0.00283927981533583
-0.0518997617184308,0.117063430115802,0.0150238636525738,0.00476673258894114
-0.0326238214854262,0.0743910369696527,0.0080438514192408,0.00640101813863256
0.00648056446738468,-0.000731802832285633,0.000890267651810057,0.00249159219501442
0.0303700415453423,-0.0444587957411494,0.00679636372837639,-0.00500633888495429
0.0547407309648731,-0.070756525735034,0.0142982912846842,-0.00892155012956504
0.100943472639647,-0.179743188315102,0.00172271587754597,-0.00823214100272827
0.155417083562107,-0.278482286021493,-0.019579916707436,-0.00830538138387501
0.143342505482229,-0.204753610103454,-0.0240759885302783,-0.0112221462988303
0.0263610229912556,-0.0623586384548099,-0.012718237945416,-0.0138023872150004
-0.113554196066605,0.0631388217834928,0.00612393883001543,-0.0132359829717906
-0.173459942941863,0.157931634849748,0.0106623898215403,-0.00909465034963566
-0.159414980910834,0.1364700999997,-0.0251329438139394,-0.00449184896861041
-0.128518706896321,0.0373522499455441,-0.0680280078233884,-0.00521022333006511
-0.0664596898300731,-0.038524460282237,-0.0676874372334763,-0.0109502532492271
0.00579914827467987,-0.0543029950837338,-0.0347078976102724,-0.0136872872507714
0.0234585797067285,-0.0171585436822765,-0.00910235173482957,-0.00826192168466993
0.0131739713671491,0.0322608484124425,-0.00133468355709989,0.00214352749438116
0.0150691243107258,0.0720728736030579,0.0107322944078511,0.011787776598151
0.0222697896161666,0.0741563194344901,0.0271392900905154,0.0185920955150606
0.0195110224918959,0.047628103762485,0.0286875887968561,0.0216410776729139
0.00132594291138717,0.0513640367758528,0.0222798817715059,0.0193355137215754
-0.0204469036799408,0.0775254154602896,0.0241683379839166,0.0130961056553949
-0.0313834078667268,0.0812715187516544,0.0320363064344236,0.00712666350880345
-0.0333865234856238,0.0533033612548966,0.0334783433220594,0.00420082660455492
-0.0337915202253596,0.0221593916581638,0.0227820547312163,0.00256277127940846
-0.0228171885153299,-0.00222526832478394,0.00232949810113174,-0.00349820195738986
0.0177129502124049,-0.0629011567190073,-0.0175158803785315,-0.0170875732094329
0.078971256086222,-0.102625557089586,-0.0283203870191054,-0.0306692648037198
0.113389401247693,-0.0388738907813004,-0.0322671226140506,-0.0333692505081255
0.0991343201222567,0.00157071751502168,-0.0324394763838556,-0.0258635127374117
0.0509980907763216,-0.0477922497880632,-0.0251178943907813,-0.0148733092625337
-0.00452472490861057,-0.0694871687972745,-0.00683925721213565,-0.00204365990976015
-0.0254869454354299,-0.0983390678617303,0.00339000390133221,0.0108594793367968
-0.013840942359608,-0.164895281875166,-0.00834192287691739,0.0166446896773736
-0.0156008677443455,-0.1435051077541,-0.0245082466523786,0.011235259720094
-0.0511559324495453,-0.061569280641784,-0.028358769581973,0.000367675093876547
-0.083441558504887,0.0124597455078038,-0.0134995944339205,-0.00640952859303693
-0.0754331505756863,0.083348392524834,0.00876983757394275,-0.00362029871619547
-0.045227111925873,0.0830141077923267,0.0172145343582586,0.00524406232425518
-0.0268917144525968,0.0149371967624315,0.0112899438755224,0.0101454943069427
-0.0300691735963794,-0.0249237603681112,0.0011455540486781,0.0068947831088066
-0.0295420506718293,-0.0170703980191753,-0.00965288788240296,0.00250613467163015
-0.00661926335544918,-0.00684551522986691,-0.0193193779111684,0.00392506328598161
0.0096773329520155,-0.0263559948727133,-0.029010587850099,0.00906975924094218
-0.0014514317057999,-0.0464091741412077,-0.0325691436503178,0.0115849614839164
-0.0329850737650429,-0.0239821970589174,-0.0129740811430399,0.00965958083238985
-0.0933978486078987,0.0110015065753581,0.0146856214656101,0.0070131213771964
-0.151451677412395,0.0281583614398192,0.0204731565908428,0.00484016134142187
-0.155332097542035,0.10286448543772,0.028041330429084,0.0014289326903488
-0.130969019160813,0.248531474119618,0.0662307585021932,0.00189771259634097
-0.10567747995281,0.332836622598312,0.101945211918301,0.0137549134847414
-0.0482205480969587,0.218409979588773,0.0823221936049191,0.0314769113566767
0.0452671473492653,-0.029609441787781,0.00785566609337328,0.03786681563617
0.133530261758475,-0.102207714682593,-0.0637338525136024,0.0204809735743985
0.174229239660915,-0.00405225500603615,-0.0816922119662081,-0.0162406804498876
0.150701926808574,0.0151187382477572,-0.0431232607592526,-0.051151154357851
0.0824985259939169,-0.0366379518214582,0.00562021746753005,-0.060392148239102
-0.0021910030453027,-0.0428722771930866,0.0256408935439143,-0.0385791410610656
-0.0533548257059536,0.0300188761166444,0.0201020535797182,-0.00353053332961267
-0.00939528629992954,0.0601273939301145,0.00967683894828797,0.0222985828749832
0.0625174228997366,-0.0547848641244385,0.00637826177079255,0.0313897635173025
0.0241932708697546,-0.209824832949606,-0.00598509173165253,0.0294678631609433
-0.0733282033449333,-0.222938853085224,-0.0293838728837233,0.0205411461102247
-0.0836296224861934,-0.0916125429836883,-0.0323830576745929,0.00774048679564974
-0.0104920147063015,-0.00371199814617845,-0.0104641835734409,-0.00143633911027711
0.0324870833113684,-0.0264055875712679,0.00541383202239486,-0.00457994546849528
0.00631389650982826,-0.0709269363045218,0.00548040551422492,-0.00588374500692845
-0.00969667296805191,-0.0712739182505448,0.00516189622973174,-0.00567006813731582
0.0114688846589051,-0.0249343775740282,0.00815597197806832,-0.00217097617171471
0.0097983411748207,0.045001845132095,0.00780050568487038,0.000623445077683672
-0.0161979241157332,0.125207444858792,0.0104719645404755,-0.000710527402618435
-0.0202490110021836,0.178477436706485,0.0216318202920244,-0.00217582316680516
-0.00747779987742173,0.186037607260054,0.0255348500687965,-0.000496380140406026
0.00389950055763974,0.156188941250132,0.014390310600843,0.00113086977229083
0.0181625311810752,0.0984293651040237,0.0077635104277269,0.000707271760678677
0.0214827403255577,0.0305779943883592,0.00819257110457434,0.0022612129070041
0.00987390274057522,-0.0512361899274181,-0.00489579067908493,0.00600887416511773
0.00691956290737811,-0.091003167572251,-0.0181979408656668,0.00427042560479246
0.0169353008617828,-0.0554700462307139,-0.0164249900353703,-0.00471578708206755
0.0264730116592634,-0.0453720528919531,-0.0212011781707342,-0.0144307285183135
0.0499622194914697,-0.0817919389870899,-0.0300052580247911,-0.0206630342083323
0.0928621183336798,-0.0884764011096154,-0.022890179224203,-0.0208134984432455
0.120115660917626,-0.086887545274708,-0.0070225816748363,-0.0129473522783198
0.110418675291987,-0.116144950351672,0.0044479667274552,-0.000968599482321246
0.0730537203697305,-0.123216048422673,0.00859734737852986,0.00756895682603174
0.0345748899660007,-0.085826096632542,0.00941992002995038,0.00824396905448707
0.0125440350069631,-0.0640590859022248,0.00963191184623917,0.0024875793117267
0.002865323856531,-0.0755901409593498,0.00900952034830934,-0.00397031806526753
-0.00531844823591621,-0.0863761969864374,0.00795839061943985,-0.00608303017035521
-0.0138279222812826,-0.0579323486395484,0.00428028826009718,-0.00404465682037499
-0.0150054708247406,0.013102940356828,-0.00340414374345591,-0.00144189048349027
-0.0191574765560484,0.0817461760911796,-0.0059976422770249,-0.000435286723185355
-0.0427159012989882,0.140137387634133,0.00430448512009345,-0.000104708624858436
-0.0576929290324497,0.14546832389486,0.0219762144336018,0.00181939096903422
-0.034368404076093,0.0729794375960488,0.037695001645598,0.00652032344107643
-0.00960118450498184,0.0319657225572545,0.0406986137533154,0.012682371659428
-0.00637930954647174,0.0724313282726586,0.0263890896086086,0.0158152496982105
0.00791566440442338,0.105700531477225,0.00532348193261642,0.0112733161561736
0.0499580494888762,0.0370627553657693,-0.0111045011455894,-0.00118990021558352
0.122038329299475,-0.121989931633699,-0.0219119367171318,-0.0157277252697952
0.184045452725931,-0.296800782625922,-0.0359856201893839,-0.0238543767807087
0.141008532680741,-0.350294425322256,-0.0454928249710241,-0.0229417248967051
0.00883806075028315,-0.187107133821407,-0.0338489560609693,-0.0163828770305003
-0.0827820480217675,0.0145796220811907,-0.0103717544867321,-0.00626756779103668
