0.132673834039193,-0.00566796535522663,-0.0174270385670997,0.00184253608055782
0.155063069306089,-0.0118117841977854,-0.00513752965253027,0.00407497232396251
0.145282839218084,-0.011256414452719,0.00431978049477327,0.00437963225260158
0.105447783185248,-0.00680806230559956,0.00141969193063847,0.00266075485919847
0.0522940555274363,-0.00752927193346144,-0.00968912958435032,0.000633603249477794
0.0065247500992749,-0.0157984221941059,-0.012036260968912,-0.000253310112418866
-0.0270692632238418,-0.024013088709596,0.000371697565174542,0.000483674951207513
-0.0528125985667563,-0.0256811894431756,0.0127288199775662,0.0021724405014047
-0.0642383068071432,-0.0200211896464318,0.0149077304962699,0.00322597798669648
-0.0542609344958733,-0.00856778900695317,0.0102481702337025,0.00258844158068576
-0.0315016336652153,0.00326980841738128,0.00224005452275967,0.000541712431794594
-0.00781279399181756,0.00555529691177945,-0.0075779798204018,-0.00165961105690003
0.0211790146154063,-0.00589416195854052,-0.0139727416644688,-0.00284586407153579
0.049925855484644,-0.0178718088367932,-0.00730231656847491,-0.00271666510380363
0.0594941840059291,-0.0109737718709085,0.00844695460593978,-0.00170617456409601
0.0627559029172288,0.00497297701891557,0.0123088992846815,-0.00080235633915076
0.0743025417520401,0.00515611151208812,-0.00579020893150497,-0.0012031061698278
0.0628193797487196,-0.00400347877724879,-0.0189028380033393,-0.00281350945834428
0.0157277252136413,-0.00238178870650054,0.00137485117335462,-0.00376677362125444
-0.0259191805286322,0.00854871392307641,0.0272146843419328,-0.00285855899118882
-0.0343283957870253,0.014859493802911,0.0234067748381983,-0.000868569314455516
-0.0186926254125657,0.00923391671178889,0.00792973928634672,0.000713259841053464
-0.000538233672807006,-0.0037783065587081,0.00657291580772447,0.000875024903455155
0.00482631339919299,-0.0110272790285792,0.00771187662488317,-9.0583971410063e-05
-0.00624376811112764,-0.00298232223219522,0.00289157686729672,-0.000332417496285318
-0.0257357297060765,0.0124092265657711,0.00729674541215868,0.00158387272572053
-0.0343552483067038,0.020155812403893,0.0222269335453615,0.00461356340452928
-0.0278683992902636,0.0194495619750557,0.0353648312341872,0.00651586271953814
-0.0161844683803749,0.016175778334782,0.0359611063899165,0.00639010530698129
0.000115018640573845,0.0130941305514919,0.0236275765548572,0.00496009315542015
0.0157557190714436,0.0174469122063852,0.0185645897403273,0.00316080733532437
0.0254957161238258,0.0256321816605109,0.0239281105788508,0.00110802708037469
0.0353751523256303,0.0179712980869534,0.00986494751920125,-0.00149261163073526
0.0455714664336407,-0.00422211847440222,-0.031108894072364,-0.00396219383306143
0.0532016285807371,-0.0230663524280576,-0.0655918749763673,-0.00485902987706427
0.0574127692463886,-0.0248577581921361,-0.0580662591287614,-0.00405319709553612
0.0543774042427599,-0.00612448046622548,-0.0182128279272041,-0.00356370162617707
0.0430504418620691,0.0119200523596677,0.00943472812039718,-0.00489521557523613
0.0201546917543178,0.0118046175464057,0.0123207757125989,-0.00639795135794058
-0.00997690302854106,0.0049456295561261,0.0070032997794645,-0.00566373239494232
-0.0300217796352471,0.0052070068650508,-0.000855313318377345,-0.00315459037373088
-0.0326666337098579,0.00247951526571806,-0.016300197920084,-0.000992549498985968
-0.0261558084227992,-0.00742357696532071,-0.0284520176806633,0.00013644255595385
-0.0252260319142174,-0.00739854228198975,-0.0181412491790441,0.000786154154575798
-0.0300548115358212,0.00312105713207834,0.00201571901868263,0.00115824153238671
-0.0273895740084172,0.00917329436087961,0.00952040100461915,0.0010693642444264
-0.0153065679728876,0.00408625251747681,0.00524219862650672,0.000742830103903452
-0.000808668031193782,-0.00502785086371573,-0.000846112055761114,0.000591089407458059
0.00546510487409226,-0.00772845454539645,-0.00409306699132697,0.000566140773741003
-0.00161781444395574,-0.00372191099125232,-0.00138420156224061,0.000507000369498654
-0.00882585533326803,0.00120518736461896,0.00336780161270726,0.000674506233988729
-0.00254751500386498,0.00285575640875943,0.00161901856496033,0.00171694507810151
0.00711739223610245,0.00403087450059787,-0.0038604284919804,0.00328804531387813
0.00294720677242489,0.00886732728916531,-0.00616245601044462,0.00387949276929935
-0.00841822678857609,0.0128679023809532,-0.00607341558322156,0.00279916750806212
-0.0123719977899054,0.0109282036627691,-0.00489470095804796,0.000747876000563868
-0.0109206276892242,0.00566959421857025,-0.00170343286961996,-0.00105015654555354
-0.0142811566559019,0.00124466168529179,-5.79532236151641e-05,-0.00188090853588439
-0.0219907899704644,-0.00121460257232222,-0.00336068726848957,-0.00192253112362155
-0.0214635960093621,-0.00562279350858704,-0.0151907129778307,-0.00168787669136518
-0.0103139874255888,-0.0164985383156657,-0.0330685196071696,-0.00131219905811055
-0.000457388179123375,-0.0247431713015667,-0.0400855264132436,-0.000601485903750779
0.0031841639164017,-0.0210219131572021,-0.0262551404969503,0.000392038046325455
0.00671426021154815,-0.0144623524721292,-0.00421407350145652,0.00132773200957987
0.0100488315332262,-0.0155323321635046,0.00717637453953269,0.00196103110831631
0.0026134949777979,-0.0175908062102085,0.00631607064754312,0.00230641204468243
-0.0167105041305936,-0.0081209004606394,0.00458227184181064,0.00237241917943323
-0.0331309289659244,0.00642126912759397,0.00193625974729083,0.0018850676332808
-0.0282200855904442,0.00676427456413843,-0.0108828636143941,0.000781433092267941
-0.00232345802200128,-0.00875295849350873,-0.0305485688234103,-0.000287555820118021
0.0151559557818048,-0.0223829836800885,-0.0391253190114153,-0.000564092046717111
0.00504086141745161,-0.0209086292342238,-0.0250779139143205,4.95878491659296e-05
-0.016723709968523,-0.00958278225988898,-0.00102426585930362,0.000693734316494668
-0.0310170539870272,-0.0004116064618741,0.0135122878793037,0.000578882406855906
-0.0356961137137835,0.00365547567116373,0.0190780891255967,0.000193640672685683
-0.0353686367617333,0.00461159990367965,0.0249674981099547,0.000205505402259663
-0.0330360186125823,0.00596630426935839,0.0301233360235405,0.000318946683590171
-0.0284066392042262,0.00973240414745023,0.0288298360414658,7.90658347791452e-05
-0.0274498197499468,0.0132598314731413,0.020732572284985,-9.08522643234253e-05
-0.0379079298135207,0.0155649275283525,0.0128566554857944,0.000936409553617704
-0.0494205411440111,0.0178050581380762,0.0110334850840082,0.00355411687450473
-0.0477934710702507,0.0177864835190442,0.0108939973107678,0.00648463174238261
-0.0395867040336441,0.0104687997625077,0.0046761011181043,0.00786131301363226
-0.0314759436664161,0.000541551969376136,-0.00359124786133645,0.00665863061715689
-0.0133026279565981,0.000966748953556758,-0.00158175961714567,0.00257674167248768
0.01054750004785,0.00943005883515997,0.00767748534235012,-0.00349494655499204
0.0211663375139209,0.00798619534218958,0.00501895529174944,-0.00854179601534773
0.0236115253131681,-0.00625415871029496,-0.0112918596983339,-0.00952559560312322
0.0375951528109555,-0.0206644251047437,-0.0220584726714341,-0.00653693020979533
0.0598938681406061,-0.0318206528117551,-0.0230106396538263,-0.00237859733524907
0.062502965257524,-0.0373725557659658,-0.0237692692095508,0.000733565038233098
0.0391883308930565,-0.0346877512489938,-0.0261972478681465,0.00241380397193953
0.0188873468835998,-0.0293921023401539,-0.0263216429308192,0.00266187194847957
0.0155494217553043,-0.0179413020633627,-0.0178751023596937,0.00115677564346008
0.0167476018614405,-0.00101721293684766,-0.00501902060703859,-0.00192561654403865
0.0109949107171526,0.00575314001205018,-0.00130045616291719,-0.0052354533810819
-0.00467845093599353,0.00158597886279949,-0.00529754663820419,-0.00666326044182455
-0.0258105252173891,0.00257879000036505,-0.00273897047508374,-0.00499358708311966
-0.0406302461984745,0.0142780391037794,0.00579131362688383,-0.00102856751913489
-0.0443028877369157,0.0254307140367632,0.00765946215848009,0.00326282799088239
-0.0501860783072572,0.0287026066874463,0.00966501778919976,0.00598612986034634
-0.0559400542791823,0.0221520553751543,0.0247595720622366,0.00637412813241096
-0.0444683890940299,0.00442721320509666,0.0455497078928785,0.0049112625686279
-0.0309952742247217,-0.0099066792549946,0.0619553979341426,0.00252694962742996
-0.0304104232061304,-0.00286914047459454,0.0688385341329312,-3.19433815145912e-05
-0.0336425927278733,0.01763442779496,0.0636359660793923,-0.00223892212866341
-0.0419746614265646,0.0244823031518583,0.0475439302913051,-0.00341430886210336
-0.0490757624897262,0.00319332194170452,0.0241314465819392,-0.00331370195771333
-0.032970009782125,-0.0302427949366771,0.00821027909576773,-0.00317745195753443
-0.00257085370187349,-0.0491519144264617,-0.00176289493904397,-0.00407247778548725
0.0133481939277029,-0.042092743235386,-0.0265117115216496,-0.00451245364272872
0.00992029461154495,-0.0137981375838483,-0.0537382570242321,-0.0030091291724871
-9.16785120074551e-05,0.0171152779215909,-0.0538877411513755,-0.00102721560507897
0.00379458694994606,0.0297333124357094,-0.0400475654677051,-0.000650448936090132
0.0366385164947425,0.0229049793395093,-0.0383315453218231,-0.00167270337273586
0.0830399523024923,0.00716420218893073,-0.0288104436335414,-0.00229470516359631
0.106494439141167,-0.00688776276681301,0.00669888165706497,-0.00175897871532534
0.0902763928527229,-0.0107774667194203,0.0427137337192722,-0.000944486419810767
0.0470150694775873,-0.00822227054861682,0.0569810531793595,-0.000457268051054041
-0.000397468252987018,-0.00706833666528621,0.053379512140584,3.21695694774171e-05
-0.0308780908800275,-0.00875938896118703,0.0465003509065364,0.000943595005527413
-0.0361051791644274,-0.0118954877679607,0.0434128976619706,0.00224080459254965
-0.0249923082259082,-0.0139837210688314,0.0375036484665148,0.00338035916703406
-0.0194168057167259,-0.00873514805529919,0.0304389521956388,0.00324198953215755
-0.0307017938648119,0.00573920850562872,0.0345982517042518,0.000819949650516304
-0.0495257434241563,0.0172597983846122,0.0402870410770824,-0.00288682657455952
-0.0652473204846797,0.020042887004778,0.0235105441308234,-0.00490554349970029
-0.0863902658386273,0.0274081600247969,0.00352097762955365,-0.00283605051052746
-0.119094461764342,0.0377002501635157,0.0190921561582398,0.00232308615197093
-0.131003154530731,0.0365339209848328,0.0580709433234825,0.00614383111191894
-0.101552695493045,0.0301993171966357,0.0800158607657984,0.0054573847074995
-0.0634685104795704,0.0269305478077062,0.0707045003762499,0.00185896602768871
-0.0423511186717802,0.0211866402433118,0.0455370462473379,-0.000780130219933597
-0.0261193070309712,0.011174642743144,0.0175689269335828,-0.000618209054015919
0.00737324428200148,-0.000693363251867508,-0.0254848360769013,0.000811553288372491
0.0755890691782059,-0.0207150804924444,-0.0981995279871549,0.00032996977094024
0.177984230761743,-0.0455176329422709,-0.161944613998488,-0.0032056301374781
0.263937225767594,-0.0579745545469095,-0.153566908113305,-0.00689811315039376
0.248247596463651,-0.0526569670953612,-0.0816471758865384,-0.00728508125022093
0.132420095533112,-0.0300997073708044,-0.00614682884164322,-0.00420022840634346
0.0184484394797085,0.00477420691013752,0.0429707361573943,9.45348101388833e-05
-0.0308175666441799,0.0341105540982021,0.0644728258127421,0.00352664106850924
-0.0340160475937681,0.0449698132759919,0.0629517388498699,0.00544761797831889
-0.0291754243137186,0.0431609534983234,0.0478058661414468,0.00602015665207237
-0.0328657952872748,0.0381448852716193,0.028651181393086,0.00520793061351908
-0.0356579032623797,0.0261711061694294,0.00741887307518473,0.00360569312702707
-0.0244865672983011,0.00874600726747787,-0.0126435914593519,0.00288880784215963
0.00217176660265597,0.0007483273726591,-0.0211974890623548,0.00344297554915811
0.0381133084358595,0.00522534585941443,-0.0179168593303746,0.00341599387768319
0.0648834733806272,0.0103688914451974,-0.0125794499174195,0.00159824482844663
0.0677987847404047,0.00447540109695757,-0.0152959340334165,-0.00100813049705077
0.0513331920947306,-0.0103254392225604,-0.0212924153452841,-0.00280960515509565
0.0230869846736566,-0.0180111537118768,-0.0140331626783365,-0.00324067124340909
-0.00979597967830197,-0.0168849494598145,-0.00241403532770262,-0.00246106150882747
-0.0200452153086597,-0.0171215313731757,0.000462229502161037,-0.000315533427771034
0.00459525715093982,-0.00974128059587841,0.00290601460332761,0.00203864226013855
0.0191336488719359,0.0035741747860462,-0.00142532231338673,0.00178689998572358
-0.00763894505478011,0.00506696115322097,-0.0180108513631029,-0.00138732470819162
-0.0371261697443576,0.00332876689790478,-0.0322779193239284,-0.00480354253196104
-0.0386062965687363,0.0127807052546404,-0.0329137029641842,-0.00633255782991597
-0.0393045078446308,0.026027821810983,-0.0222847242477484,-0.00536935497588982
-0.0551350219213537,0.0269766193273279,-0.0149829012415988,-0.00230135895959948
-0.0622403262455576,0.0157259808653804,-0.0146149686369549,0.00168194172184193
-0.0416909521862198,0.00424078195990525,-0.0151346571451534,0.00476510314919152
0.0104784510639387,-0.0126288924547253,-0.0235448292304558,0.00551462940039843
0.0810381038223751,-0.0424163414020111,-0.0437297917440282,0.00444919091734827
0.125768572053784,-0.0648608976211951,-0.0571376636330896,0.00347415687038638
0.113040401819283,-0.0573570994538237,-0.0506551719139535,0.00380649688063845
0.0730240536916235,-0.0288200922211004,-0.0353455653869321,0.00456825188371836
0.0575964880581991,0.00106388875914036,-0.0221046249645309,0.00361454712489563
0.0708076603796888,0.0205242352080515,-0.0163800233305185,0.000957195988577698
0.0752352372656543,0.0217051567508571,-0.0167165669493817,-0.00102165880568894
0.0500520250339389,0.0130237917645538,-0.0109934575711495,-0.00122444816752285
0.00774424929999623,0.0111550681857232,0.00613916905877477,-0.000873445157885782
-0.0355023275980657,0.0156573585272595,0.0251784400521606,-0.00125229810437355
-0.0706475455722272,0.0160658468324968,0.0310423096719922,-0.00216647065635955
-0.0836471567929187,0.00883145246160265,0.022317099774177,-0.00283690989383572
-0.0682217668041235,-0.00504595680525077,0.0123982589171442,-0.00267036367973988
-0.0398465415741404,-0.024230133591046,0.00786119551744595,-0.00144549876355113
-0.0118883466701557,-0.0393792023616466,0.00552881138223369,4.63273958499855e-05
0.00757160407989987,-0.0342311959537291,0.00458445514408211,0.000537480124829254
0.0097901491157085,-0.0139029149809276,0.000324286526103373,-0.000448022741095769
0.00445984973716455,-0.00257922169865177,-0.0171594545519638,-0.0020516274218459
0.0020756811565357,-0.00366466581847728,-0.0388191861024471,-0.00267293461044063
-0.00605653752560299,-0.00545538531465344,-0.0312873234011518,-0.00160540625865516
-0.036251956431724,-0.000700152154383715,0.0153113820553143,0.000355873125399525
-0.0853260368802211,0.012120099141038,0.0640104315701471,0.00216451788058368
-0.116370646261308,0.0206187518424456,0.0799114914229214,0.0032727815627497
-0.104250235675113,0.0150253635206269,0.0627897093063995,0.00337935345462173
-0.0690212950835759,0.00694641632987416,0.0365493650650784,0.00251214423920253
-0.0367346318797814,0.00572952672035578,0.0229897932331459,0.00116376138216674
-0.00437295813220212,0.00666072965586824,0.0130486722780762,0.000189299590294885
0.0345520688789981,0.00116505706401786,-0.00584662845716474,5.45603299511191e-05
0.0707368903901478,-0.0151298129742048,-0.0150913376893913,-0.000161839401776067
0.104881355745264,-0.0295287704832872,-0.00536815565930099,-0.00184475542343361
0.14227523005255,-0.0270548017409098,0.000277733563551243,-0.00453302420249503
0.172967855860912,-0.0154663914338149,-0.0160269619149627,-0.00610069147416194
0.170092440245645,-0.0112140436139982,-0.0396519138343567,-0.00522306254224921
0.116489927505757,-0.0151216116069973,-0.0545625865833548,-0.00249485960148711
0.0446368950084067,-0.018365802574171,-0.0588379410146318,0.000515250029732323
-0.0106696147363432,-0.0139168795165862,-0.035784982721663,0.00255020912804557
-0.0491525651009754,-0.000588219698171442,0.0138918550894056,0.00292022329586919
-0.0701282904828625,0.0147139803208626,0.0557416161849903,0.00178983884935066
-0.071534687993286,0.0277954542899642,0.0727765530748669,0.000553320632249554
-0.0631417144151197,0.0368078368573827,0.0717466189808212,0.000739777909152046
-0.051081821918627,0.0374546399431785,0.0591287355517958,0.0025866615169638
-0.0368128770015596,0.0332928361291957,0.0443642634888877,0.00475181337771061
-0.0275446760778271,0.0286877866170538,0.0364334681477995,0.00531233748329744
-0.0294748376901319,0.0295784247425675,0.0325221930398543,0.00358974504654308
-0.0395735429909137,0.0442692799503699,0.03145865894681,0.000225326869564038
-0.0452600232110259,0.0550979562963046,0.0321303787202565,-0.00399763829855868
-0.0370419038430077,0.037177023166342,0.0248747376111607,-0.00765959588222612
-0.00389895450250392,0.00259904823288586,0.0095228371648421,-0.00906116187276889
0.0600325202961035,-0.0246963332573666,-0.00708769295266369,-0.00799918372515118
0.125269613813582,-0.0439147529814183,-0.0227780658373764,-0.00538899327211243
0.15150568594198,-0.0582061001426658,-0.0342010152817058,-0.00187164931071749
0.130859511630947,-0.0557045420774477,-0.0325326563646814,0.00196324163312563
0.0706351236885149,-0.0308549418621471,-0.0165509260190199,0.0047945843477957
-0.00867060095270514,-0.00309679135260285,-0.00359194037382139,0.0054629367115682
-0.0644301528432806,0.00632670497218484,-0.00548219795699669,0.00438774192461761
-0.0902917387766846,-8.63656600682897e-05,-0.0102783409805266,0.00284008546087284
-0.107590511103311,0.000546061126535664,-0.00654948362653737,0.00172678291854225
-0.115717809380492,0.0106166646444121,0.000440519229328168,0.00123348597688442
-0.10751594485793,0.00661574671390191,0.00237006956017004,0.000553027072402079
-0.0840954595662846,-0.00282882158984139,-0.00489421645927794,-0.000893993659444341
-0.0531828430494171,0.00528881513790053,-0.0109877908968235,-0.00252759100906993
-0.0181363474677871,0.0165547061771152,-0.00102146713653853,-0.00339286805101485
0.0161757207892704,0.0109288323753311,0.0126654228608836,-0.00279968116171561
0.0334405887762817,0.00226444608137358,0.0143730542304298,-0.000586068528030944
0.0267304847194818,0.00959034222847954,0.0119311771887271,0.00274435986761975
0.00678097859484858,0.0266504396998567,0.0234864954664925,0.00569938479431061
-0.0115529663253259,0.0396597392777325,0.0508413747748699,0.00592404689865099
-0.0176438033584034,0.0411219339559393,0.0644239358360126,0.00222327123262925
-0.0165440828982069,0.0331902797811677,0.048383978766901,-0.00308761703599258
-0.0262966601081766,0.023230696262539,0.0183312396466798,-0.00600031707716227
-0.0467853346530549,0.0142091533728353,-0.0097282624637442,-0.00522972022028739
-0.058092498801442,0.00489182003625414,-0.030922603491008,-0.00269897869442419
-0.0578887976172853,-0.0133016948653545,-0.046420755116386,-7.60625629734127e-05
-0.0511258402673337,-0.0431116540475636,-0.0543150617944619,0.00217453915368193
-0.029917452920105,-0.0633209850492653,-0.049190681572864,0.00352124948234586
0.00571780363555449,-0.0535835983361061,-0.0321001793443989,0.00369978088823847
0.0440790106574095,-0.0240335294411587,-0.0203452802703932,0.0026868470601774
0.0639301191117895,0.0016077133372613,-0.0162312443035967,0.000846736828330574
0.0549340861954971,0.0141349155297472,0.000287195896569885,-0.000730940333685667
0.0300464726421458,0.0196328204599896,0.0255350395479362,-0.00169943571797773
0.00497299469804685,0.02020208678872,0.0391283781257745,-0.00240262198919835
-0.00751954688820744,0.00535598896526219,0.0381447456700524,-0.00221688981674379
-0.0139798685986913,-0.016324503873844,0.0342729305791613,-0.000599476233805357
-0.0308444327094494,-0.0180625903079303,0.0364576030922694,0.0013510746852107
-0.0518471553596713,-0.000801221408233441,0.0436076071490252,0.00206136051656648
-0.0578521310769272,0.0130661250368884,0.0434861269142647,0.000900849173489137
-0.0424265079637703,0.00280319729766971,0.0222895558477955,-0.00147290017565305
-0.0134253276122041,-0.0313597001880735,-0.0183121633972655,-0.00315240622336312
0.0173976262142024,-0.0583634680674797,-0.0624920777133107,-0.0025905907796518
0.0340191885156803,-0.051421207739953,-0.0827752495317646,-0.000130372539660409
0.0292122050679845,-0.0175834423045558,-0.0578856603954516,0.00247150837576012
0.0169462799286042,0.015041773295427,-0.0110106232671892,0.00305032281877467
0.00473354915905898,0.0313237258360773,0.0145960249277528,0.00120873987415823
-0.0142876850232477,0.0380035590467484,0.0200729325715788,-0.000880847899343854
-0.0276353489617175,0.0467047667440762,0.0338984312503752,-0.00156614871177761
-0.0205727683985655,0.0591398024003247,0.058543160453723,-0.00154351421471124
-0.0178412361751037,0.0735621422784986,0.0864204402789445,-0.00202769241022264
-0.0516545217062091,0.0872414783274228,0.114942307814975,-0.00269516587423203
-0.0977541333945477,0.0874392349635717,0.127477814526939,-0.00202133006991788
-0.109434178185982,0.0657673922795102,0.109206193599972,0.000624695873625571
-0.0767603792444937,0.0176143473508567,0.064660598597953,0.00391493499682241
0.000760569554384083,-0.0431897516903711,0.0137474970037456,0.0057917002227019
0.0934289797939057,-0.067466221378535,-0.0202881516668164,0.00535887022423065
0.124600281151127,-0.0381060670650679,-0.0336590104189221,0.00359930971135748
0.072178893083737,-0.0131579579008119,-0.0480896038287175,0.00136016108725504
0.0323574641143971,-0.0464375565520696,-0.0935380421269736,-0.00127974153225314
0.0912377611541227,-0.0980194359406936,-0.154456269533445,-0.00311963284973674
0.182957311394176,-0.0974722090360784,-0.163861325984179,-0.00306079541022226
0.202759704691567,-0.0556495321754182,-0.114513049557874,-0.00194932828157076
0.152190949373539,-0.02241745346092,-0.0727328855543596,-0.0010055811394562
0.0892263037568887,-0.00894337020614289,-0.0480758868084375,-0.000207963762363614
0.0282467371831552,-0.000281563857085894,-0.00305516831162175,0.000470189485516181
-0.0427956402354128,0.0134761604670621,0.0473273965781643,0.000629908447974378
-0.0913736959243482,0.0275887296625724,0.0681344392533322,0.000267771774488573
-0.0782119606640443,0.0369007645873312,0.0602948129089955,-0.00046288278100384
-0.0229312132425612,0.0439349991421056,0.0411825212374892,-0.00116251904910299
0.0191951023323942,0.0446826497732564,0.0240177742515635,-0.00119806734361639
0.025067462843832,0.0335406246243968,0.01955246366815,-0.000417904939037047
0.0157121078476029,0.0166752648144275,0.0226154607698584,0.000432388921455714
0.00944910366093817,0.000928146103219476,0.0152396545798182,0.000879057967133421
0.00930132853947351,-0.0110407152301109,-0.00102763067138565,0.0016637893505169
0.0109661578851331,-0.0185100424072221,-0.0103358951249226,0.00297377008164773
0.00824136367312734,-0.0262351106188281,-0.00970660858323318,0.00395425092976622
0.00873988015728919,-0.0302692743968128,-0.00403230320571244,0.00421711029399835
0.0109671253034178,-0.0236536183872939,0.00253139740924484,0.00402692263269087
-0.000326371041186732,-0.0159061284654189,0.00465917870088698,0.00346992716886519
-0.0097812163858099,-0.0156010748444177,0.00251180676979797,0.00235398680369407
0.0060200288849892,-0.014949814076602,-0.00526887145474007,0.000704364869682035
0.0344151223669811,-0.00880871763821908,-0.0189933381121775,-0.00108849639835208
0.0583156363924772,-0.00782375186274469,-0.0313378435334408,-0.00224506759254958
0.0813209443763663,-0.0197321468102637,-0.0397714209979042,-0.00267797577865302
0.0966343363746222,-0.030711718713765,-0.0384084074854491,-0.00346507774439171
0.0855902920196243,-0.0270692578951102,-0.0276280298413538,-0.00500415157378245
0.0582862381954845,-0.0171289125198278,-0.0290289611012299,-0.00603991263634423
0.0415945083795252,-0.00920763426809682,-0.0454005018149796,-0.00536987766813616
0.0422081693982173,-0.0028240007743518,-0.0546981550599802,-0.00325112135978006
0.0429991392559074,0.0021970816800566,-0.048245378075745,-0.00082671635851572
0.0245776919886384,0.00869431754386669,-0.029110900173314,0.00108961190997901
-0.00647010018334059,0.0133629610955176,-0.00353962155929768,0.00231609362348158
-0.031166265626542,0.014893465403947,0.0240750586241177,0.00276984616516341
-0.0458485754534936,0.0272053453693995,0.0480742416813185,0.00238761834710379
-0.0513390532330038,0.0420008494270449,0.0459148621779095,0.00143905259031543
-0.0338463272035433,0.0265216012385897,0.00629042765936597,0.000806683964335384
0.00933756757386799,-0.0149124544975077,-0.038013869633435,0.00158094164166886
0.0471925038473878,-0.0454233599279264,-0.0447506740515705,0.00406525124946785
0.0519369389847349,-0.0601093311432558,-0.0219488650811177,0.00705896311461687
0.0174862720028402,-0.0658951608417616,0.00153802684789407,0.00819412887598493
-0.0457303155524696,-0.0462794931506048,0.0224393835593471,0.00542550027813507
-0.0974630382336085,-0.0113282913622052,0.0305170200599185,-0.000827020230074867
-0.100561348633504,0.00912423065084605,0.0239298970778894,-0.00733577814228316
-0.0673670096819176,0.0122380565467851,0.0261248400397913,-0.0112163751902389
-0.0344153290493692,0.00943033634136169,0.0377627451693235,-0.0119754401335411
-0.0187568592184995,0.0131529750932153,0.0438977666686821,-0.0101596965752059
-0.0178848064924854,0.0230153335198815,0.0427988732434348,-0.00664888929663359
-0.01765001806436,0.0214852250989316,0.0336679768354345,-0.00275249919588015
-0.00299770180001573,0.00958723652834177,0.0188492779712392,0.000845791669467598
0.0205181930257549,0.00492019399249862,0.00951727712710251,0.00409878080159108
0.0361805416905181,0.00594236734281096,0.00360989573813308,0.0063398169486617
0.0353446611453223,0.0034712796354772,0.000801380272284231,0.00661136165919527
0.0135096289282821,0.00368548789673429,0.023218916987028,0.00505552497156608
-0.0392951139505097,0.0157923445158116,0.0628164543117672,0.00285116421199403
-0.115836608376036,0.0349303260372819,0.0824116105964292,0.000984478653433689
-0.173261559016074,0.0491543148368533,0.080535690592036,-0.000565142922679384
-0.188823659749437,0.054716703165467,0.0722608645492744,-0.00206926875179717
-0.182759914818785,0.051456741546816,0.0486385317343141,-0.00263400418358414
-0.157189499443245,0.0276314459031745,0.00396310034494768,-0.00098541309229189
-0.0934273373012272,-0.0104277716928381,-0.0303803771365195,0.00218441755143876
-0.0211430166109991,-0.0216538069063149,-0.0249815400901958,0.003830624921054
0.00298854215022074,-0.00320546014967914,0.00150731202598682,0.00139300925847124
0.00565028566989829,-0.000527135745247172,0.00507785198739401,-0.00396431033817336
0.0418009658495226,-0.0219901605382171,-0.0285734097624286,-0.00798860625640683
0.0644148068971549,-0.0306325255780838,-0.0537661889130451,-0.00746481140632293
0.0191159936700646,-0.0126932798094595,-0.0256255020541941,-0.00348744574452954
-0.0482209076685656,0.00940469433425486,0.0312640836569254,-3.60739857357753e-05
-0.0771398076795897,0.0180870204897997,0.0654833527714891,0.000878216239022242
-0.0754805339958931,0.00948711382656401,0.0614800470952616,0.000493720465066035
-0.0486786365118787,-0.0187699987459569,0.025701334972976,0.000531214635334924
0.0324175971458942,-0.0500041184604005,-0.0250725560556543,0.00168505344179928
0.12039613448984,-0.0564709431377839,-0.05141221380896,0.00400900784789265
0.113201805337397,-0.0280657998481957,-0.0342901419920366,0.00669506386255785
0.00794764889766153,0.0156397928112744,-0.00894680674971744,0.00769075248139585
-0.079697580851709,0.0339597422887111,-0.00798238999310899,0.00609538130265938
-0.0863852517230087,0.0251119847994422,-0.0150587564480877,0.00336859487847821
-0.0741566410529064,0.0163630662990564,-0.0100837845947506,0.000752488752211429
-0.0920584513783428,0.0141951623923718,-0.00149702575843103,-0.00143185737865026
-0.119448539383385,0.0145105435177483,0.00973795080972732,-0.00260455317888186
-0.120483147706134,0.0120972333112489,0.0287675659652275,-0.00299100985895324
-0.0751185599303455,0.00146069337678272,0.0398220946256282,-0.0044822877963412
0.00574396196048783,-0.0170776376490358,0.0307045624796332,-0.00722945356643031
0.0862991043596356,-0.0321635479857395,0.0214103895193397,-0.00812153848556843
0.127348873974182,-0.0313570364211679,0.0347223197006634,-0.00629219077164107
0.099664126176808,-0.019190376564922,0.0510991208740097,-0.00486001657740773
0.025537194600704,-0.00752635833995775,0.0453287527094895,-0.00473598733283044
-0.0317223271539379,0.00696603532343576,0.0292541827988252,-0.00339208013345354
-0.0483637049868952,0.0279164459316776,0.0129696379605739,1.25881287799529e-05
-0.0465878848951387,0.0418688098059916,-0.0181021959381314,0.00390079628859913
-0.0402748185682519,0.034725958958175,-0.0657662367871125,0.00677646910950108
-0.0255142668482992,0.0191694166124343,-0.0986241404534533,0.00788086586935007
0.000232363401250109,0.0204587764824338,-0.0938497385784076,0.0067102016824156
0.0257278626548582,0.0253394777528611,-0.0831701666710687,0.00350951063793334
0.0357429667231658,0.0090339568889547,-0.102927072982582,0.000677786103489476
0.0517851579049897,-0.0158939109895199,-0.11279619028583,0.000342604426144007
0.0962640120709944,-0.0389656772446429,-0.0632258875419171,0.00135081664896429
0.135288905985336,-0.0651176270505296,0.00232193147399788,0.00180939866435514
0.140121393195087,-0.0844107255448018,0.0283631323639193,0.00186895336804607
0.112121849141713,-0.0742042912357358,0.0372066997624002,0.00197882476157895
0.0464565434690791,-0.0370718595874489,0.0497186646891223,0.000822802427422099
-0.0387977894643776,-0.0153734937908334,0.0397646084333597,-0.00275448033314752
-0.103684170454551,-0.0188998359858414,0.00523131929976642,-0.00721809537304182
-0.123210876856811,-0.017912280984737,-0.0283973225132722,-0.0098950975624817
-0.113153161205578,0.00357070607294591,-0.0398586003943095,-0.00908282228987674
-0.121677926480345,0.0527444147125995,-0.0158694185344145,-0.00492681759604408
-0.153732646937548,0.105555283743706,0.0216965523724592,-0.000415768709236276
-0.166870534106069,0.111986249896419,0.036182521755024,0.00173999963619389
-0.149467693415807,0.0744430906952942,0.0218607621483436,0.00273732644918553
-0.100415442940195,0.0552168533921326,-0.00237489501342008,0.00461007907301002
0.0113425903297293,0.0595941273621813,-0.0117991809072337,0.00634031215925345
0.157555323340667,0.0422998023292849,-0.01062899459394,0.006089667991009
0.229523762209006,0.0266430634248321,-0.0173374431380213,0.00468347737062857
0.207884225600721,0.0211129902756869,-0.0199831148157036,0.0038035802338105
0.197413281302321,-0.025145797410533,-0.0201551879107156,0.00297109980652722
0.233182160088141,-0.0873320620886547,-0.00822925085858476,0.00103805071251959
0.242995848693377,-0.0982953412916124,0.0375274159692075,-0.00148761536658093
0.180886895398089,-0.0667895214904706,0.0747811731709417,-0.00283105272593491
0.0717457599817454,-0.0317647189764145,0.0720314192322047,-0.00210045367615599
-0.0316811620209412,-0.00517669170877787,0.0562237696773005,-0.000841695311545619
-0.106136359943334,0.0114837405009782,0.0353207251339018,-0.000984758171229021
-0.165019988151032,0.0252232701090686,-0.00285817923397151,-0.0026799008825413
-0.215300810599525,0.040962161298484,-0.0469615515506391,-0.00471168413501097
-0.234471794618523,0.0452563928825986,-0.0803272873799923,-0.00492540339736335
-0.208433521721303,0.0297590426839775,-0.0924339025429245,-0.0022506700486603
-0.164294007282933,0.00689306264514245,-0.078290277999443,0.00179340259534396
-0.123609924022782,-0.00600324958702403,-0.0576193964840628,0.00508538777840286
-0.0741700748797788,-0.00259119768342752,-0.0555177589521443,0.00685606433328135
-0.00539308499653068,0.00706679525506313,-0.0603329692901478,0.00744566438800765
0.0769998452263944,0.0129983157623057,-0.0410521857780366,0.00656935388671261
0.162969942536505,0.0110099177142775,0.00181622675438675,0.00391066164058673
0.221180064905487,0.00577173274891545,0.0339266055767334,0.000862152497453213
0.214085929679352,0.0113883361602064,0.0348128114398484,-0.00107851639441295
0.164587433020131,0.0277261878060907,0.0206011062672346,-0.0013665182975625
0.124432796923271,0.0358713622245381,0.0104174501959218,0.000302445945420332
0.100507464441393,0.017195037287941,0.00184551021721105,0.00282100178883234
0.0747168802607532,-0.0114060983266851,-0.00409718909638617,0.00389735638357123
0.0412568135621074,-0.0184032299014753,-0.00392158518857611,0.00284213086838826
0.0114625254772553,-0.0138866744832164,-0.0103400201629364,0.00104172267785609
-0.00202563525903758,-0.0241861638125462,-0.0246639086977955,-0.000720895334200613
0.00357859851724707,-0.0398982052052477,-0.0367931144382901,-0.00311810269578914
0.0121468853001582,-0.0368617905893046,-0.0414066321778482,-0.00583497130489058
0.00174058265695166,-0.0211785804920014,-0.0366070878242074,-0.00716140015306477
-0.0155758748773343,-0.010852588577616,-0.0290871680168828,-0.00615971000587438
-0.0225695764871381,-0.00965880750700835,-0.0248245560338461,-0.00377991519980838
-0.0294777740401972,-0.0110308041622653,-0.0232749611847259,-0.00155205144037487
-0.0411258360719547,-0.0101598918806979,-0.0228339941421837,0.000206313634597846
-0.0465359885364662,-0.00968724897762963,-0.0226926913649322,0.00169464603717455
-0.0371419964789885,-0.012018810282727,-0.0222903494977856,0.00267950459187742
-0.00699905995564588,-0.015467349201004,-0.0204169621814489,0.00306020473440508
0.0355324884328119,-0.0124336920939042,-0.0199850910998897,0.00274752670100668
0.0545916992113162,0.000825813731772242,-0.0188848636392432,0.00173863508491079
0.0392608374273425,0.0163862045681655,-0.0055077091060919,0.000690755462498212
0.0261142353679063,0.0247626674653369,0.00822456356316761,0.000549586029394633
0.0214822678499154,0.0319709736540201,0.0018367449050789,0.00198878402125926
0.000100636534094293,0.0473551560738369,-0.00563421969847154,0.00451710314977281
-0.0262772052151599,0.0547279875591214,0.00186391538070826,0.00602527234282717
-0.0382943432329264,0.0466984539173561,0.00862639204796002,0.00453085658721808
-0.0432890949031457,0.0419153304596429,0.00921149917979327,0.000481527954101704
-0.0457167560936522,0.0439041882930644,0.011613563351385,-0.00374380305548332
-0.0379939851813036,0.0447642484539475,0.0165921215369442,-0.0065312465390024
-0.0198198208759208,0.0376476868351282,0.0118821419130036,-0.00779673731139054
0.00181873700657897,0.0110522983195118,-0.0158409960479159,-0.00783263067797109
0.0265382778947903,-0.0192051813938849,-0.0453361495350697,-0.0066777859566054
0.0594544301338879,-0.0171391108657651,-0.0351438654242942,-0.0046359289682951
0.0874518634239161,0.0100743861236594,0.0130041522906934,-0.00232320765913432
0.0697614990558153,0.0257250871198635,0.0586174665187187,0.000372212717568273
0.00883394915580148,0.0172918212957926,0.0718447013198644,0.00328688582859943
-0.0302720840066538,0.00537790980902389,0.0584037878434067,0.00454861366687006
-0.034427038003295,0.0180859037047767,0.0445599432676037,0.0027337228344516
-0.0562316488723774,0.0333293539998154,0.035193674664625,-0.00131669650282813
-0.100762399224111,-0.00314158368075322,0.00909265336206555,-0.00511991081806226
-0.128430701962459,-0.0521051090767205,-0.0264386698082529,-0.00548558727014185
-0.122450473980276,-0.0283389527604715,-0.0392450948015001,-0.00179238364843484
-0.0846882071848134,0.0257698825175765,-0.0360101364315387,0.00267078604553154
-0.0237415162117466,0.0333465207844354,-0.027042037386543,0.00469419417203268
0.0294309034958553,0.0110738389097293,0.00682649183866872,0.00374206548546062
0.0499683755441482,-0.0143986229402381,0.0528257001913916,0.00150944770064323
0.0587296027276661,-0.0293486555601534,0.084317456299226,0.000523176269545479
0.0725473097205465,-0.011268639421198,0.103193215422884,0.00137253858545652
0.0758803357200107,0.0253616718646916,0.0942683373563881,0.00189307859495389
0.0634630919658976,0.0529019951788402,0.0482433775144843,0.000619030298318598
0.0425648478960398,0.0682170300637814,-0.00331945231247245,-0.00149557887174369
0.0140513101738167,0.0558535683586407,-0.0353170525507331,-0.00289636352395621
-0.0158090883650155,0.0201201809548732,-0.0410138968500777,-0.00315890173153538
-0.0333073442078755,-0.00927921463170731,-0.0306475294265968,-0.0035427925988926
-0.0408060210499544,-0.0343337547951868,-0.0299284860011934,-0.00503680842283165
-0.0577619464218492,-0.0414389972672001,-0.0308778554106304,-0.00663506249570537
-0.0841127926904441,-0.00613940149649892,-0.0173184899921831,-0.00661173457892446
-0.112049498199336,0.0388763817423602,-0.0084930406421423,-0.00401047045388272
-0.139095357369949,0.035687990877125,0.0049241219697974,0.000582438895383021
-0.127892512567473,-0.00855052068336246,0.04606332202671,0.00488049570329819
-0.0586411173736424,-0.0303089718183535,0.0900156981205758,0.0067355944031505
0.0209935579671683,-0.0159925413787389,0.111278091793869,0.0064036085586678
0.0726240159588881,-0.0026826822376255,0.108951597952453,0.00603945118379408
0.100624434072785,-0.0131177149696283,0.0853670561012662,0.00660464194123899
0.10248769467762,-0.0343365942591173,0.0506711060732038,0.00611045127165245
0.0846238308718412,-0.0545632315520554,-0.00576620174435154,0.00197586075713936
0.0873445995445717,-0.083117417130662,-0.118610431227843,-0.00386829934745957
0.115718925967865,-0.0994159104282022,-0.240756864271888,-0.00540000324799463
0.123466410132263,-0.0758104951987641,-0.249476584991729,-0.000527819485763336
0.0857754824939199,-0.0406716748223625,-0.141206649095482,0.00598253453542348
0.0179470931338929,-0.0290584141001102,-0.0446267183844135,0.00828190905898156
-0.0517425524849714,-0.0218739122456962,-0.0107646461786408,0.00483620883662703
-0.0912566928757479,-0.00302157437370013,0.00672612797674944,-0.00136386961844857
-0.0893679329331422,0.0123711807813958,0.0246146572757843,-0.00610230715856563
-0.0712201821925104,0.0260736306699335,0.0316782715720912,-0.00751214582744376
-0.0602043222017575,0.0398645168959388,0.0203274495239623,-0.00681163397363763
-0.0550326057144337,0.043891389544878,0.00242908530449609,-0.00556901773081181
-0.0469081228707089,0.0389600585639207,-0.00106596091040017,-0.00388399179805053
-0.0225319588896818,0.0272305754837927,0.000580302405059664,-0.00125118467930624
0.0204335237703999,0.0123127291892062,-0.00128573477631204,0.00214031812517707
0.0626510967990079,-0.00529336145938716,-0.00658760658015257,0.00473066573246308
0.0933901976393168,-0.0213720353205855,-0.0246091077190619,0.00558326312768353
0.100878436866157,-0.0196878012476832,-0.0434545954142952,0.00564736244587408
0.0716540942195689,-0.00859293553475205,-0.0359826258905401,0.00525310528095857
0.02547722501428,-0.0191906216033881,-0.0086486861273876,0.0037290324401031
-0.00982162608298702,-0.0372968177293476,0.00541339775023282,0.00125209849333714
-0.0293355863387751,-0.0190140333377772,-0.00362876447414002,-0.00104985258751943
-0.0350095967235403,0.0164750477165741,-0.0218749132895439,-0.00220471698250836
-0.0247140529949241,0.0153502865275326,-0.0406247353117224,-0.00190598655339108
-0.0171039683921837,-0.0122374944368754,-0.0506549014337849,-0.000484054081633594
-0.0363465723192981,-0.0220199199760051,-0.0404251712119231,0.000885601165714795
-0.057346021728765,-0.0248288975803969,-0.0215560261513873,0.00124302729171877
-0.0440040576955395,-0.0327868978208707,-0.0139532534958306,0.000930176879909642
0.000497261358708354,-0.0105474783922005,-0.0232725726299351,0.000724295068461156
0.0507482240229912,0.0225375812435678,-0.0429545567404518,0.001242686321257
0.0787571549386734,0.0104236726414194,-0.0476196384070942,0.00258751530486223
0.0784673402380588,-0.00646832492569688,-0.028256817451042,0.00345590726758247
0.0599472738287512,0.030770852693387,-0.00844879782996339,0.00201419764561342
0.0281581914664619,0.073533634330792,-0.00209336175198891,-0.00138716413456047
-0.00829819757014076,0.0621708727453341,-0.0044155961635356,-0.00411634328260602
-0.0269719203383766,0.019408977715777,-0.00737739566187323,-0.00488325264593866
-0.0130529190979498,-0.00366630362073474,-0.00780124432087754,-0.0045827721832881
0.0144748335621143,0.00823881904693764,-0.000453367031430538,-0.00406103790199839
0.0246740701428903,0.0232575127794641,0.0175055303066211,-0.00393542173188073
0.0112585000300597,0.0173268392475838,0.0317047066627262,-0.00454000127995248
-0.00525276763533069,0.00797526852065087,0.0303022142846981,-0.00493791298081763
-0.00305717098362165,-0.0085442342941761,0.0155350829337379,-0.00355858460458204
0.0309103373783727,-0.0428934944072426,-0.00260427881421538,-0.000283929074667215
0.0808060962588027,-0.0551205107659623,-0.00426259106319571,0.00280343137074248
0.0980976705773006,-0.0216781523819779,0.0170750562464373,0.00352465180471856
0.0662668183512572,0.0273822133286755,0.0486865234335478,0.00167922424922267
0.0113006284875526,0.0576261510497814,0.0737597746236467,-0.000846941282407932
-0.0336058434504672,0.059558195692541,0.0731936646706156,-0.00152639117043871
-0.0470899342669819,0.0464394670180273,0.049926605892996,0.000244849356938318
-0.0428666536117098,0.0281666439755118,0.031845689977838,0.00283499812949139
-0.0425230108182406,0.000181403929639654,0.0311596786520596,0.00448645443384899
-0.0445543311362435,-0.0279778885819707,0.0351692683079132,0.00435228726216599
-0.0496842263953363,-0.0292029701519679,0.029789183590333,0.00237548595147033
-0.0572895924797883,-0.0110765462026736,0.012165611474914,-0.0007746207129798
-0.0471766657185071,-0.00738993795867912,-0.0159896889051578,-0.0038349194659219
-0.00485009651306954,-0.0306650402067386,-0.0690197665591881,-0.00596676721804042
0.0595811212651047,-0.0649795433154441,-0.132974092463619,-0.00652285573707609
0.116564986216942,-0.0692780943511689,-0.143424199074272,-0.0048567621167161
0.138181420147582,-0.0301552772819898,-0.0778431834347703,-0.00231371385962436
0.113463942490963,0.0150501857866654,0.00491649692297574,-0.00134669919476359
0.0537757430789309,0.036356334679063,0.0358617011622551,-0.00211582759168804
-0.0041209587680909,0.0339442823453835,0.00954449803281063,-0.00132333329232027
-0.0254816129808487,0.0241394440587394,-0.0197437589030361,0.003624358892392
-0.00751336414644473,0.0259896695827314,-0.0065286383564683,0.00905771941515914
0.023298733684307,0.0350835670799669,0.0365280038494841,0.0094112495867984
0.0238139698554188,0.0377128751477969,0.0711429114668127,0.00499458730579328
-0.018351326324069,0.0343879075675038,0.0741779078832029,3.13991056517353e-05
-0.0595355421956819,0.0262910254073944,0.0460872322400979,-0.0027273652795851
-0.0684018162490623,0.0171961452219046,0.0136409387711796,-0.00307683435125825
-0.0600881166720799,0.0155099161687292,0.00111244983826958,-0.00261590834889323
-0.0573495924865559,0.0087096099997566,0.0101253896057384,-0.00331423309985188
-0.0628444443409922,-0.0101641614154265,0.026616121182955,-0.00471212896083422
-0.0621137439489552,-0.0186823682942324,0.0335725301159575,-0.00451620594489345
-0.042022655467424,-0.0255180765237043,0.0238905418990909,-0.00240749767641277
-0.00805547563766265,-0.0472435592667995,-0.00521813970673934,7.49766211183738e-05
0.0127185957403448,-0.0611494017321615,-0.0431381448828672,0.0021707327156468
0.0082867846015559,-0.0445411045811898,-0.0502468491595933,0.00397376777209126
-0.00647597978296069,-0.00670682791133084,-0.0187270277561253,0.00515522582544977
-0.0228637277615817,0.022893292771371,0.0200002768481417,0.00548972290066489
-0.044350335728872,0.0324005903277291,0.055599134958763,0.0050312228463875
-0.0740484603120285,0.0241363221131308,0.0664419773676038,0.00357549083423411
-0.0965392103087975,0.00541227066121035,0.0387540215970116,0.00205974540756908
-0.0926125068758664,-0.00817385595209123,0.0164630121438188,0.00179804127896031
-0.0737661474709299,-0.00734260797561916,0.0294630514062434,0.00237999454115778
-0.0526002471890413,0.00143041069574576,0.0440620753138475,0.00213835990958637
-0.0206845330934479,-0.00401798294757312,0.020380338516783,0.000267497894071928
0.0203493930375947,-0.0193143286135171,-0.0384893739631252,-0.0019567866427254
0.0572359155752445,-0.00964301729633831,-0.0934084745330914,-0.00308303656204164
0.095545777569577,0.00583197200080084,-0.100171544608029,-0.00306194505890556
0.142944472195493,-0.00119222925218675,-0.0651935456807257,-0.0018438529298385
0.16319659433234,-0.00199477875586195,-0.0329992617785224,0.00121845102855259
0.111023341170828,0.00689522694060102,-0.00926917316303477,0.00502544714727198
-0.00116100597732272,0.00669228504467589,0.0157222194677712,0.00676011536699053
-0.103383287506273,1.384169026783e-05,0.0277018267971493,0.00477603645704348
-0.134582333498358,-0.00591099305909288,0.0299722506304842,-0.000569962730517017
-0.10369703635737,-0.00852476013933717,0.0262256062419876,-0.00664031231866691
-0.0545925611912554,-0.0229756249455338,0.00202159247934323,-0.00932953378684329
-0.00980434279510592,-0.0428833667886021,-0.0159341595707131,-0.00702753804429159
0.0134724441975336,-0.0353239104567771,-0.00439935989950338,-0.00250587296375007
0.0125270300253789,-0.0112398506611832,0.0124575735782755,0.000837544455055962
0.00754831906459705,-0.0192814897864206,0.0176135651632762,0.00285170721782681
-0.00305833386034426,-0.0573405486315522,0.0149106133316392,0.00541605663905195
-0.0112918277215818,-0.0657036588200104,0.0148805234959855,0.00866850111971899
0.0103551236050072,-0.0412069710599209,0.0120330007981163,0.00960553230537738
0.0429412250458687,-0.0255691018713259,-0.0010791911254951,0.00565177551651741
0.0474366101653596,-0.0152425538353708,-0.0168109104491362,-0.00160051084911407
0.0377443694927318,-0.00582237329718333,-0.034784777497554,-0.00778189516873801
0.0515035014004677,-0.0104772929278341,-0.0529289077878356,-0.00957993523267772
0.0757001513325573,-0.00488761581878768,-0.0573198645169364,-0.00723736627391064
0.0853003544022409,0.024400546700193,-0.0471298567070655,-0.00370499933731006
0.0892618378993722,0.0476544862004511,-0.0387366018707711,-0.00142450664762389
0.0895456831682156,0.057294787432111,-0.0391285925732681,-0.000396059222933832
0.0928975672895822,0.0573959684441635,-0.0334882092190571,0.000617467188684019
0.114131771221464,0.0420725005428262,-0.0114953576857197,0.00181567744327761
0.124514000892726,0.0169464864059073,0.00421265994364103,0.00225759787804098
0.087649862623593,-0.00870417965018085,-0.00552307563473089,0.00138867270248966
0.0265175718451466,-0.0312548602473214,-0.023081968236024,-0.000403950520624192
-0.0161439508623394,-0.052038082362834,-0.0306874466111986,-0.00201684579983626
-0.0362899070227799,-0.0588849401467525,-0.0320402123543001,-0.00210543962970789
-0.0440482150238359,-0.0481507353000543,-0.0320555141065449,-0.000507687182362884
-0.0399685704980674,-0.0390832166264929,-0.0302329317683095,0.00135940504751122
-0.0362910748192631,-0.00902613446286752,-0.0251411211238297,0.00198769966228912
-0.0437811101204569,0.0539395231006539,-0.0161539520377913,0.000882120238132578
-0.0472461345549152,0.0908806416477381,-0.00252396282319503,-0.00140857694726229
-0.0366865589113177,0.0805488256096744,0.0159016079422976,-0.00406626802122924
-0.0169076897241926,0.071642286939134,0.0322682275419083,-0.00633367407880234
0.00145797021773837,0.0887595984364506,0.0406543787869087,-0.00732275206117425
0.00647679811580228,0.0938820010808087,0.0411401378871885,-0.00680770768210631
0.00936277322772268,0.0479596207025763,0.0300108703270955,-0.00506150192514223
0.0212419474853787,-0.0386687325283425,0.00249408674005666,-0.00197960069719304
0.0368523023347255,-0.105967641410462,-0.0223953609210917,0.00236240642781822
0.0503445970970998,-0.0929339310823797,-0.00932484123769008,0.0067886546637026
0.044580873970797,-0.0276308623986534,0.0274551125893699,0.00945968433930507
0.0182998925493063,0.0134408931455307,0.0402093124740976,0.00945976954312563
-0.00240778348319697,0.00615625914531899,0.0288888512131113,0.0068433570783185
-0.0152650752278581,-0.0195849379511543,0.0221394371440326,0.00278647027875737
-0.0207320585022246,0.000530164834540374,0.0217244651535297,-0.000398149982294944
0.00161610371552301,0.0638759846834067,0.0026168674529604,-0.00197142500276379
0.0344906663773204,0.0800616431706799,-0.0368705344675879,-0.00279081138966508
0.0350602415734387,0.0436635204367374,-0.0675716349493726,-0.00321682373513788
0.0191210329507704,0.00922934343486587,-0.075510756533185,-0.00379850618012634
0.0323022506713039,-0.0120094624103027,-0.0582396396309534,-0.00473311209440739
0.0535405227727204,-0.0172783832893229,-0.0264297995295702,-0.004589710405284
0.0454782216817029,-0.0132986711132666,-0.000494042294249722,-0.00246955652138484
0.0248861709299164,-0.016394284458914,0.0153241540278463,0.000297689405267153
0.0105134627946825,-0.0330559791045665,0.0188700145441044,0.00208283438972876
-0.00605361516689618,-0.0361847308251723,0.0141580683746349,0.00303963729682737
-0.0325203183947445,-0.00391043751542197,0.0153837638457184,0.00372292035313643
-0.0526190148259813,0.0149477076121124,0.0227111321017765,0.0035235960279268
-0.051895029228977,-0.00555551971846225,0.0231447406468932,0.00219337717048544
-0.0439562820816172,-0.0233246762616933,0.0138785568471087,0.000449165985346529
-0.0343209939491073,-0.0162422987018491,0.00273372342849119,-0.00148496937609364
-0.0174714245486676,-0.000350923736372258,-0.01169302243038,-0.00350336731324501
0.000540721987265624,0.00769319657184659,-0.0296309773937495,-0.00406653398679071
0.0101978157360959,0.0125678841579058,-0.0356074572067629,-0.00204706823452297
0.0106333578966438,0.00443077675363378,-0.0293147604212431,0.00102898347610762
0.0132033017642393,-0.0382576620821769,-0.0319266539652124,0.00350833985377943
0.0231155251185859,-0.0712808181985045,-0.0376517239503936,0.00559225834329662
0.034744888466008,-0.0462162823548043,-0.0317635924636013,0.00736193354322277
0.0419848878590836,-0.00938784386946028,-0.0277491662423683,0.00788738315125591
0.0388295991834493,-0.0187679087782796,-0.0311942047579458,0.00649897359693806
0.0251015250764243,-0.0258916823651501,-0.0265196076079239,0.00306063414733884
0.00783450939767139,0.0195787870717496,-0.00942108826808437,-0.00198663314336605
0.00110367619852922,0.0458680690937664,0.00791177346729594,-0.00679909855223921
0.0136043726411118,0.0253858341692153,0.0174738187545202,-0.00913085249521848
0.0324024561044606,0.0128438604998785,0.0236108837098331,-0.00811949662511397
0.0470188525256828,0.00785300961771949,0.0209994179413711,-0.0041669651867963
0.0660235071197472,0.00316873286476042,-0.00447135415225844,0.00141139929343094
0.0778264914025746,0.0131250322029326,-0.0254307641279142,0.00599582771570144
0.046263727114166,0.0217092494060082,0.00344328632581869,0.00684787228049829
-0.0466221823545828,0.00761222158020353,0.0561680067540176,0.00393129181076027
-0.159742161464737,-0.0063259366646445,0.0675889735522627,2.87093084965504e-05
-0.217523747269452,0.000114328510440277,0.0288127738923614,-0.00276036567431579
-0.213475690165488,0.00389557035584382,-0.0131527456444262,-0.00416093179138997
-0.192647829702208,0.00162719802250305,-0.00865946744515318,-0.00408216405406731
-0.163078429218128,0.00625189732792095,0.0359476473823075,-0.00318841284540907
-0.110264735677257,0.0115779504871339,0.0760236090050918,-0.00283429206274822
-0.044197522592572,0.0176043986252254,0.0918959297111608,-0.00353045675930014
0.0135151752009029,0.0207843439396633,0.0681143227734835,-0.00507140237654429
0.0680974613443356,-0.00459239907053488,-0.016053987857354,-0.00550574357834713
0.125748215035089,-0.0416360223277281,-0.093238935262577,-0.00167610912807377
0.151048232039229,-0.0290122020441289,-0.0640214123012534,0.00587607636527696
0.113908997359396,0.0277847635246886,0.010869886232105,0.0123458725684149
0.0431901056094454,0.0660389685179281,0.0196284045691702,0.0137168882560066
-0.0256200182947432,0.0616364435437101,-0.0035295505328434,0.00987122188244206
-0.0847395549198006,0.0406867119793339,0.00968675284873259,0.00409050745219527
-0.110827973975699,0.0225414490381892,0.0304866056574262,0.00019693817380321
-0.0694215037356692,0.000919935917732544,0.0262743423307788,-0.00093802777071097
0.00714000284574584,-0.0272326752572671,0.0219590547734334,-0.00166288783801199
0.0216854021990373,-0.0589546748720227,0.0264211585275829,-0.00363671146000821
-0.043469236908185,-0.0614879570074246,0.0272724419620128,-0.00518474470245226
-0.0899435300134799,-0.0155074528066419,0.0234826410181323,-0.00447888616496076
-0.0482753194336684,0.021910171693492,0.0128014049352874,-0.00265945880401822
0.0316620088036561,0.0130451808487005,-0.000585215050418759,-0.00198604655891183
0.0675581061937813,-0.0100320343884105,-0.0107188125725472,-0.0031474315677994
0.0614200933806795,-0.0248783841541388,-0.0203988734156823,-0.00411372287236657
0.0483774775532489,-0.0358893741953143,-0.019692438630647,-0.00257729385326221
0.023287677899779,-0.0354571094977685,-0.00194365302497256,0.000806455416639737
-0.00932560740731621,-0.0231447328815361,0.0188392405918564,0.00382962608381709
-0.0209402260424792,-0.0113583410549543,0.0313791795598522,0.00502007236247621
-0.00802035451142959,0.00116589569469109,0.0273267105999249,0.00459509806624571
0.0174487393131185,0.0156714908908604,0.00439139027912927,0.00407668798851634
0.046449641520593,0.0247796278895251,-0.0175220607944637,0.00367182021312783
0.0547186803658905,0.0213718158888027,-0.0206019532761571,0.00234034964422172
0.0271827859192511,0.00771538844553821,-0.01267151518899,0.000379846299776906
-0.00922230236399002,0.00374143110357521,-0.0147166023600065,-0.000772500625345933
-0.0336561842468129,0.0188083270657537,-0.0317770580457541,-0.000532990867376374
-0.0567432277696526,0.0327361645309329,-0.0391234375480996,-0.000181722955093411
-0.0786331594634275,0.0277032332595885,-0.0252065535340848,-0.00142131710434675
-0.0855364191248902,0.00766505081325294,-0.0150147872012191,-0.00356547210119159
-0.0495420255756771,-0.0123748248846184,-0.0190084803745149,-0.00429466911651635
0.0410651679353931,-0.0290288544391976,-0.0356254885928733,-0.00318772019548574
0.135071955129046,-0.0454466317867859,-0.0870012692659152,-0.000934924902624844
0.193338083417782,-0.0463317900985746,-0.139485794156902,0.00296820309826378
0.216375253424442,-0.020385905914932,-0.113083946368153,0.00724253094082969
0.174774681309264,0.0195679659274105,-0.0370829165378892,0.00810686329789831
0.0705267947551297,0.0545642306097951,0.00584348456112414,0.00459993572730503
-0.0224967978213514,0.0706361653623807,0.0135119555856701,-0.00024243815825552
-0.0728498114894782,0.0599671576674338,0.011356622796206,-0.0032001917577094
-0.101389269497244,0.00589234475596502,0.00256015589665638,-0.00332436469180995
-0.100405680051891,-0.06440852441952,-0.00286249905546287,-0.00159604397698311
-0.0590485900696194,-0.068672098930344,0.00745543168877148,0.000389552720795424
0.00010789047599355,-0.0211106607516372,0.0203495389472661,0.00103113566609055
0.0467750463520073,0.005636844681397,0.0191687183544248,-0.000541630599899389
0.0652032782057743,0.0168687923495921,0.0121311397211657,-0.00344695204805103
0.0543275924487141,0.0233798000808441,0.0116057221228661,-0.00580089400889441
0.0158584360853595,0.00675139725855705,0.0114123022532874,-0.00680720933466773
-0.0343444164716893,-0.00471316829847591,0.0110969933315567,-0.00650046039472342
-0.063829587697138,0.0218450079294031,0.030647981006847,-0.00494777836401619
-0.0639985170587782,0.0598697999440578,0.0605973802079584,-0.00266141131443998
-0.0562393281093982,0.0837173759883849,0.0707223680096222,-0.000468618881574442
-0.0580362587231604,0.076393097812514,0.0634788686350871,0.000616973037557839
-0.0390209314205695,0.0252011816397936,0.0425030201983039,0.000566426475944428
0.0412419620537018,-0.0304695090722961,0.00451503902388752,0.000977639397025872
0.124787697205314,-0.0462681224364344,-0.0296314280135102,0.00288508965976266
0.123871368562785,-0.0313913815524833,-0.046270508874959,0.00531977039735047
0.0563906974941253,-0.0229100516201763,-0.0538797713875505,0.00654669720689977
0.00428890748972793,-0.0449187154317863,-0.0507579185127349,0.00585111518082079
-0.0160884492863179,-0.0685916302660469,-0.0306962028512518,0.00395059745831825
-0.05436289011933,-0.045976815175948,-0.00359074117087288,0.00197561930971531
-0.103426437394865,0.0112026674396599,0.01600797299005,0.000147304356470416
-0.116818682002172,0.0580089168796283,0.0237860444824844,-0.00218767501384729
-0.102235732597808,0.0762910006633348,0.0241179043887472,-0.00496895489118784
-0.0930157813471245,0.0647511911257378,0.0196255985316863,-0.00686632012910782
-0.0832783812960607,0.0282295773426631,0.0224802851150563,-0.00631293443744157
-0.0495974330162886,0.000313905399015754,0.0575379481030399,-0.00338056483054808
-0.00854567458258546,0.00497983739035986,0.113839246648812,-0.000836422329997173
0.0140708511995697,0.0111214792810224,0.13643712431051,-0.00124126383581912
0.0262248508844865,-0.0137397532421002,0.104606475936932,-0.00330783295487371
0.0495943564125742,-0.0683017823396823,0.0465301747716843,-0.00337314483946575
0.087920696226942,-0.127733549491341,-0.0122632866438216,-3.62732324442794e-05
0.136554747800821,-0.147345173285799,-0.0383308352505292,0.00439222191059369
0.177353679302813,-0.111867508813311,-0.0260560142635301,0.00712686544304349
0.154568877366665,-0.0440889101233984,-0.0331092293868442,0.00760219077643733
0.0659585587708871,0.0181131229400215,-0.0658976403875645,0.00640982620994597
-0.00915226441930878,0.0371744011127882,-0.0612146813826338,0.00375034057635051
-0.0308181580157474,0.0279407951251945,-0.0147754347979144,-0.000308517172274315
-0.0290694512202512,0.0271265697583243,0.0236472314997909,-0.00451881109930159
-0.0293140184202137,0.0285771405061386,0.0356110626548874,-0.00635973282922052
-0.0353092957938728,0.0207095301262133,0.0373458117655142,-0.00444085069783749
-0.0508748122082164,0.0145283836321801,0.0434063674737851,-0.000492216187356269
-0.0666085697174192,0.00736218812100499,0.052070184610817,0.00211315703031831
-0.0707883700268758,-0.00584504638816939,0.0573570864562089,0.00204921141557911
-0.0663082068279003,-0.00795559618538065,0.0544140365914872,0.000602032880025278
-0.0509166482919084,0.00634891659966591,0.0432123833857986,-0.000911717062787606
-0.0205964500087494,0.0190412858869888,0.0299539558846695,-0.00221359002610183
0.00647900601951185,0.0160623493901684,0.0150075603236787,-0.00328068016106381
0.0175619929710675,0.00195446271549346,0.0015023043230844,-0.00354791459676119
0.0130337063589817,-0.00751022953976693,0.000270539995558518,-0.00234794742238845
-0.0143240649750227,-0.0300249860532964,-0.00430436583971121,0.000206752308161897
-0.0495079596727829,-0.0640074654681205,-0.036386104661445,0.00374545846555175
-0.0661893858962091,-0.058727535257442,-0.0679236396835653,0.00758989255015545
-0.0542856718050945,-0.0366608228100766,-0.0619660779597532,0.00877512906524698
-0.0198693199409942,-0.0405854297098661,-0.0316554222395419,0.00449606603825239
0.0143724718418685,-0.0352820636070186,-0.0014924411018564,-0.00257469408569927
0.0300597790605733,0.00967606908264896,0.0270587096995175,-0.00753092044488698
0.0302977201715434,0.0463884420584549,0.0470010023045192,-0.00928964371551656
0.0572499131738598,0.0299029730024319,0.0429653806732718,-0.00808530238966026
0.129836257652983,0.00315381597659313,0.027653909302866,-0.00320330006960431
0.1828135280249,0.00722732529959103,0.0239202743621302,0.00319193617962285
0.165075858549937,0.0192842152720995,0.0309401605059524,0.00677020929060485
0.0909973868259353,0.00966397665166996,0.0378567406914521,0.00637970755906491
-0.0112720926216182,-0.00672955585327203,0.0485248523619098,0.00405332989125479
-0.0966937999317213,-0.0056466223293722,0.0593883943704813,0.00123800861913646
-0.138668908192658,0.00588760692450521,0.0493812249784044,-0.0021947479258603
-0.167962791053573,0.0292154117983695,0.021787112978445,-0.00582700033606323
-0.201471868596637,0.0651368687936266,-0.00903886859683042,-0.00770085095678855
-0.208854181624059,0.0744367206358575,-0.056996382414798,-0.00645226753216792
-0.152779064247984,0.0458548713332217,-0.106701143565301,-0.00295330718997036
-0.0536727238706837,0.0405990677648674,-0.0922739270712018,0.000389410084005996
0.0210798191382025,0.0838824778459444,-0.0155469870869093,0.00175539467582422
0.0439837695213623,0.117090619089479,0.0414507356518317,0.00148342308286131
0.0276508407679733,0.0903646827402333,0.0436869745547838,0.000981943958318724
0.0104790918811046,0.0233885996550725,0.0209019854547799,0.00135804012796976
0.0227729504250278,-0.0380153870290515,0.00249725789345039,0.00301508391850652
0.0337220205831651,-0.0693560678171069,0.00873786344662866,0.00474434738185717
0.0145727251768301,-0.0774064298796081,0.0357125630707434,0.00448244714765785
-0.0112087347179776,-0.0778320465144743,0.0401436508167079,0.00184420010889277
-0.0151673965918667,-0.0882809262054764,0.0049712182356691,-0.00101298780514873
-0.00890571631421396,-0.109610613625284,-0.0198866007891442,-0.00137562401367121
-0.0192627803027427,-0.0734998176038268,-0.00131908579776054,0.000289577482331386
-0.025046749229767,0.00536761098972999,0.0184427979403099,0.000559696251070205
0.00851771377813484,0.0321311344368504,-0.0015093536879904,-0.00188781054119676
0.059725278791156,0.0249417358520871,-0.0419498050708346,-0.00468381758553754
0.0939538711896064,0.0227057339311193,-0.0728219718691995,-0.00513531373509065
0.0943300331565874,0.0206747011049898,-0.0891861305155389,-0.00282975316201528
0.0437461399576659,0.0254045379170689,-0.0774696143989768,7.05129578115462e-05
-0.0384326785749747,0.0411900792599351,-0.023634646928672,0.00101232315684631
-0.0956431352701771,0.0518452378649503,0.0517445317228475,-0.000138207528667775
-0.11404025471506,0.0334246937615082,0.111571523359369,-0.00155252412789809
-0.119486554530054,0.00280650689846231,0.129944828026528,-0.00179897855239979
-0.128720089027093,-0.00515975065241191,0.1177201694473,-0.000837534043567358
-0.129081269001315,0.00535601815812598,0.096469517313147,0.000806080708573016
-0.0813128053521071,0.0039118491160629,0.0543185649305649,0.00289339501943757
-0.0097152962950777,-0.0158968333995554,5.56467901270952e-05,0.00532718275902282
0.0440512662577718,-0.0251766597465275,-0.0292566230247678,0.00701671989301027
0.0925490722850693,-0.0173698468585466,-0.0432654695687795,0.00597880029289983
0.119377798444616,-0.0116140464469787,-0.0799334463789011,0.00188845211489719
0.0950419052759754,-0.0109625983401188,-0.141514849319807,-0.00255196217970442
0.0462269117053,-0.0278398654939476,-0.169594417828539,-0.00393075748136228
0.0164992322798584,-0.0499966948284706,-0.116770411714036,-0.00148476975907351
0.0118488289223793,-0.0405645763340105,-0.0348591210213615,0.0025881920101975
0.0236607399687833,-0.0339084927715287,0.00895816430036728,0.00525233117089973
0.0435698608032849,-0.0543122175529541,0.0186160906815485,0.00455133531301729
0.0586481131466292,-0.0603866909328019,0.0271627633102789,0.000873279300090425
0.0490961318305091,-0.0416097892957413,0.0434359768400031,-0.00350391914247944
0.00242633687338432,-0.0232097948701191,0.0527515755088532,-0.00629608056040616
-0.0484166634495153,-0.00868360624698765,0.0567334506635791,-0.00684985496584619
-0.0719831512737062,0.00950636444094458,0.060350008346736,-0.00642304674131717
-0.0773608375279608,0.0272997835074423,0.0465652730069658,-0.00602374208713207
-0.0575586917057866,0.0425954940531844,0.0209946311018226,-0.00495696648293739
0.00251002328173594,0.035135321520173,0.0158081120138368,-0.00264897942992239
0.0661324312979872,-0.00462030077439302,0.026924415481248,-0.000192188964605203
0.0491739938469577,-0.0243235599237786,0.0154288189891252,0.00151126630035126
-0.0510232661796812,-0.0041223210644292,-0.0274039077282376,0.00346510490467016
-0.119840052330069,-0.00817764713874086,-0.0591685253955275,0.00635246311751947
-0.117001708685452,-0.0476932973180246,-0.0416051736533189,0.00848541375336359
-0.104062159340134,-0.0521929935246725,0.0069919050552637,0.00767454177462202
-0.114335084447625,-0.00432505218420204,0.0473791230029968,0.00404947710222131
-0.130607969669946,0.0376802279820362,0.0624896989924011,7.02525094127297e-05
-0.106594234022286,0.0297875119485339,0.0345623426335047,-0.00222452669760787
0.00246383526781097,-0.00113611084714566,-0.0393684104966921,-0.00228869310595826
0.183257330440202,-0.00467990992822593,-0.110925180878718,0.000486462073042371
0.293248943837631,0.0188837023086302,-0.111616285140661,0.0054878054643878
0.184642742816952,0.0398180554038422,-0.02861001528505,0.0089822912943429
-0.0441296528834229,0.0485659283230589,0.0635692365972556,0.00748522609791954
-0.171948372412311,0.0430389304355078,0.0949598738765347,0.001606487418226
-0.14525510285215,0.0188728622695317,0.0688309514730911,-0.00504536263895159
-0.0670590655771161,-0.00428321481097466,0.0194997630043594,-0.00925657694389407
-0.0196833449128723,-0.00551545889320715,-0.0226914861355317,-0.0100497123279027
0.00316330110315242,0.00585550684892795,-0.0427774653004127,-0.00814375423339322
0.0114419777252254,0.000744706573548332,-0.0491413810863357,-0.00517250574720106
-0.0136077818742521,-0.0129646464325936,-0.0608315624530206,-0.0026480196272317
-0.0525565598017116,0.00030620938508549,-0.0721248587300011,-7.69123673472361e-06
-0.0723728169909486,0.0243805603941695,-0.0513914429021528,0.00423850507625188
-0.0860759660033666,0.0226029515128137,-0.00296028116920438,0.00849239675573645
-0.0968124278481233,-0.0096399519953972,0.0221003115938873,0.00872044550946217
-0.0697737643398309,-0.0462746242327962,0.00157932556909317,0.00370271199034621
-0.0201914187892919,-0.0551231761151801,-0.0359959827043592,-0.00267733092766932
0.00576303004451253,-0.0376946998606864,-0.0514250807069664,-0.00443699402253086
0.0184340235854259,-0.0155630252879522,-0.022678221306535,-0.000229917735821975
0.0300337221776311,-0.0031731566347566,0.0247563644576104,0.00459805637265184
0.0401675616504599,-0.000911300016793983,0.0449867422383147,0.00531199304269445
0.0762405948752219,-0.00266723590322624,0.0278710455779613,0.00285598886732179
0.124126739550545,-0.0175927364971874,-0.0109417882626084,4.34308391928867e-05
0.12646020748083,-0.0324387230807738,-0.0431888898576531,-0.00186368749034153
0.0821105782772323,-0.0168386365937914,-0.0481918059220048,-0.00233133239221737
0.0285231122599663,0.00164781904462838,-0.0421746591970889,-0.00172045744434817
-0.0190280261040513,-0.0225517289204812,-0.0393304769804931,-0.00115090078582478
-0.0539265680822325,-0.0622675312881641,-0.028816296453958,-0.00117405855820063
-0.0663460252201171,-0.0676884256592634,-0.0132770567871535,-0.00145246370876457
-0.0522537970310802,-0.0460005323695092,-0.0104303356413197,-0.00119531485426426
-0.027288519124991,-0.0266256128152955,-0.0141543932984944,-0.000289436277290824
-0.0112082159400703,-0.00696783105795272,-0.00918890858759263,0.000616869464042866
0.00575483993158238,0.0287287505991755,-0.00458310447159008,0.00140661473671228
0.0395292938959721,0.0721474417606585,-0.00790505493250656,0.00178514388024144
0.0712716462118956,0.100688023473316,-0.0150025434258582,0.000535649017631065
0.0742023723205673,0.0885022858408443,-0.024299852981728,-0.00184526124074797
0.0640913585375446,0.037825836845476,-0.0357291176068884,-0.00248267079532006
0.0622333355094696,-0.00389890911132357,-0.0368161979748228,1.87874511077095e-05
0.0506162307875936,-0.0164569289427314,-0.0121511151605452,0.00336251533879997
0.0174905038711686,-0.0195224454650507,0.0206789709257845,0.00465873526669784
-0.0261534241738267,-0.0220834920167801,0.0325642576860379,0.00365644071343684
-0.064567669689974,-0.0401451380537053,0.0262534895683144,0.00179685391822868
-0.0794540811926324,-0.0733199541188993,0.0200390135507722,0.000159278362041658
-0.0602581634679758,-0.0741613056390554,0.0179248153778912,-0.00138154370566503
-0.00824968471992717,-0.0278552810496989,0.0200782066405437,-0.00340845619041996
0.0640414179028023,0.0133114593170938,0.0289531164219993,-0.00591203937696555
0.124759110203916,0.0173949498086727,0.0338420697715968,-0.00790951471315718
0.141685668166817,0.0054505216344409,0.0200849141045144,-0.00769220263974724
0.121662516274879,-0.0209601779630306,-0.00727526288203282,-0.00466678765299738
0.0846026506091698,-0.0547597829215536,-0.0261135362498196,2.98558386633389e-05
0.040076500446856,-0.0262660142741518,-0.0293831269291516,0.00502385601156848
0.00216587985932866,0.0623167363017221,-0.0288076923797088,0.0085621385430849
-0.0208343641613295,0.106324052424223,-0.0257195065178628,0.00902925537054498
-0.0286390289541311,0.0828524891624858,-0.0179110756448002,0.00708609335686149
-0.0345894082278943,0.0548732232748497,-0.00933738617545569,0.00438719710745019
-0.0496835755440723,0.0447910742950824,0.000662940819029432,0.00164109793709624
-0.056159598918278,0.0225138170359713,0.0125273984477905,-0.000183646682318872
-0.0487950560823481,0.00379314630441303,0.0340256619901219,-9.25815087037679e-05
-0.040696909072504,0.0141708586552538,0.0637702273947554,0.00078321415396946
-0.0343644356086599,0.00196059569172939,0.0838425456235029,0.000642186767840358
-0.0387071677420746,-0.027207986933822,0.100842087652755,0.000119743341868316
-0.0639719219124859,-0.00940974747133669,0.119410895583024,0.000630222387596959
-0.105063443458489,0.0495125837013864,0.124651758298347,0.00142710226240387
-0.132363730122465,0.0913879907971778,0.11428144505494,0.0010789058774428
-0.11408797732297,0.0736067294983603,0.0939209052278651,-0.000703742368720969
-0.0651366251604956,0.00812510749593488,0.0623208068424547,-0.00312239139508531
-0.00513378996928127,-0.0524334102275092,0.0267438961557407,-0.00526068685467014
0.0742603878142799,-0.0626048371387379,-4.23938048076666e-05,-0.00727832402233637
0.148201680624277,-0.0444655762522212,-0.0410330846210058,-0.008950649097393
0.177451525613027,-0.057445298082454,-0.112800849244148,-0.00879231447499189
0.172371231642328,-0.0962792893596004,-0.144558999817151,-0.00628776565155569
0.151343595793092,-0.0888962168999382,-0.0818749183552145,-0.00295248294853889
0.10527593368895,-0.0246558111013111,0.000357101281978328,-0.000247789181459148
0.0370098486502,0.0230124593512646,0.0305473102029362,0.00267617325780375
-0.0276186662146148,0.03991088418991,0.0336161071797718,0.00789002092562983
-0.0757507275342632,0.0621356931720013,0.0492865435743901,0.0153895862699485
-0.112073998797576,0.0736967478849236,0.0669761377780543,0.0207778787979711
-0.122347076683941,0.0483229404168034,0.0688132900529932,0.0186613131239612
-0.0961558967134721,0.0157938864117798,0.06479098928976,0.00991044484702677
-0.0549075413848442,-0.00510556218122015,0.0536442989304537,0.000474883428185233
-0.0178148139191605,-0.0314277887016513,0.0447599865999082,-0.00594819890175659
0.00776536805890313,-0.0333394926245971,0.0524618064362442,-0.00974633766002426
0.0213733490614509,0.00333058213334297,0.0555017523661358,-0.0122915255004114
0.0269099095738537,0.0273665010096705,0.0467724613004394,-0.0138337622671006
0.0241986085963114,0.0143943850426704,0.0431142732374323,-0.0139304725449353
0.0167510212018883,-0.0170656482329946,0.0431456635347361,-0.0119696676407953
0.00884013471832912,-0.0405070179319108,0.037119203035014,-0.00788703842255929
-0.002261284736325,-0.0333338811485964,0.0273240581127631,-0.0028164964096959
-0.0251448318891606,0.00163395928512851,0.0253183828592971,0.00213777026619534
-0.0683039344245611,0.0419912586366024,0.0344898755781755,0.00635908052219524
-0.112051813958532,0.0630560133945996,0.037034970271056,0.00839870683835921
-0.129670740882291,0.0459887269885045,0.0194875435494583,0.00660764512058828
-0.12851214696728,0.0152261950613348,0.00529500525499481,0.00183617880817939
-0.100982593924222,0.00644582995556092,0.00291354082775125,-0.00291238573483328
-0.0300014299995959,0.000800011206637551,-0.0205650760626982,-0.00552246481666073
0.0556107394499266,-0.0326105025382354,-0.0633725544459986,-0.00521198494630912
0.120870790903966,-0.0733388324801478,-0.0837292512740767,-0.00225935104770091
0.169923095397489,-0.0789541406685866,-0.0630739305544385,0.0014622926301582
0.222740171210503,-0.0520538248343277,-0.0255013401621188,0.00389852203147594
0.258203434158537,-0.0156523332028473,-0.00145168113630012,0.00420254166409197
0.239321778519549,0.0120887083133129,0.0113018944614425,0.00274841018638483
0.165684601365064,0.023714157165175,0.0361127423654474,0.000936235772864485
0.0458814652104458,0.0496028074812395,0.0664429366907333,-0.000251543887008745
-0.0921052812342932,0.0810163696743667,0.0633442386826844,-0.00100729678880886
-0.188596323363572,0.058010224449774,0.0189201052424742,-0.00138455316839635
-0.211635511858389,-0.00935576246839446,-0.0236524344984513,-0.0006864736293371
-0.175787993948269,-0.0437807224867296,-0.0244159908925732,0.000907724849133932
-0.121261978619978,-0.0276026109997431,-0.00730408598551809,0.00123417538517504
-0.0865389880941071,-0.0126683694465596,-0.0259063240538935,-0.000806454757149621
-0.0781849324219714,-0.0152388897701785,-0.0680417325049586,-0.00291529308496336
-0.0755371803909213,-0.00873787070352971,-0.0707262943815418,-0.00297171750552776
-0.0435142634679548,0.0101431241151248,-0.0261695101855545,-0.00222572732071324
0.0314071915562441,0.0198487549736294,0.0163698960346787,-0.00274465266970952
0.112290685423141,0.0172498199025499,0.0342062096905879,-0.00434336039094438
0.147298010001983,0.0163476012475823,0.0383045199208922,-0.00562721926353283
0.117251166792993,0.0111410801298509,0.0376655045680947,-0.00601006364766779
0.0496873144751756,-0.0090859277079777,0.0340974528125871,-0.0053023148312985
-0.00532594149005254,-0.0227033946974884,0.0198217515688228,-0.0026755870980861
-0.0222179302515104,-0.017287504645634,-0.00436339842693579,0.00204025241664408
-0.0138577429909394,-0.0209771743671657,-0.0265656587046453,0.00658465268187157
8.41487856728176e-05,-0.0316348513396675,-0.0483627577707584,0.00835681818861752
0.00884953162301928,-0.0170265150730679,-0.0636774348243838,0.00717618536792401
0.0116581209426436,0.0111386196236673,-0.0582009913671613,0.00425969016531565
0.0111159311817911,0.0168911702215483,-0.0357098262749958,0.00110641528192362
-0.000168999759430607,-0.00480864521305379,-0.0109081597067405,-0.00078030204683129
-0.0198025585481537,-0.0224629502530812,0.00550428093841583,-0.000813486392743239
-0.0415303513197441,-0.0150755756750455,0.0146809146710227,0.000131104127354416
-0.0698427579177143,-0.00590775620145856,0.0212354991212018,-4.43267307841472e-05
-0.0914093196440743,-0.0200475839163769,0.0256129179657619,-0.00269291706625845
-0.0831937132457626,-0.0413375920586996,0.0252879593356045,-0.00633236742169804
-0.0275858361793712,-0.0552582747263116,0.011369315762853,-0.00807842884858147
0.0492842595355952,-0.0500513198130238,-0.0191384419375088,-0.00704987250119969
0.0898749259000775,-0.015164417443494,-0.0549090958212076,-0.00436225726564394
0.10205603098806,0.0130764111037203,-0.0725946222762969,-0.000359779413403817
0.123294581027232,0.00364406703138095,-0.0539130850165964,0.00409189528006128
0.132061256731696,-0.0294433272006463,-0.0178380965657212,0.00621535531906135
0.0923279727477178,-0.0302126002341712,0.0112111747607346,0.00553128566574071
0.0337287032390552,0.0158972501174706,0.0301259627382629,0.00389230281514879
-0.0118819684457301,0.0369938580934089,0.040203676604746,0.00163279854543194
-0.0601715115284102,0.0185995588514398,0.0496790059340492,-0.00102886355998064
-0.0905069483692336,0.00513023781322288,0.0545089035206013,-0.00239822800121852
-0.0790001819925082,-0.00365261759221306,0.0399871764555947,-0.00179923966964392
-0.0618044905663255,-0.00972467816972694,0.0202665127919519,-0.000494098211468703
-0.054182827715134,-0.00575926867025733,0.0216338413666787,0.000586636290328057
-0.0296643535894897,-0.0125168655516938,0.028317545076856,0.00147269154227858
0.00342446031608819,-0.0376487752327191,0.00857107499753638,0.00192489800811571
0.00785326224139498,-0.0552430632454267,-0.0232801452821504,0.00177242944690418
-0.0147469440038389,-0.0282712835272436,-0.025896935934347,0.00173979852643737
-0.034142272977877,0.0339480975619826,0.00361092345167227,0.00168877853369321
-0.0349915086037352,0.0533716812416793,0.0301695396460793,4.25186858778195e-05
-0.0177012472354212,0.01749888302817,0.0412801074137013,-0.00332308556765629
-0.0174256642837834,-0.000424405858417978,0.0450021831605685,-0.00703584277521313
-0.0555444873791099,0.00799099529745193,0.0405072205545622,-0.00959154546905664
-0.0645287327927144,0.00178824641120643,0.0284853796799547,-0.00910026838208047
-0.00140133015625846,-0.0350965566813963,0.0142586687822171,-0.00471500494693042
0.0850059068666845,-0.0761421428411654,0.00536250000283693,0.00194416131144793
0.141117787902181,-0.0583933455757212,0.00180721155691673,0.00752818373138167
0.149505119771953,0.0131109683065933,-0.00829467648545248,0.00933547443902998
0.112633912674986,0.0585809516659881,-0.0262802162714816,0.00785761284547881
0.0477352666172728,0.0414557296435044,-0.0267502631883333,0.00637681449044679
-0.00520700590148253,-0.00428661463758366,0.0192249391683024,0.00683898933798812
-0.020521530056711,-0.0283925777599382,0.0871830600518314,0.00725819075944528
-0.00666291024540776,-0.0151466848968992,0.127430205874716,0.00512808340500616
0.00225980983433907,0.0322370421260804,0.132206957561615,0.00110769746975529
-0.0251878238881414,0.0899645868875432,0.116580721006783,-0.00255488147562997
-0.0909293398700345,0.0979550659062745,0.0863029799190625,-0.00487827132691328
-0.164725543677134,0.0507886809028087,0.0400980554421317,-0.00576128195019083
-0.190036919139328,0.0172900719280581,0.00945719239042733,-0.00457095235076348
-0.163534727549335,0.0362668515402225,0.0325137214237265,-0.00173160300832019
-0.14662685477499,0.0601635018107596,0.0640829857968374,9.27538408373564e-05
-0.151658104179106,0.0184988999076589,0.0196829146852968,-0.000988009639650094
-0.11627656217268,-0.068219266119773,-0.0939108843482426,-0.00360563148930529
-0.026778175382769,-0.0967504979626674,-0.174712928435932,-0.00445963163643722
0.0494640104171038,-0.0457821201202952,-0.162973944568325,-0.00155179026689435
0.107622103105456,0.0104979780413,-0.100153407187012,0.00362300581169493
0.188797517034114,0.0437624521380685,-0.0537937091985788,0.00749193913458991
0.263158876494233,0.0485154228889701,-0.0317815371964338,0.00779523467053265
0.297938836469847,0.0164666822967461,0.00165038139156548,0.00544171714320832
0.286323753424715,-0.0427981947878502,0.0370040248002574,0.00312636771885479
0.194618641804767,-0.100414782852093,0.0479804712829449,0.0026183784336043
0.0413228209497089,-0.089774272897132,0.0496852275359027,0.00390735832074326
-0.0756744239881436,-0.0214604957250608,0.051323412345899,0.00484769057635275
-0.113960863058102,0.0053574198362091,0.0423661160891463,0.00226379501911313
-0.140958152310078,-0.00959144337425315,0.0300230704623361,-0.00333847392443442
-0.198214855514815,0.0180925474165148,0.0269203447684117,-0.00695902925634028
-0.214627543205677,0.0709946403280404,0.0265932861063196,-0.00547429550708634
-0.142866556411653,0.0637650589174813,0.019567127166593,-0.00117989454436816
-0.0522228746076367,0.0238883342337382,0.00709178283100879,0.00188637354405588
-0.0159718480006493,0.0320542979785393,-0.00499753896473481,0.0018591806022093
-0.0206142177888757,0.0710799957969762,-0.00876398842769744,-0.000392009959273508
-0.0178984800738037,0.0784976440559863,-0.00641261702992301,-0.00234280127550183
0.000978350171724235,0.045036397237128,-0.0149519876022574,-0.00230420389373318
0.0200273917864836,0.010221652339223,-0.0429141343619268,-0.000574780403150928
0.0439299508559238,-0.00118236320378942,-0.0771578703011934,0.00225508588380939
0.092921436219633,-0.0183094662707293,-0.0968880976657519,0.00541508074152771
0.158470025834421,-0.0541778118360935,-0.0910831890725486,0.00685437865987668
0.183962070629268,-0.080391884651758,-0.0701634493436026,0.00475787003678876
0.126538076843772,-0.080174157964355,-0.051649464297933,0.000158165114958922
0.0351378360038596,-0.0741157633401923,-0.0403967496567867,-0.00352316378782541
0.00575730504938866,-0.100269405287505,-0.0234865611894016,-0.00379659110604595
0.0472695452439431,-0.118161669756588,0.00200093179508785,-0.00117026561062857
0.0844500313985388,-0.0738541742063165,0.00990102020618323,0.00185410421334011
0.0568942562355115,-0.0161210030227653,-0.00125953634870006,0.00338839222896541
-0.00414110356920969,0.00487147674503048,-0.0118441800977414,0.00328814268724533
-0.016730470155518,0.00518030155003835,-0.0147011143414914,0.00239117739493459
0.00415081969666688,-0.000574417732921072,-0.00862667340404703,0.001565116115082
-0.00707097796060197,-0.00904690733672317,-0.00196912802563528,0.000958857335229821
-0.0435398156385641,0.00788138438954764,0.00288558376112799,-7.3328063436501e-05
-0.0688875969186983,0.0606896907164477,0.0140885732787495,-0.00189335732969697
-0.0848947728520043,0.110370653093103,0.0382462231539581,-0.00385584642117965
-0.111937006545357,0.119612032502687,0.0639126210550724,-0.00529516545471127
-0.134782153288662,0.0961606378061933,0.0741728961641092,-0.0058263654497019
-0.122313536982239,0.0720144962596106,0.0790579999956758,-0.00482938551781351
-0.0858940040873836,0.0603102934600949,0.0867066124730541,-0.00249981769209932
-0.0684020660099537,0.0213016910404582,0.0752838038241055,-0.00019914131732166
-0.0738434828527618,-0.070711034735579,0.0330969231131663,0.00172139958769397
-0.0468075189063812,-0.131159459568165,-0.0175985118411269,0.00384013062886581
0.0481835691572305,-0.111877277302224,-0.0687407487569626,0.00471190044083015
0.178236686498634,-0.094886924065453,-0.102897799523692,0.00282778085772583
0.233113479746238,-0.100831622363139,-0.0726327219894937,0.00021839240880162
0.136354422193347,-0.0681907930455263,-0.0104874391638692,-0.000631836250432105
0.0136931233505867,-0.0240052505259303,0.0125005012615729,-0.000187993076726337
0.0293528150123002,-0.0298583900636013,0.00826463021350094,0.00044642853100353
0.121920134602049,-0.0364835614775616,0.0230606915585004,0.000947925084648455
0.125066838999879,-0.00246072350376764,0.0567944564171111,-0.000141662763401473
0.0286359403865573,0.0125634684903969,0.0610975713290494,-0.00315626686217647
-0.0528375209424566,0.0143595293312026,0.0213028841878026,-0.00464711420181738
-0.0611473579933001,0.0443482373848958,-0.0184936959471347,-0.00263332186086172
-0.0363383546184019,0.0565674917096876,-0.020517550048812,-4.47581706687346e-05
-0.0352894075615565,0.0528944915356536,0.0224769476537113,0.00041724598713765
-0.0538179096193955,0.0795565604355273,0.0775373292331041,-0.000331499401038644
-0.0527528475221825,0.112613926989933,0.103211043545969,-0.000575786955108324
-0.0271422425664537,0.135979815104142,0.097936707447638,-0.000493113628386906
-0.00111262835786833,0.14108170303107,0.0813430737855181,-0.00129751466354793
-0.00439540693882962,0.088800223658209,0.0747966873030425,-0.00282504773401816
-0.0487918542777131,0.00685932312682841,0.0900652935794824,-0.00328246423914743
-0.106907224793818,-0.0836954592154515,0.106805741533709,-0.00129773853584769
-0.137214584795131,-0.155690300991553,0.0937460711220251,0.00300248804126506
-0.114986287506407,-0.117115440184085,0.0413001753343968,0.00732281203594122
-0.0606495897415955,-0.0551270506729498,-0.0317620492076338,0.00833731489227232
-0.00413992500116867,-0.0817027173402055,-0.085301893492383,0.00521957994322179
0.0540767065040977,-0.0984354623562938,-0.113233265654825,-0.000500055437502636
0.106012875558491,-0.0378410273162744,-0.131606936950088,-0.00681583496432733
0.137017122140979,0.0363042345813079,-0.125397245017837,-0.0113851907196676
0.139766078249899,0.0525756261866458,-0.100473945940068,-0.0126483359701363
0.132411366811708,0.0211570875677872,-0.0714961790112348,-0.0105895410066495
0.140656795594694,0.00624829536796743,-0.0232193605260007,-0.00653595100735194
0.149076072533885,0.0135012043669928,0.0224743017377248,-0.00293313734591768
0.12697540363162,0.00337473503849313,0.0350974766259582,-0.000761215988963155
0.0663501777240892,-0.0103698047022309,0.039482346672218,0.00301491166403231
0.0142183456642165,0.0137255499234358,0.0537078190871034,0.0110071641020748
0.0263933536507603,0.0557356538494824,0.0574622817042137,0.0180285349524636
0.0702459620592532,0.0593433508215441,0.0345982902470115,0.0163200955553372
0.0696696591821091,0.031387982977609,0.00558424846727645,0.00734136997037818
0.0124726975561752,0.00841902895535377,-0.00189047361336869,-0.000612364269599892
-0.0382008601759452,-0.0163488637816068,-0.00740593599107428,-0.00265180821664445
-0.0418073939892487,-0.0434464097419857,-0.0329359121176184,-0.000368544604864597
-0.0331560958164241,-0.0479143491719792,-0.0536916007160937,0.00138126527731093
-0.0368392111456043,-0.0111447575169395,-0.0555350157693296,-0.000489705996434365
-0.0271696746625857,0.0420567754738805,-0.0544698158209602,-0.00450889952867922
0.00917366092758606,0.0560835738273485,-0.0536670727978094,-0.00715754259719778
0.0380596208304106,0.0371815596323761,-0.0456836054492009,-0.00702619738972042
0.0308998583090952,0.015197495820651,-0.0351504397405133,-0.00555943347528714
0.00702932943329505,-0.0109556384067785,-0.0257543659696628,-0.00436466383109814
0.00255868596584662,-0.0199175374016514,-0.0126075473797252,-0.00326812933140236
0.0258245102279199,-0.00566313155578669,-0.00801689909621691,-0.00139617346826592
0.0419499018750454,0.0205436341725055,-0.016358864360267,0.00139786052856057
0.027570808784569,0.0424495410391227,-0.0130308031337066,0.00438128640644571
0.014052132940956,0.0334243595112802,0.00417788998504523,0.00639791017812155
0.0233282227071578,0.0251999065098131,0.0142954685061748,0.00598726719311248
0.039306371828605,0.0357675002077202,0.0138832962860783,0.00236446189499739
0.0595545279262431,0.0340396723808956,0.00892518424191426,-0.00265681880050413
0.0802226086957016,0.0243721893998827,-0.00316939661725685,-0.00559255223931136
0.0899967296228863,0.0177165148494566,-0.0222646655110391,-0.00462847613868983
0.0956832313783415,-0.0135091797352588,-0.0325041842176443,-0.00089797017666014
0.0775559765940352,-0.0572274108997708,-0.0246748264229279,0.00270494573405819
-0.00463699010840946,-0.0559216856611292,-0.0212673831078685,0.00422734900975513
-0.125282121452883,-0.0515517351423781,-0.0430355576180581,0.00484745965992264
-0.220400293468108,-0.0769459280247579,-0.0609125940083766,0.00613716835939355
-0.260230089144307,-0.0470184806640769,-0.0439758368400427,0.00655650760930893
-0.240917362087876,0.0333168401725843,-0.0304598248822366,0.00349544761824559
-0.185623593343046,0.074554406947772,-0.0514680196583126,-0.00235409938908919
-0.119463086281043,0.0553406131253977,-0.0638180693511237,-0.00642189624793451
-0.0236902148783162,0.0092372048511893,-0.0358121594980386,-0.00573145778842221
0.10388162396749,-0.00503112753888636,0.00783416615059468,-0.00227481006628112
0.201303466412831,0.0294818396125557,0.0366285092465869,0.000534009890722745
0.230880178562958,0.0461649940311609,0.0376504251244685,0.000453164502791617
0.198126650926818,0.0288416713023601,0.0246789163536232,-0.00219301143314693
0.113302952154281,0.0275596984699756,0.0216751753740729,-0.00428174348429644
0.0168389135855241,0.0466916139545435,0.0228061735645511,-0.00383354427045976
-0.0371167714077576,0.0572676564433578,0.0166467188146091,-0.00223523767087024
-0.038631681520132,0.0303419762377014,0.00319080400414912,-0.00168819700617599
-0.0338528301960791,-0.0115212095326488,-0.0166006130255704,-0.00227623881355543
-0.0718567281063313,-0.0384550816418538,-0.0170999040156741,-0.00241102848352921
-0.14658732324643,-0.0521161699440849,0.0342611183770263,-0.000574865108034756
-0.21699545754808,-0.0307496960868863,0.101760851409706,0.00273899405019423
-0.260130478350696,0.00964072646267988,0.117453810124615,0.00512274822397735
-0.255247563970961,0.0324535550276345,0.08679733478598,0.00610884523651063
-0.206106142915324,0.0394087402463669,0.0627699964143431,0.00713660642638063
-0.150864958013319,0.0488199033167562,0.0613698132004326,0.00718317724823621
-0.0788512372622807,0.0630333131423651,0.0554919681177435,0.00336490919888451
0.0215794392980989,0.0260535192944642,0.0130098719891842,-0.00379984352242204
0.116963818437025,-0.0769229358343744,-0.0912661323277128,-0.00960350509105761
0.182640756986668,-0.174434673266717,-0.222272972199605,-0.0101490771153432
0.194624610008052,-0.202355499924691,-0.249612322037279,-0.00614108561001989
0.132783781039186,-0.127839443557273,-0.136049675809035,-0.00153875453718488
0.034800987079657,-0.0183033783720213,-0.0255969952665046,0.000624809499555439
-0.00979277540262194,0.0240618896608943,0.00747275810385578,0.000541906986823599
0.00349693533717488,0.0408189870739295,0.0210995533596467,-0.00010220276575197
0.00126354170085158,0.0805757445755092,0.0320503599347659,-0.000607113675383719
-0.0212511791242265,0.103391522885807,0.0259068160662514,-0.000566108468031813
-0.0383761137655053,0.0966824252426264,0.0175785140217124,0.000644940503238702
-0.0621681308938444,0.0703819412329961,0.0141944785205373,0.00210190628470537
-0.0818911519125162,0.0351823841989922,0.015628398480494,0.00216819936524299
-0.0581201561618785,0.000481159383984617,0.0302447872437568,0.000879365697410217
-0.0036913209884492,-0.0441926453646105,0.0545311875839295,-0.000107045980122485
0.0366700744937475,-0.0931314258838767,0.0714511097199568,0.000678881250165298
0.0580410439038144,-0.0945867471787215,0.0649072352957576,0.00254182591722549
0.093308353659075,-0.0369133604592706,0.0398799461501374,0.0034926818653425
0.155974028332092,0.00379559166384286,0.0167001668241603,0.00253321892453325
0.173795278103244,-0.00415967655932225,0.00715463674736405,0.0003062679166573
0.0757172996977637,-0.0051327362478273,0.0118929576172523,-0.00128971828164515
-0.0924096856540309,0.0270959806798401,0.0071690973708899,-0.00142153163682184
-0.227163363072182,0.0661610789289823,-0.0311286324901238,-0.00127508015869829
-0.246072220343858,0.0785996516078932,-0.0930944652706613,-0.001470477217986
-0.156580108250111,0.0477584419862497,-0.132460324508794,-0.0012211877510072
-0.0488514571891221,0.00951413411294617,-0.100979421023477,-9.99450687960687e-05
0.0242108208568904,0.00242247984919659,-0.0289890562886298,0.000385794515508477
0.087160281167247,0.000318865588254121,0.00197148942602859,-0.00180065950233771
0.159850148043327,-0.0219318674147275,-0.0208433420582441,-0.00557765828093207
0.211777248341209,-0.0560913142035669,-0.0355355646346078,-0.0071251350830529
0.200252656052871,-0.0811063602222672,-0.01440010700591,-0.00464459677335196
0.117058989823188,-0.0565850431244878,0.0100961748078599,-0.000424249712832031
0.0153275847356748,-0.0141715511975369,0.0166366885812692,0.00247222886314777
-0.0496106131887911,-0.0110096318446668,0.013939218522773,0.00362568361059854
-0.0803188968457371,-0.0123941195893281,0.00926146079036757,0.00412859825116109
-0.110922322160541,-0.00384437997432931,0.0012797927874855,0.00412701626654983
-0.128585410990664,0.000990053398867742,-0.0128195211697862,0.00325605958215278
-0.0821248659821026,0.0170201130290287,-0.0351126797332591,0.00167360136039896
0.0109978802393384,0.0144166658851428,-0.0420676309010121,-7.77642706553238e-05
0.0945433602417894,-0.0227180747244426,-0.0186628062117666,-0.00130078018358035
0.15099340523016,-0.0354294192463553,0.0108756671442933,-0.00108060880780295
0.161967693556028,-0.008905432371974,0.0392889038006434,0.000232092857962661
0.123763519704053,0.0191352942384873,0.0585601417642053,0.00048091617618004
0.0731909649316954,0.0362649525606674,0.0463691852678181,-0.00112136138561698
0.0217121512977648,0.0287501880883284,0.0242091088702597,-0.00277879351103216
-0.0320713692008207,0.00155589011647476,0.0284609542529989,-0.00316907296700623
-0.0763512878994547,0.00469530380438309,0.0469683419541122,-0.0031729817924341
-0.10147110406794,0.0368718027498754,0.0422797510523746,-0.0030078080711467
-0.0952183797644204,0.0517183396113183,0.0041353324136732,-0.000794912197458717
-0.0669978878564585,0.0372390044628008,-0.0451194396326164,0.00371469156937617
-0.0294806308342935,0.0121602259892377,-0.0763593106501648,0.00734696710368569
0.0474453911815882,0.0139208654962302,-0.0619943556759942,0.00687233266717125
0.138853898627077,0.0304717756581262,-0.0128733312851164,0.00224061471190334
0.127263782574032,-0.00484129652537178,0.00753311563200626,-0.00361416655074395
0.0139818873486036,-0.0929209323454309,-0.00973546359987203,-0.00673763489805973
-0.0577957158792391,-0.133566748513427,-0.012958113609514,-0.00509720399721789
-0.025542961899325,-0.0987064276621687,-0.00470938371771946,-0.000716545157378868
0.0482427746632112,-0.0736428885936876,-0.0109159983396305,0.00312335703966096
0.0864200055142412,-0.0608998693080865,-0.00879629205515808,0.00515037979068677
0.0795296485656735,-0.0281316473655305,0.0171967598910277,0.00508214098078417
0.0472927027243698,-0.0132510960287873,0.0295479515254147,0.00301763918679824
-0.0102752295293124,-0.0170401870551219,0.0144974883427379,0.000796930027656712
-0.0704510919513632,0.019301649517685,0.00848607353754787,5.92817180576459e-05
-0.105111291600034,0.107229479611023,0.0226961637369534,-0.00108788273082857
-0.123248290960104,0.186369026285574,0.0438005676926614,-0.00515015002296186
-0.149517339642769,0.206408262689754,0.068512779510547,-0.0103856699558107
-0.166719666726548,0.165064741884872,0.0731239962675197,-0.0125698929593265
-0.117536855411416,0.0929358329943105,0.0215978643808627,-0.00983598606410586
-0.00663923034282676,0.0356271762322058,-0.0415649177402447,-0.00365643239775493
0.0838361783625628,-0.0370540746772502,-0.054303048795077,0.00338543158709377
0.099957397407215,-0.147059426482384,-0.0343831183844653,0.00942463050871568
0.0681339123563117,-0.173764552284795,-0.0176137765156509,0.0140664590845672
0.059765688138378,-0.146030041164507,-0.0452488304859669,0.0172072108669215
0.114646914501811,-0.20611236264772,-0.107161428796556,0.017193391814348
0.182919623166817,-0.240224941978285,-0.112543647357523,0.0123799374248421
0.182780483398648,-0.127522461763398,-0.0418478240827366,0.00331083910980644
0.123704541802456,0.00795899215901169,0.029382877323064,-0.00648986733717944
0.0596128923978152,0.0410822794025045,0.0606665434505299,-0.0115686111095401
-0.0082943957907661,0.0232871442177262,0.0643276200413709,-0.00941615806498847
-0.0814507932912832,0.057586726795801,0.0479160590566741,-0.00324088153721315
-0.154879272709968,0.139358158935388,0.0261049376015932,0.00174696863556081
-0.195714350399159,0.189419978810492,0.0197485642341726,0.00277281081510649
-0.17808033662648,0.192349286368214,0.0291077359656315,-0.000305701623021681
-0.165824331075409,0.190695098964781,0.0528733589502195,-0.00548836880846083
-0.18482035946051,0.172404272760653,0.0771433893884384,-0.00934917568701967
-0.183678668894417,0.0934435181416599,0.0629919079983835,-0.00957050636161221
-0.13394588310723,-0.0351465210867856,0.00372688534200295,-0.00560213886265828
-0.0404111106622687,-0.130923438163389,-0.0539261534209447,0.00113190574328505
0.0770666254887988,-0.147589166854708,-0.0920358049608251,0.00722769938792653
0.189146046872175,-0.156795069185455,-0.128959490438522,0.0100248744936391
0.237862796165638,-0.183402556906647,-0.129499423296991,0.00926835451495927
0.187789523823224,-0.141699474321196,-0.0657413128336367,0.00563816907871203
0.0948487707165852,-0.0495014537460316,0.000344156261856549,0.00044028657558459
0.0300519096358064,0.00645597337185067,0.0181178201325891,-0.00285094637626884
0.00902214240229204,0.0287767717117448,0.0128780350516712,-0.000821316259135268
0.0132880823819836,0.0303461979368999,0.0233478052314787,0.00460885150621228
0.0179127641432657,0.0118724753084675,0.0488456550662376,0.00748205780415053
0.0135526011018696,-0.00901489233633858,0.0568905927338324,0.00554187078771124
-0.012127024081814,-0.00447714853070533,0.0372648965114206,0.00184739751730987
-0.060910381304882,0.0389462504548428,0.0143632098035747,-0.000855456411560675
-0.117751722054406,0.0420981559879639,-0.00296980062787543,-0.00285326684364119
-0.196375155335711,-0.0267566713755836,-0.0191309417743024,-0.00418499499799682
-0.249622294402921,-0.0296323856820292,-0.0218724842277525,-0.00305914205191578
-0.198148919746258,0.0354930622202989,-0.00517604861465577,9.00481396094292e-05
-0.0871131702384132,0.0278968288648544,0.0337809300528184,0.00212524932205497
0.00813397425594103,-0.00810404578284545,0.100389471410918,0.00166695508168319
0.0945544503249408,0.0167739332808825,0.154701456843026,-0.000312151501455094
0.180848299657655,0.0631700454803091,0.152237678109528,-0.00304559367773432
0.226437766850042,0.105266969069416,0.122592370310167,-0.005769665567616
0.215364108342656,0.140185243993477,0.091083525038821,-0.00711000940344019
0.182287378004534,0.145450766985475,0.0430822025172994,-0.00685342247789883
0.155657322067919,0.134096071733047,0.0031146723779773,-0.00561233985337289
0.140042408837588,0.0979647983085593,-0.0211928843289762,-0.0035760257032726
0.125603313709573,0.0149330831280779,-0.0823024875646725,-0.00117331049630712
0.0965357253350515,-0.0851554908406596,-0.164918432699982,0.00151887315384801
0.0633218799702932,-0.18620178611196,-0.17328754040554,0.00506809887660233
0.0522185776275381,-0.263379405423617,-0.100984696913229,0.008519543636689
0.0268217680558754,-0.245236051101384,-0.0465092911952968,0.0101639707520539
-0.0675281928953639,-0.119189812248822,-0.0444414167184908,0.0106401623859633
-0.186804964368026,0.0426887873697326,-0.0474728617316887,0.0103222132740796
-0.257587157652296,0.150763236677273,-0.0384740841632077,0.0067970386467813
-0.251370305453378,0.164114325670686,-0.0209528172955585,-0.000117351832993396
-0.186284215279872,0.122346420971653,0.0149488776425744,-0.00667106748666159
-0.112560946950363,0.0892733209380592,0.0466141766927658,-0.0104810506543723
-0.0378974430512486,0.0811319204615478,0.0339740922440975,-0.0118143002661985
0.017551159211956,0.0713683054483701,0.00163744309867747,-0.0103807337653536
0.010448770489647,0.0427170160773773,-0.00282340319366151,-0.00597722480039284
-0.00576932220159625,0.00408177979600489,-0.00220840071344876,-0.000740142034203979
0.0585003851812836,-0.0371236899139368,-0.0262459100675019,0.00216924217360779
0.182667943322707,-0.0751489790394312,-0.0444819057479163,0.00109969226831195
0.259084392602285,-0.0768211297231872,-0.0238622643638546,-0.00212232359337639
0.231110416494753,-0.0229887145258107,0.0243261549217881,-0.00367586595731948
0.133535152965093,0.0478627831540545,0.0676541765919619,-0.0023200955025164
0.0171234259596705,0.0851652062354117,0.0898698605438139,-0.000125446524621764
-0.0853616867986836,0.0773585842649046,0.0850476157431423,0.00110446786078417
-0.134249093323156,0.0399066173355167,0.0410172617005687,0.0018794078002293
-0.11683804079838,-0.0272324253245237,-0.0250534474026005,0.00346519657797495
-0.0936562780105956,-0.103115822665439,-0.0805069868463567,0.00559504792461865
-0.0918901750587656,-0.128797982228502,-0.145338436632286,0.00635126472446311
-0.0619697994147961,-0.14028252593072,-0.234764665565461,0.00502449919727727
-0.00614747999793942,-0.167388474634153,-0.26803977748409,0.00418879734790453
0.0492739215714203,-0.13170238643635,-0.193093793268534,0.00510103817306573
0.102723971476052,-0.0551303994825875,-0.0979847996725397,0.00441006290220177
0.0963207483846671,-0.00559102632097008,-0.0507774838652241,0.000454336023346864
0.0076861476861783,0.0363689031320766,-0.0149602788336875,-0.00338390517606721
-0.0728487998371161,0.0900366202526996,0.0275471941704332,-0.00448829798293823
-0.0918936092761686,0.126484311519686,0.0462822201133408,-0.0036416346096657
-0.0634206565612991,0.123928861873188,0.0306083720266247,-0.00172051937953403
-0.0224454373112299,0.0982860542807287,0.0105968842073777,0.000391402908633377
-0.0224038309130829,0.0408930371623419,0.0183538923518501,0.000357252776616485
-0.0551293749784082,-0.0546322993270295,0.0260791298699711,-0.00251142567375511
-0.0698621334266323,-0.120907667797235,-0.0065464171291353,-0.00556016182936427
-0.0619008473887169,-0.111762130137964,-0.0509941808754527,-0.00646705428603903
-0.0466911483112474,-0.0883051277686147,-0.0695915436347842,-0.00516987916816428
-0.0289157788586162,-0.0830198505093313,-0.0770356383574256,-0.00213389870882557
-0.0324454969702538,-0.0707839897447249,-0.095632392447719,0.0020011085556318
-0.060049005126659,-0.0693049376708038,-0.104263066378189,0.00581531034262281
-0.0672382225432219,-0.0675423812090638,-0.0753636922842645,0.00777308758490266
-0.0516213114950254,-0.0398858310543858,-0.0317294370372886,0.00676349411571948
-0.0344613853650787,-0.0128448734426579,-0.00625010743138288,0.0031644370560495
0.0171359888728483,0.0122229203172908,0.0069621659243954,-0.000682426385997605
0.110640243021991,0.0332238119074063,0.0209296343496191,-0.00296997878895498
0.173563198134501,0.0233859014140508,0.0296068098214119,-0.00336945498244944
0.175192481376487,0.0132561031455848,0.0266513816818814,-0.00167467136712689
0.150837434544377,0.0355102912152658,0.0183483647211764,0.00108893012638775
0.120246427796628,0.0521579266443377,0.0106846239935755,0.00219332055334739
0.0889379405897864,0.0366734566519659,0.0173164580081059,0.000231289280679998
0.0400311868634473,0.0112787257354796,0.039642881660423,-0.00301925876145684
-0.0463061982675089,-0.0139300120407198,0.0308477166307021,-0.0044203733585235
-0.133558904789704,-0.0262511732997835,-0.0255707462635029,-0.00260575361757167
-0.1644396921592,-0.0203095052653672,-0.0676104740287842,0.000731351043934447
-0.136698811305804,-0.0143416744843456,-0.045580881667587,0.00258876211814283
-0.0997388819316165,0.0123734295623107,0.0358266417028576,0.00202093507975486
-0.0571991761689129,0.0705265884230516,0.11820179202725,0.000734031066249409
0.0366900276691325,0.121771779211115,0.131086852010926,0.000461451250137003
0.12899873549777,0.152199526282985,0.0882429155462875,0.000825597622574223
0.115935115956517,0.120058100005981,0.0372478172294029,0.000225247174628866
0.0247220110049308,0.00190787105686457,-0.0119961919274125,-0.00113492860142635
-0.0263819436909095,-0.0819471875002108,-0.0635155067037259,-0.00180035936999807
0.00849322526460742,-0.0607311394166527,-0.113101822348609,-0.00197439595232691
0.0457973473007991,0.00793907330745764,-0.159991059721343,-0.00303594590725062
0.017399072917753,0.0537609993783172,-0.185015524224256,-0.00474858648970287
-0.025143483213944,0.066538200328411,-0.127427210515204,-0.00474447072812038
-0.0465743966331835,0.117340046955339,0.00331238625498789,-0.00284950177498435
-0.0549060947293979,0.188512311157002,0.10765785545122,-0.00265564707912932
-0.053679893218117,0.186249405378527,0.14272812725679,-0.00529112379154951
-0.0764402674773304,0.117358811058447,0.144516277899271,-0.00695418009977641
-0.131791430803036,-0.00116709649322369,0.13463296583104,-0.00520607233239388
-0.170524848051377,-0.127060438242001,0.103654778495398,-0.00202798016840712
-0.136152183794804,-0.17437308040694,0.0485901302954353,0.000316497483573203
-0.0190433645557435,-0.180300310961626,-0.00493712678163183,0.00219484255745874
0.130800548673806,-0.165754392313099,-0.0228275901926558,0.00468672068762345
0.232893199742443,-0.0868673461188331,-0.0044303605287082,0.00717010477384922
0.208663454767523,0.0315521218296833,0.0218359718223248,0.00843143527641929
0.0758749736844924,0.123333098649158,0.0064312394057402,0.00764919685284052
-0.0230520337667874,0.136681926722066,-0.0677628092521496,0.00442975504605616
-0.0280685669679379,0.0751888291909251,-0.115396799039106,0.00013546218965515
-0.0354153873754297,-0.00185381230530099,-0.0747886491715131,-0.00308857286682544
-0.0722405117780605,-0.0132786873376204,-0.00364602936038627,-0.00416754577953626
-0.0621564078317042,0.0339067541155501,0.0356813279663769,-0.00296834866696782
-0.0328693107041694,0.0528855696304899,0.0475464603800066,-0.000581279440375294
-0.0733051326134155,0.0282877343360749,0.0595533055688712,0.000898823777265123
-0.138138735443103,0.020569437666249,0.071117116050587,1.47879090111225e-05
-0.135331062027076,0.049346778245819,0.0739647466401173,-0.00260187814808648
-0.103014115877982,0.0580651655344559,0.0744122387993847,-0.00458873479654815
-0.108782731845268,0.0380645532464733,0.0609818860635614,-0.00462631551673249
-0.12686996750965,0.0278742010246466,0.0127322297297692,-0.00341354250733983
-0.109551850693648,0.0298022526254954,-0.064732255462797,-0.00134546478874582
-0.0603201989226732,0.0123601753950847,-0.121152797469192,0.00155727911713228
-0.00550293369211377,-0.0514891106673759,-0.113240817647132,0.00426687725570582
0.0435319356616093,-0.0670922669811766,-0.0797121548519887,0.00522666277115559
0.0750611492846966,0.0251131911207736,-0.0672717087603671,0.00324068784735379
0.105852025987268,0.0832783173640084,-0.0687599589891417,-0.00051113555287336
0.157057543422119,0.0151409889527818,-0.0742849898445377,-0.00260245565724387
0.208021172623564,-0.100120565242299,-0.0586358365255272,-0.000966436460339248
0.204084133347599,-0.157443246137686,-0.00168562436279944,0.00290540898038904
0.115769442863945,-0.117756421953279,0.0599914509612024,0.00544335532404633
-0.0026135231287143,-0.0416551444435991,0.103560746241649,0.00431112858026377
-0.0949842331738499,0.00515777081861454,0.139359829010369,-0.000226671098184351
-0.154621871500656,0.0496464843376424,0.152707744379399,-0.00526788030094866
-0.19402935148223,0.0977716344473481,0.130680618734557,-0.00705720286903058
-0.202380042932065,0.117322492652884,0.103823524427543,-0.00465889325914967
-0.155911063212275,0.127182020842682,0.0915799081130224,-0.000977011646779885
-0.0677591752763337,0.129064980275842,0.0674031994945498,-2.58817832267354e-05
0.0392982687214875,0.0775375333233418,0.000880208906444552,-0.00279146312007731
0.155366432518867,-0.0244163780907524,-0.122069706474461,-0.00505895155739479
0.243058729345721,-0.105286687219095,-0.235204067264509,-0.00101114804667027
0.249605886946814,-0.14483402640064,-0.236819482755978,0.00825420554353578
0.187170722281727,-0.169913239064652,-0.146996016620894,0.0138900876689902
0.0890314275022137,-0.159780336498331,-0.0665593729412024,0.0107072331888462
-0.0283689031267765,-0.104199991581553,-0.0292534233167032,0.00273192625668891
-0.115312048743943,-0.040581104420652,-0.000651020209336328,-0.00351917136055035
-0.109464321135442,-0.0154897164111623,0.037477950915515,-0.00454983772818068
-0.00732915605609096,-0.0155163748436024,0.0828669818033692,-0.00145330110342151
0.0823939210276288,0.023097757948365,0.116212205542306,0.000664405240822184
0.07291907173555,0.102212489122991,0.111271479468415,-0.00128016135626449
0.00446872222193655,0.135768192974873,0.075336418209285,-0.00429912057550906
-0.0595085113633839,0.0636795824226484,0.0261869181857418,-0.00356120390740844
-0.0737725504591962,-0.0587997304508892,-0.0297233497471668,0.0017068113776841
-0.0611846560055505,-0.102393634958727,-0.0666723072373756,0.00657929321792985
-0.094518002197297,-0.0358732225868858,-0.0674343224919942,0.00579153076266378
-0.122661295364339,0.0342278511851783,-0.0540090494117159,0.00084052635580064
-0.056840676145699,0.0612621245567235,-0.0491119752263441,-0.00296636607159752
0.0310980711647968,0.0680992382262331,-0.0453669535718432,-0.00418716229990422
0.043064427260441,0.0355132141387223,-0.036738581828083,-0.00495383300866768
0.0166446993394302,-0.0469916954149879,-0.0397240516766339,-0.00580731280172986
0.00711110769031703,-0.105750712401567,-0.0402364524630974,-0.0056502996327199
-0.00835929965272289,-0.0959894502261161,-0.011326230134119,-0.00534162849432617
-0.0439590439880091,-0.0598057746667879,0.025869966667596,-0.00545479002876385
-0.0567528362014405,-0.0356269126715005,0.0384657925670775,-0.00321098246132396
-0.0109003188365832,-0.0324817539942922,0.033838996099533,0.00286668443524369
0.0621736411685878,-0.035661009928385,0.0301175383255512,0.00862247859223805
0.101660799231471,-0.0485572443554231,0.00836007896132712,0.00960400204967367
0.11791272518645,-0.0830148118220981,-0.0366880414465493,0.00714403139483022
0.168285665234855,-0.114328538874278,-0.0606042116395674,0.0045901026429024
0.209567312545986,-0.0978396351477476,-0.0434535080941058,0.00288889500341175
0.148230126145161,-0.0516376723200209,-0.0118144108868639,0.00227734270754158
0.0164426628932527,-0.0283642832334952,0.0065629369601981,0.0032623047294207
-0.0768630421065061,-0.0149031940679714,0.00744163406634975,0.0058639429779255
-0.0881972713348129,0.0219885206255305,0.00509866451476795,0.00840524583369129
-0.0687917585890093,0.0839662126847707,0.00682280161729282,0.00669112834706009
-0.0893294105676547,0.125185063518206,0.0162756677562652,-0.000349916743923876
-0.134968914442035,0.130842595522176,0.0364581308410372,-0.00755871137860097
-0.127321631563379,0.110096085852923,0.0454384500278168,-0.0109826962857038
-0.0597174679285974,0.0309395930181669,0.0265873435809314,-0.0106858984350782
0.0079622219340986,-0.0997246702944609,-0.00844229474701551,-0.00693165094986408
0.0623151602619375,-0.137533644130494,-0.0458266920533646,-3.06333513620319e-05
0.1164728776156,-0.00162970911621949,-0.0804098260042546,0.00774778639371609
0.127978572160861,0.113294169137708,-0.0909573779519566,0.0118385909298183
0.068784893727138,0.113996478526583,-0.0488121162929282,0.00896918230634253
0.0141567520672088,0.106246045729529,0.0179936930798988,0.00148218639359391
0.017459445914036,0.0837827061277598,0.0535844032092225,-0.00498255613588506
0.0159420131760652,-0.00815627485016424,0.0616022730381798,-0.00685055244818595
-0.0157471220260278,-0.0790726857931766,0.0821121316628665,-0.00441929210810472
-0.0153854963034114,-0.0251767798825988,0.115229126515462,-0.00103988090909636
0.00202509553190816,0.0703871934437057,0.141699455334287,-0.000342178997320202
-0.0202945792168636,0.106192083622097,0.156064255894772,-0.00284654219995224
-0.0845130497518142,0.0920198783852785,0.154681719595422,-0.00604817270053239
-0.16541762111192,0.0504398438312091,0.124267219173136,-0.00738510296099352
-0.20246015903731,0.0046605926610271,0.0644376337884957,-0.00588588057793756
-0.166938638707155,-0.0139023789809889,-0.0311379266462896,-0.00189196175821631
-0.103254645318931,-0.0270838976268501,-0.156565738208954,0.00353047897550525
-0.0302537760444384,-0.0565407373888248,-0.196286643657649,0.00880038304555066
0.0457541140846763,-0.063662931865038,-0.0983780247026293,0.0117699404019913
0.103119369524385,-0.0656645953659156,-0.0219775771985151,0.0118558364902693
0.176257210098372,-0.10112382088162,-0.0442415291897269,0.0111931309004689
0.225175178149312,-0.0694866624575765,-0.0431436574189155,0.00989065993333052
0.134243507154254,0.0693000561627065,-0.00611203953293507,0.00496784312654483
-0.042963841384174,0.149760864389857,-0.0230221574112297,-0.00241865624721642
-0.153055426469015,0.105381487030705,-0.0634225268283606,-0.00636462106360891
-0.132256017507264,0.0553029427777989,-0.0563345101437789,-0.00521811649730176
-0.0122726408720116,0.0391884624024667,-0.0242684693942348,-0.00380247707216925
0.131103899983044,-0.0227663805620893,-0.0188205156081948,-0.00510175140604502
0.210395234155858,-0.127556693872804,-0.00415259644133158,-0.00644639114041105
0.16565009418685,-0.163540026642921,0.0456255662707273,-0.00538176777196828
0.0553231765792151,-0.10447834546326,0.0724548744612809,-0.00353855479789817
-0.00734507212415225,-0.042867845938767,0.0485115290614411,-0.00346655409379574
-0.0299054909228035,-0.0114378725256995,0.00745851665038345,-0.00493795804486888
-0.0711950985863004,0.0141293250327757,-0.0136427394425953,-0.0046869669126078
-0.105908285008414,0.0418702954852183,-0.000505955616966333,-0.000557944005248895
-0.104207657294035,0.0873507550798568,0.0179587052398573,0.00421105721579623
-0.0890689821123049,0.150646065000534,0.00371630501369161,0.00563130424376074
-0.0647745517625449,0.171196587624099,-0.0175344819576373,0.00404289924424948
-0.00331390755064788,0.0909774718474211,-0.0159240189368925,0.00119405523204624
0.0799001765726332,-0.0248360755752625,-0.00983467732053554,-0.00183569779835415
0.121048938577653,-0.0719150101042156,-0.0183407186306311,-0.00407341454203278
0.107142124641068,-0.0879940313083176,-0.0476011685167104,-0.00448741102770437
0.0679527987639415,-0.140543964220101,-0.0693887592649514,-0.00240237386902166
-0.00415840297991688,-0.141976392334165,-0.0447287749854592,0.00139115760359968
-0.0666834585559428,-0.0774523465856217,-0.00074293966118673,0.00454730530600112
-0.0414678976853585,-0.0540267106860297,0.0157619224707385,0.00527064145598098
0.00642854774580486,-0.0482623429702232,0.0190580686799574,0.00449832758327079
-0.00228924876324806,0.00352285710371458,0.0369070340819416,0.00414227513262742
-0.0245755640995693,0.109856101577025,0.0586697186188489,0.00398938992031297
-0.0307631931021186,0.235492048466182,0.0779348005914217,0.00243778809066869
-0.0199506522799985,0.296908037979682,0.0935517288113198,-0.000884697691632861
0.00719179540142123,0.261038465233814,0.0851629452045125,-0.00432753926145158
0.0237934955716512,0.157557605163669,0.039853394165399,-0.00521390111714995
0.0466937273967123,0.0414122304928447,-0.0328721847707327,-0.00215271914300557
0.103162932046488,-0.070479715292898,-0.110576992632427,0.00283195644899505
0.147923323907035,-0.219150865555315,-0.151864424630599,0.0064747410827404
0.136585265250058,-0.365953133398178,-0.118429146142096,0.00644486878972613
0.0906913709214751,-0.359190228695064,-0.0464726139493834,0.00173804590597458
0.0603149822767531,-0.189034023854945,-0.0023030090542395,-0.0052654867192159
0.0546971128753201,-0.0531928948363317,0.014485683795273,-0.00963411474656019
0.0442956237212506,0.006291046952909,0.0442056384550981,-0.0084826524260766
0.0294715229085263,0.0867100438780618,0.0817900245235399,-0.00403098445958846
0.0490638435509812,0.145122247394189,0.0740432246452564,-0.000635804132262724
0.0910997115102889,0.130003714472679,0.0326923997686904,0.000425199081421882
0.0895895659977053,0.0961372537256881,0.0295031114060007,0.00115215200335882
0.0327026342798984,0.068944375822154,0.0630032048750327,0.00232845675708917
-0.0364662656447285,0.0359442907173184,0.0838624976149842,0.00195753116415357
-0.0741338366567631,0.0343699027637293,0.0760438538207994,-0.00056669311109652
-0.0616797067871716,0.0565774862277285,0.036507395973487,-0.00324255217484597
-0.0285720427283586,0.0321631520828695,-0.0150515181918752,-0.00417482895172728
-0.0307614994362,-0.0748585399621031,-0.0562343167788711,-0.00205550261672331
-0.056747702734584,-0.188191175106584,-0.0793627608710741,0.00432698791995167
-0.0496067140101085,-0.14664296047138,-0.0490600014203119,0.0120985175100973
-0.0277388189104873,-0.0141879192256222,0.0233962323891742,0.0130363246426138
-0.0368133400009527,0.00242310488635614,0.0607387871224298,0.00466162328203009
-0.0938668469908292,-0.0315682282937072,0.0377065896551256,-0.00464931564996839
-0.152253015533709,0.012204447618105,-0.0225737193209328,-0.00760274125858145
-0.0930721006341658,0.0451600191928989,-0.112411738813657,-0.00575400254487751
0.0604571488238566,0.0274080337584536,-0.175564567468097,-0.00359317934906803
0.137227444328922,-0.0182047821004402,-0.140775779050329,-0.00225288466825045
0.0838257216726176,-0.112967093642331,-0.0552484956621627,-0.000324465113957225
0.0301459753001151,-0.17356991518984,-0.0103572006857548,0.00185903208540883
0.0835186694347202,-0.149778510761143,-0.0270831700301115,0.00206542209492724
0.142199762326529,-0.0937521463737648,-0.0491993842520681,0.000502603851636487
0.0818704546723789,-0.028225606121533,-0.0252437149245742,-0.0011681735496919
-0.0264365288529984,0.0473910176487612,0.0095551415837091,-0.00281917042070176
-0.0745174124831001,0.122337147844567,0.0118432206133723,-0.00452248900885562
-0.0685250766713115,0.140019929850549,-0.0144092867118624,-0.00555544189070286
-0.0352619635862042,0.065344184321545,-0.0391639058829574,-0.00430787040390741
0.0150937036602004,-0.00680574153937305,-0.0104106323770614,-0.000477986617665523
0.0642148815604758,-0.0155085158256742,0.0540203202519097,0.00306210672170555
0.112350442072391,-0.0711988682525555,0.0581441867565008,0.00443156138786612
0.115047976726277,-0.140307598395803,0.00662119369530179,0.00498808540158549
0.0256326904706227,-0.102699908371159,-0.0316538481895016,0.00537715734159498
-0.0785253793384302,-0.0431979665578662,-0.0534004660725402,0.00465763081489228
-0.12103608015364,0.00612051768072519,-0.0454657855161124,0.00262260354365515
-0.110757870739248,0.0486276876608238,-0.00788724974050109,-0.000893611414567244
-0.0493036208702051,0.00780392284032864,0.000800775674447834,-0.00547871563478142
0.0340459400514688,-0.0570412281309804,-0.0269608619363677,-0.00916213787007894
0.0410567279022042,-0.0426008622772925,-0.0404137898177434,-0.0104930635650426
-0.0662806303585502,0.0221996488204383,-0.0241584369584511,-0.00888548179706669
-0.188740095568829,0.0754085250969486,0.00905952092503534,-0.00423898765699778
-0.170725122480458,0.128094624644015,0.0385470612087364,0.00158636533937422
-0.00584268110982444,0.187193039502964,0.0442850969719585,0.00449283590674025
0.12433943518557,0.183457682285481,0.0359962873150112,0.00198884167782453
0.131066526656169,0.0714024830471807,0.0301259467729208,-0.00271233269323981
0.0681651202108638,-0.0898957799545493,0.0228381926116498,-0.00347618122482626
-0.0145934219267834,-0.182766972303769,0.00784170642539098,0.00217837319560917
-0.0691912685582868,-0.107945640240356,0.0145080416675506,0.0105571645944847
-0.0795864970307757,0.0722999997599225,0.0515907288598646,0.0145297710931933
-0.0660873579418749,0.157347538053351,0.0737030078221921,0.010061247677988
-0.0288266401541706,0.0938510144286557,0.0638550250907675,0.00081447425949027
-0.00104412956436611,0.0157425685802105,0.055198550115323,-0.00613595785068846
-0.045269106919875,0.012217442841675,0.0668345702400275,-0.00734509617391892
-0.113694828456035,0.0174064468576246,0.0788455460955965,-0.00418397378967136
-0.120559978824412,-0.0154970270191131,0.0786125403946052,-0.000675101802640594
-0.105245179320347,-0.0147222308493174,0.0544735196843528,-0.000270158486024449
-0.110403483289272,0.0206700225227212,-0.0344892407715548,-0.00297089056348362
-0.0956201971159279,0.0115680136010446,-0.150724980307741,-0.00539563446370647
-0.0445647026667326,-0.0134438668917477,-0.170638540197788,-0.00399012854461821
0.0184997402411097,0.021091223298733,-0.0969938710707037,0.000589349917445039
0.0656632760581796,0.0797191702280519,-0.024924205795285,0.00406002470156017
0.0744119160285905,0.08509290599571,0.033671870927063,0.00397072500809844
0.0711520565595673,0.00478627512890813,0.0867574582889454,0.00237411758982614
0.0897647299329444,-0.110116702943579,0.110022005313768,0.00268409216084386
0.0861638793431888,-0.132197056534138,0.0682701263701289,0.00475091118605939
