0.0593364748667455,-0.0163423002967385,-0.00710005807764698,-0.00317262454038126
0.0530776754866517,-0.023474844893994,-0.00897274082699367,-0.00259237680988364
0.044661339934244,-0.0317579189143545,-0.00798280126274984,-0.00226370600517258
0.0353336262607285,-0.0349757184229491,-0.00377124522057665,-0.00146104025492272
0.0246847508366882,-0.0321227608160809,-0.00130471847885735,-0.000207832759994097
0.0128824104652827,-0.0266740134388002,-0.000410741551829703,0.000889737226653473
0.00124538639654755,-0.0208087748120103,0.00143696431086994,0.00184807574616685
-0.00648785893481991,-0.0192742710167628,0.00199994606252537,0.00262253699889557
-0.00951506442106412,-0.0212893491045111,0.000478953723152644,0.00251709381587544
-0.012350826947332,-0.0212488046294933,0.00228208869852635,0.00145670124322237
-0.0183254752602244,-0.0188852029470251,0.00984953673575062,0.000231030826912058
-0.0300153843898917,-0.0161304655521744,0.0180273166003138,-0.000425947912052821
-0.041067953074945,-0.0179291656731907,0.0190335911627642,-0.000462560339112448
-0.0401912489601048,-0.021548632157995,0.0128828801837734,-0.000345119634353683
-0.0233185532972571,-0.0063431359106779,0.00930288933187081,-0.000451553310334646
0.00681555719045805,0.0283199267471865,0.0149623172499501,-0.000929447562016932
0.0320788924423453,0.0482787953124283,0.021203072522957,-0.00157730686242792
0.036931553301233,0.0328762526314244,0.0140838985265229,-0.00209392919600361
0.0272318382967553,0.000918251423323607,0.00156251735156958,-0.00228661599703592
0.0190898698265629,-0.0209469422396262,3.68389156018556e-05,-0.00161048742311102
0.0214323253316313,-0.0287231094685268,0.00274718913500591,0.000561096417285292
0.0248556998759177,-0.0282873768906053,-0.00198922365891312,0.00394778740172374
0.0177803434157166,-0.0216722406167165,-0.00771080136968766,0.00689761095486743
0.00402369126706865,-0.014213088402653,-0.00701151578151119,0.00752433994253641
-0.00726183309174157,-0.00907101504540639,-0.00347384562486087,0.00557505590623664
-0.0147986297507103,-0.00391377991086077,-0.000846034923533804,0.00208097570410354
-0.0187501395167989,0.00266040200054645,0.00131563175211944,-0.00166965981460472
-0.0204124982912038,0.00917091540327405,0.00188987132244253,-0.00433311544486894
-0.0203535789291593,0.0144855256837448,0.00434837602321869,-0.00528619246810774
-0.0145156783201194,0.0158320239402081,0.0104667965679405,-0.00447918966428602
-0.00247200563512437,0.00826924825960658,0.00926509047973109,-0.00253242486787077
0.00864877880744737,0.00135530763451555,0.000570697788034599,-0.00127883298413998
0.00901629168675638,0.00784478410490711,-0.00204676829999975,-0.00139234160048982
-0.00201050349174737,0.0155096952281953,0.000774747136910286,-0.00164561094854786
-0.011401611931581,0.0056148573955168,0.00040068845619722,-0.000993077136362003
-0.0107396713461918,-0.01877644162111,-0.00446685406740555,0.000559070674073789
-0.00380325387129523,-0.0337297983831958,-0.00663036049754515,0.0017755635681695
0.00362388424991838,-0.0253218588916557,-0.00143116261027457,0.00194646760076181
0.00644304434447082,-0.00812564504776567,0.00260384189504153,0.00184541095223775
0.00554410751863951,0.0017265870399541,-0.000665903317801667,0.00190428297947462
0.00345430984098223,0.00802255367567423,-0.00577697316641271,0.00167832717805312
-0.000565166833575203,0.016555674942144,-0.00366372821226621,0.00124502155378486
-0.00851203615817978,0.0188498986791693,-0.000969717011569106,0.00105409947651863
-0.0210920671468933,0.014735214238224,-0.00828170127397789,1.00649874567065e-05
-0.0299175975941226,0.0128755149239769,-0.0135496303462439,-0.00270386332199531
-0.0273826729426975,0.00950177535404262,-0.00808090939006898,-0.00473200962718531
-0.0206982942783242,-0.00224217706101762,-0.00626389745180467,-0.00331261252828986
-0.017893868657714,-0.0162647633438237,-0.0124980035653611,0.000132027534439274
-0.0159597509676339,-0.0207945736163519,-0.0104245764198454,0.00173523333698326
-0.0112060606065358,-0.0116764444916456,0.00228883118314917,0.000638481173179656
-0.00671547051459051,-0.00104342974082637,0.00963555264177091,-0.000947182489683098
0.000412029942809276,-0.00738157256902865,0.00555113037960183,-0.00133512727030532
0.0125277311546272,-0.0252854346375463,-0.00199581809819463,-0.000771597739125671
0.0233054926797637,-0.0319902676529376,-0.00719081561165625,-0.000258783687066425
0.0309641735544059,-0.0231724223192731,-0.00882917211937059,-0.000186778849126103
0.0349136218381966,-0.0151159509590183,-0.00628021807847915,-0.000662208084197641
0.0332824784976806,-0.0191383777204686,-0.00160871070381573,-0.00168668473600424
0.026677400570022,-0.0263278589033642,0.000488341196871325,-0.00264492560378771
0.0206007193030825,-0.0184806777922122,-0.00296381035493888,-0.00279632729743421
0.0196624734039809,3.42161286575084e-05,-0.00761485998613039,-0.00220728934987479
0.0178022555323623,0.00749487164244236,-0.00803121298425257,-0.00154937333379396
0.00911181311108548,-0.000336089365109695,-0.00463466693963538,-0.00110214871397282
-0.00294212228839841,-0.0123777042731937,-0.000390738528252145,-0.00107382856115757
-0.0163425232228733,-0.0183246006067295,0.000374974879542805,-0.00176650437709815
-0.0265561832436837,-0.0151564649893654,-0.00195960029218892,-0.00269768186583288
-0.0294682151073723,-0.0119743289067894,-0.00273260598715993,-0.00286972917883716
-0.0305560575685623,-0.0100296376008375,-0.00127684711876827,-0.00182456820928381
-0.0330926127867251,0.00416029855612748,-0.00163460899553716,0.000142589940599027
-0.0304283540726932,0.0297668963926188,-0.00449048063482761,0.00219575246298815
-0.0178192537883768,0.0467366963970504,-0.00650735762063968,0.00367762466564629
-0.00225347097044813,0.037677576509835,-0.00380602086211586,0.00472315904165718
0.00774659186219868,0.00514902426626372,0.00781554843435872,0.00511818431524127
0.0100477878214657,-0.0241683879830359,0.0205318153533546,0.00424508422022516
0.00602474441999765,-0.0311080174987831,0.0198060651909427,0.00254991892238092
-0.00217466430726392,-0.0255778422377525,0.00968024197890661,0.0008074053772197
-0.00843696483834323,-0.0234461946951272,0.00312387579478939,-0.000833989053175149
-0.00512455542290975,-0.0268288566298438,-0.000107417462805256,-0.00208112846361861
0.0050272926600306,-0.0228362267484185,-0.00656476974653857,-0.00261238764563605
0.0119347426248639,-0.00566432071762377,-0.0148408726243794,-0.00244209263876448
0.0133748597217637,0.0103774568203646,-0.0184373757033083,-0.00184690555504894
0.0114996446232895,0.0125182701630699,-0.0181452934464642,-0.00125774740464905
0.00314000578112963,0.00124119707750071,-0.0181887239278597,-0.000906774839343418
-0.00911953204448774,-0.0186786631661675,-0.0173505289192706,-0.000705932551287814
-0.0194941625181617,-0.0393408191094762,-0.0154015484951031,-0.000273941536400997
-0.0310566986863884,-0.04805161841852,-0.0150938320950522,0.00033258952485233
-0.044086304557873,-0.0406032337798333,-0.0134985710913394,0.000523578512697161
-0.0556236124674814,-0.0291606184897002,-0.00888832775891227,0.000201411201556914
-0.0647925915509061,-0.0272743342112969,-0.00382286614723659,-0.000210099424756997
-0.073429876324218,-0.040145372299088,0.00183488364657197,-9.62528379445861e-05
-0.0821835991756397,-0.0518805859385275,0.00784505625571954,0.000887068169050219
-0.0808615172382714,-0.0290107362940229,0.0115966917048347,0.00232684745686123
-0.0630263636051966,0.0218524338527448,0.0110022413837182,0.00366425816049859
-0.0394997657026726,0.0500586622174534,0.00631645826604313,0.00455827558486409
-0.021944489400309,0.042548433477385,0.00151936598177925,0.00452117879987308
-0.010748448502892,0.0346239287216596,0.00376495369672,0.00321161399242668
0.000872955730549255,0.0394212998113205,0.00999828774411068,0.00128366895868885
0.0223895356926506,0.034741270031825,0.00528177222354021,-0.000156483368179212
0.0488306934622814,0.0157675912009307,-0.00834102595156384,-0.00109094539705169
0.0580138373100936,-0.00477661713976255,-0.01532252362944,-0.00226408483705641
0.0448817679501786,-0.0240150877504127,-0.0122653801829691,-0.00341026524318529
0.0260813014623781,-0.0344813558241439,-0.00432665732657599,-0.00336361526245161
0.0141700438191964,-0.0306952011595431,0.00351794040328858,-0.00171883858260576
0.00195772625522081,-0.0202837476301208,0.0103794146100727,0.000631719815638402
-0.0178920041457906,-0.0160198954352726,0.012454659209475,0.00222341063450577
-0.0300368148875702,-0.0272294301366541,0.00414808925067594,0.00197022303362583
-0.028278365581679,-0.0463460724404706,-0.00448892988129285,-0.000164900676208629
-0.0245149183580938,-0.0580681382285713,-0.00237301831405196,-0.00275678448331467
-0.0233510889858266,-0.0607065062547097,0.000953391544958925,-0.00386633738280926
-0.0229557446709043,-0.058825358434788,-0.00180662220639259,-0.00287063380693822
-0.0232380315143087,-0.0460302118040409,-0.00179792857941283,-0.00061472024074132
-0.0259435085425656,-0.0168897648652068,0.00365742150606025,0.00171054297820691
-0.0294389590712099,0.0208170580452318,0.0100436471832976,0.00335147022233402
-0.0261730546195017,0.0536889341135714,0.0166217831696131,0.00418178474645021
-0.0134329636028991,0.073848204421313,0.0214924754789351,0.004392091658079
0.00186034196032436,0.0792478282076673,0.0222473448694292,0.00422587331604441
0.0121156038795817,0.0674039190826529,0.0195790263744929,0.00367511666191564
0.0177952154457901,0.047913727733602,0.0156126520165498,0.00222759231593588
0.0253973755018018,0.0360511691756902,0.0121477977678718,-9.95434177112689e-05
0.0330834925001072,0.031929081745421,0.0112278050926511,-0.00198022937902694
0.0315174937546205,0.0298188629414424,0.0114214566836299,-0.00222857073021839
0.0230600817007981,0.0336967323387716,0.0111012288452139,-0.00115521246558509
0.0174481566786895,0.0414508396418617,0.0110804554369091,0.000222976325199274
0.0151697516666968,0.0402106492144376,0.00768159878646858,0.00103354560032034
0.0148046490085508,0.0305018231458796,-0.000817373586771791,0.000599085914488278
0.0195944828398516,0.0178626539931643,-0.0088834458567361,-0.00106459109231275
0.034288373809147,0.00651007341585676,-0.0142837117943386,-0.00329673045429249
0.0544889441074215,0.00649810025334293,-0.0179368828354954,-0.00515770819929031
0.0618796914604289,0.017540506166843,-0.0148959257501877,-0.00557204664380137
0.0527688496317306,0.0238994619012347,-0.00819431786527309,-0.0041268322949243
0.0481266572719627,0.0167288343073118,-0.00806086289647717,-0.00167987434589038
0.0566666530873007,0.0079754678939461,-0.00956141042983921,0.000318130294215792
0.0646267994122088,0.00720746386667508,-0.00542952870275867,0.00136263732136788
0.0604685268263177,0.00670112876921556,-0.00607780951772854,0.00198861391826074
0.0405557340915978,0.00278127089788111,-0.0180059753484573,0.00220213914821189
0.0150458168461585,0.0013143163892192,-0.025262444178156,0.00168676641133894
-0.000400861636298669,0.00992640980364579,-0.0163921159349583,0.00107802252341739
-0.0046001865379673,0.0237891368917022,0.00021931176335243,0.00129082875087137
-0.00823745465949452,0.0142594409365339,0.0152882434173457,0.00244208531030269
-0.024582339542001,-0.0191823810046791,0.0214985098662543,0.00382586601293442
-0.0470201213280887,-0.0315601545048211,0.015423859142219,0.00422900780221779
-0.0495930203462245,-0.00366068792882339,0.00460059494673813,0.00286357469371614
-0.0223689240751802,0.0381990518796182,-0.0049605535673906,0.000329974467952142
0.013720256961853,0.0670507547257782,-0.00807926816319622,-0.00209148081473281
0.0289922437695117,0.0864861511712814,-0.002061134709353,-0.00363802929482329
0.0212676495808596,0.0983862058216,0.0019205818976866,-0.00406356459688413
0.021350650412352,0.0784927977144864,-0.0046117890324076,-0.00369408516955167
0.0466146037942257,0.0318440915520454,-0.0128184302949049,-0.00315107415305746
0.0722128589870019,-0.00702591433061206,-0.00900871604299503,-0.00212672980389646
0.0692409909522498,-0.0376154003397242,0.00145614145569274,-0.000140203467837918
0.0419166400233792,-0.0696369199227422,0.000944975883868032,0.00151268763016289
0.0149831623927982,-0.0786348959518609,-0.00761584589043705,0.00114379489527263
-0.00194457638064302,-0.0513984689509908,-0.00813581894878148,-0.000226325996491797
-0.0132498708905644,-0.0162936419032089,0.00606650896947539,-0.000163467253684757
-0.0208558514603459,0.00170337472479685,0.0261436478395882,0.00163317753888461
-0.0287218081390627,0.0119593387160156,0.0348887772036793,0.003747678904912
-0.037204663906073,0.0296572006277856,0.0257858964476047,0.0049702215778825
-0.0428597371259897,0.0479221079636372,0.0083982278406082,0.0045016326702818
-0.0427627295836707,0.0505527024110007,-0.0029451874318134,0.00217784262715384
-0.0331581068065107,0.0367939344435804,-0.00400258868387944,-0.00086077977910909
-0.016568931847058,0.0190773528058106,-0.00100180452488131,-0.0028522333084036
-0.00299299953711044,0.00449974818115714,0.000250835081543648,-0.00312964579968256
0.00141727151518214,-0.00159997715303268,0.00320602163510971,-0.00251601401820403
0.000670684027549058,6.23353020838373e-05,0.00969291760094152,-0.00189456204968724
0.000998152399775989,-0.00181078843587182,0.0121105579821711,-0.00119313991768139
0.000739541616349589,-0.0087404843669249,0.00988616532160264,-0.000316298013688898
-0.00270088936312433,-0.0114896222037768,0.0118302751775639,0.000269860416732123
-0.00857739000526861,-0.0082405284753271,0.0197212485662869,0.000748173204711152
-0.0136001076272579,-0.00348066804094853,0.0270652129306462,0.00210663034614948
-0.0148815810550333,0.000217655744695943,0.0285249375291022,0.00450134410666134
-0.0162309955929209,0.00199862224895405,0.0259720307328052,0.00669470720868152
-0.0190681065945869,0.000887474583822247,0.0265595711443965,0.00744896644232943
-0.0201684145557748,0.000380788817876159,0.0292847613484371,0.0066312724504897
-0.0174118987198261,0.00936025221902767,0.0290034156883832,0.00450048081892506
-0.0093997977395711,0.0263149021804468,0.0267360315941035,0.00144703754104908
-0.000704079579845038,0.035714331744134,0.01761217276324,-0.00169817762986227
0.00172438822840489,0.0357033663671603,0.00100854405832609,-0.0046103765222099
4.56216882644689e-05,0.0403641802882237,-0.0069662419579456,-0.00744662017318212
0.000614887451669745,0.0466303639329787,-0.00472945619839712,-0.00946884241335815
0.00784201460078367,0.0419957291879805,-0.00360486235531754,-0.00959104276925945
0.0207472053882659,0.0275320661408185,-0.00388311981406958,-0.00739470735039045
0.0302087624146582,0.0115036474138252,-0.00420295955107328,-0.00286190033324538
0.0277816483280786,-0.000133025231131449,-0.00359434955764121,0.00247056016303964
0.0144133502328676,-0.00913998502931275,-0.000363365662497971,0.0055877147668226
-0.00176150200813785,-0.0243475915754608,0.00210817110146832,0.00499904013379749
-0.012181948656891,-0.0475142990574992,0.00340671541338695,0.00199137797902472
-0.0139953732003148,-0.0652959989054559,0.00591652868688724,-0.000805735502143703
-0.0138935554362654,-0.0647306763416192,0.00516571321890864,-0.00171576619126539
-0.0204657612562633,-0.0547563375554051,0.00057878372021446,-0.000925888268054095
-0.0345141415991226,-0.0485913387345846,8.29907937053231e-06,0.000506713982218561
-0.0483483349750814,-0.0332834311802922,0.00290322802417917,0.00180734448244517
-0.0449599168226888,0.00988985277227483,0.00351585398400473,0.00265189612146955
-0.0170454786181973,0.0613514829513734,-0.000499017125826825,0.00292088136611873
0.0207285632905283,0.0740320216193096,-0.00805736563980192,0.0027918246646757
0.0511491287161728,0.0386637617305917,-0.0143397383919874,0.00206139631815518
0.0672484914757418,-0.00444019136502657,-0.016937223793421,0.000266267355652011
0.0666084472736941,-0.0237580566674964,-0.0172486887607799,-0.00202105346802087
0.0497682229400243,-0.0206076076815639,-0.0184044844873069,-0.00370533180808472
0.0263472037192178,-0.00740073374221862,-0.0204808973128438,-0.00453906558873786
0.00836914191064987,0.00436829705111494,-0.020183613252593,-0.00475992383342142
-9.54693970442776e-05,0.0118094048378294,-0.0168504369111389,-0.00437808190183925
-0.00303600738166976,0.0120013327901626,-0.01239802415804,-0.00349498452389655
-0.00214602734148685,-0.000744275544563151,-0.00929495694464721,-0.0025576013696539
0.00281909749590841,-0.0170597070394491,-0.00883831039548144,-0.00200421240334085
0.00752099848946513,-0.0264713084078673,-0.0089147285412537,-0.00180798126755276
0.00626950661833007,-0.0307598637571722,-0.00804730964012274,-0.0015227864290603
0.000531066507812429,-0.0322608791554354,-0.00776196243551661,-0.000595894063371855
-0.0025276247559503,-0.0363323710172914,-0.0082959141399585,0.000789046913568818
-0.00242529010619217,-0.0463477148455066,-0.00822329477838909,0.0017950349169071
-0.00430178485651259,-0.0536594437081632,-0.00702282966965089,0.00233114733909906
-0.00569105693399136,-0.0573409515126691,-0.00470088376587514,0.00277209439253063
0.00239016598952991,-0.061407206828935,-0.00376744137807094,0.00324855186023901
0.0165124988500562,-0.059543348378693,-0.00565947518510334,0.00395929442858156
0.0233684764841521,-0.0492764915414994,-0.00859754236502483,0.00469397347999652
0.019086096480784,-0.0328982284339869,-0.0118648727915117,0.00460833008786168
0.0103689655840593,-0.0123749590196696,-0.0137411646589264,0.00363876154895374
0.00459981336361808,0.00581487301733198,-0.013489251748166,0.00274933988416266
0.00521741967428681,0.0144862826406187,-0.012253282731534,0.00246800366019628
0.0104777954693521,0.0127588268606648,-0.00939562116054691,0.00231844041793759
0.0128014801751759,0.0124197562912086,-0.0067845886783506,0.0014546220799546
0.00762458013645247,0.0259163303023558,-0.00689892990711568,-0.000429509327825465
-0.00626239976525451,0.0430647145570927,-0.00646422527286125,-0.00310676194847484
-0.024292594076753,0.0495469081802117,-0.00340254878232718,-0.00588936967974929
-0.0266748124510675,0.0501184645731142,0.00196018537178738,-0.00755860107918164
-0.00710652660514879,0.0466725546719814,0.00840706177954859,-0.00719469239194863
0.0140058779498001,0.0280140444609336,0.00971720330030128,-0.00505213197907976
0.024761912204103,-0.00535362014823479,0.00104704143931132,-0.00288746645533644
0.030189202322673,-0.0314592905406591,-0.0132789473100506,-0.00239628904409167
0.0295659918828269,-0.0355920227399327,-0.0239878447944428,-0.00275151929874474
0.0242760590755598,-0.0270309495537173,-0.0210500289504074,-0.00116566822329301
0.0210104949956828,-0.0228426825492525,-0.00548142811085874,0.0043899257642121
0.0133684649806818,-0.0252568894725702,0.00932002508030032,0.0127143000714481
-0.00224535400723205,-0.0167667816722861,0.0152001922864495,0.0186106947999197
-0.0137584973279247,0.0109696814195321,0.0113264573371897,0.0173662197164703
-0.0147963325247519,0.0388748189668902,0.00324518700501005,0.00989635469962581
-0.0125049297060252,0.0449358708709948,-0.000595898235918105,0.000813426854704809
-0.0119844707580928,0.0311551515998761,0.000923828467872548,-0.00605804029913904
-0.0096058180906668,0.0185018351058312,0.00289260067661337,-0.00928289768551406
-0.00525704984459708,0.0153927217163409,0.00344363601104476,-0.0095788979235985
-0.00549947429972936,0.0128671314157928,0.00439474922326293,-0.00866326284745002
-0.00732074507527684,0.00471854339538519,0.00835239727406322,-0.0077359726260203
-0.00309936588532769,-0.00569632117543679,0.0161719643335298,-0.00670854588525327
0.000614656965547196,-0.00319791527207387,0.0221534429282244,-0.00480805277350973
-0.00634303227985323,0.010921646147606,0.0202246535445196,-0.0019007220434186
-0.016758964434627,0.018858814904122,0.0121764301402987,0.000700110677730069
-0.0191193383401339,0.0229432024543173,0.0016173490824166,0.00183283466959824
-0.0142227302988694,0.0323018731790037,-0.00644196469695813,0.00217854250444662
-0.00679776726105596,0.0448445551570504,-0.00281187950181178,0.0027365569486457
-0.000137039887058418,0.0478917367248265,0.00970754239950123,0.00340786931459954
0.00267531142311196,0.0264436109506845,0.0148693455929145,0.00322037561265021
0.00325335402241759,-0.00115102208048512,0.0103602697489053,0.00111669755687935
0.00581633677419949,-0.00669895604108173,0.00469805359667189,-0.00207372763262373
0.0130976956366885,0.000997137728541361,0.000444291527528081,-0.00373480492225178
0.0216456708908161,0.00741971675022519,-9.93304965175618e-05,-0.00288843323225596
0.0244638094859393,0.01445188765131,0.00452316092038112,-0.000943447486657577
0.0208944443425095,0.024356193222463,0.014016076919851,0.000964044044498018
0.0129844547882939,0.0245316638480478,0.0186316970352192,0.00259884789668391
0.00317172399522508,0.00316775380233795,0.0057716289947503,0.00269857338590457
-0.00511577048492644,-0.0195248938135403,-0.00988615054504075,-0.000233649403577812
-0.00961774271445591,-0.0232838686864989,-0.00787177148108155,-0.00463736043727776
-0.0125292205452499,-0.01773674017316,0.00379713129021801,-0.00717214043674003
-0.0164628264902011,-0.0144120321458865,0.0108558449005033,-0.00652990232807595
-0.0204115239853836,-0.00755852857130281,0.0122085935346122,-0.00362222614645585
-0.0214010929332768,0.00897630015237605,0.0111489476128369,-0.00019157923122002
-0.019264029000014,0.0197639696517792,0.00925677800343409,0.00224610927000355
-0.0162300679793387,0.0115852485772825,0.006570339578288,0.00317927741367691
-0.0124714958270318,-0.00972941347303791,0.00267142616771787,0.00294149650761858
-0.0089619175036909,-0.031293998844167,-0.00142320608094435,0.00201810166845867
-0.00729102477443701,-0.0407058838098445,-0.00487741010665621,0.000768779859871685
-0.00387629184922,-0.0386645166597815,-0.00584571169816779,-0.000297105829565708
0.00532114531356205,-0.0365997117983128,-0.00329028297685335,-0.000750834483478947
0.0153076122659331,-0.0380867668316173,-0.00114051363125881,-0.000521535111137852
0.0142317857035648,-0.0360579876403731,-0.00209484297201081,-4.65844979721281e-05
-0.00155417659678172,-0.0236750831228344,-0.00339375807864526,-0.000299352116450363
-0.0156211984463645,-0.0017906459704092,-0.00225771551335355,-0.00143297956235489
-0.0140227548537677,0.0198964211342747,-0.000345121616347561,-0.00215969308454263
-0.00307949734411361,0.0263653350623064,-0.00158213799428562,-0.00168483758762883
0.00853243276989523,0.013673985950443,-0.00601892069093905,-0.000903417053117572
0.0147276812358707,0.00133855209660028,-0.00941051258318441,-0.000843240347043038
0.0120610758267529,0.00531397394140079,-0.0111584598347244,-0.00135534177081339
0.00801675698889655,0.015775608122312,-0.0120081484364252,-0.00185587312733739
0.0125342279333968,0.0160297159607309,-0.00815653957608723,-0.00186651577633491
0.0219015652166441,0.00431744946932328,0.00123148716283026,-0.000904086649054117
0.0227381373119905,-0.0128133947042391,0.00551989254081589,0.00102588752877539
0.011224146870662,-0.0296433400222831,-0.000793899784856118,0.0027589972890525
-0.00518089431241993,-0.0344794545367223,-0.00730143946190334,0.00290783000486818
-0.019881522458041,-0.0244938771605268,-0.00811267224386767,0.00158693977012911
-0.0367052712327009,-0.0169379706415145,-0.00680942015995227,0.000115684869100934
-0.0576587035336324,-0.018061946143656,-0.00550750594380876,-0.000623880509341368
-0.0723102123630877,-0.0199456630044461,-0.00361885247572996,-0.000683710072539617
-0.0750282556143638,-0.0181061023797733,-0.000801790492555013,-0.000155850237289733
-0.0658893843609878,-0.000561930356490537,0.00176416898175439,0.00109769368627178
-0.0408658179524675,0.0320702523290623,0.00509642857459528,0.00287258913358017
-0.00528251184339093,0.0542949781531159,0.00784602906029616,0.00422648318056573
0.0240556054621213,0.0565943751194597,0.00470280302379881,0.00418711378473136
0.0379307101838551,0.0482096963360105,-0.00337489381201266,0.00273682928505656
0.038690657486854,0.0372760617528483,-0.0101153733522231,0.000468792143385389
0.0323217077553754,0.0274771846560789,-0.0124588956072449,-0.00176945965363043
0.0249255279667671,0.0176853202607554,-0.0110315085362802,-0.00321893519353222
0.0206490048158239,0.00687302365118778,-0.00780585715770451,-0.00372686539112939
0.0193642051447509,-0.00547393961081935,-0.00470752141663141,-0.00326586008380834
0.0192773904891391,-0.015150234822207,-0.00300488431268029,-0.00173668184258973
0.0208587425232595,-0.0184349510308197,-0.00303857002707741,0.000220929032801674
0.0208168744262361,-0.0193840857119236,-0.00316976792204707,0.00157090772822111
0.014804012903301,-0.0205523201067122,-0.00378467548144791,0.0018248910649779
0.0083961208651457,-0.0222041433339143,-0.00454602474251832,0.00107820707041994
0.00433959142993455,-0.0244630828757484,-0.00142485140481391,8.80317965699204e-05
-0.00327105211410571,-0.0294750634238585,0.00587863412224388,-0.000189530414290678
-0.0136019271122125,-0.0412591985403472,0.013127771984736,0.000433276275592313
-0.025840491282635,-0.0460139973548812,0.0170070766160637,0.00131808427999623
-0.0398704568315115,-0.0268536382431787,0.0165328418198029,0.00203781000298327
-0.0471570842761411,0.00809704831463946,0.0107066602790201,0.00278551407312922
-0.045469501901645,0.0386443251277336,-0.00061730697777209,0.00313415876555492
-0.0351000736330221,0.0485903144201729,-0.0113113506876996,0.00222711069136825
-0.0128442157602359,0.034984715691384,-0.0159230599681536,0.00051908534684477
0.0142883453945834,0.00774473319964453,-0.0179075508439558,-0.000951169236087786
0.0381348273326741,-0.0202407378608714,-0.0207359434974343,-0.00201358470730262
0.056455350586624,-0.0387478017540658,-0.0220203772153546,-0.00264513105354963
0.0673404308980084,-0.0444718331011093,-0.0196025074684008,-0.00246642559272145
0.0720650719998081,-0.041538871396142,-0.0165336385939923,-0.00130823981508855
0.0708194440859329,-0.0375504229191939,-0.0162892543331723,8.79619056392746e-05
0.061293218364688,-0.0355515513162303,-0.0182214845097995,0.000721378332496149
0.0439629488416856,-0.0299003182596413,-0.0188332566390598,0.000815190544912263
0.0243274118260767,-0.017997530651358,-0.0142533535721042,0.00128172953822109
0.0022659754646575,-0.0146329769671701,-0.00355833003598592,0.00212972009713665
-0.0311283526296066,-0.0324872754385762,0.0106772147705251,0.00217845878311795
-0.0667379596754622,-0.0537898522706847,0.0232936617994916,0.00114861423985881
-0.0841589981810897,-0.0560522309632949,0.0258594841877243,0.000652255431970785
-0.0775349861003025,-0.0381442794664398,0.0174897369413498,0.00142011359094319
-0.055016383543183,-0.00597507562848531,0.0107347921804727,0.00226716111497064
-0.0256963375348804,0.0271712121509993,0.0107480380385938,0.00230965137622693
0.0108664842988593,0.0382688544946164,0.00927937890824393,0.00210332442903745
0.0466097305097392,0.0201478207873367,0.000994336434919141,0.00242241582403141
0.0664474608593901,-0.0109581610761891,-0.00994474832452498,0.00246048564997102
0.0653877848740902,-0.0348873963995142,-0.0156872299242413,0.000752584595846272
0.0472269243808326,-0.0423273652248947,-0.0144842411939287,-0.00252805445381585
0.0233189521852224,-0.0365188998670965,-0.0074740196757785,-0.00587629093713319
0.00314615137687292,-0.0233152837067467,0.00593123380397648,-0.00771236967795398
-0.0111259653131475,-0.0131305824815814,0.0132238606680999,-0.00721115745459163
-0.0202527870525043,-0.00943691995146865,0.0071732824295473,-0.00555469842494885
-0.0311893851641475,-0.00333919963022828,0.00450038755771312,-0.00430490257170506
-0.0509376818514985,-0.00419989690365121,0.00877013329543872,-0.00312950069772615
-0.0655554529674506,-0.0193851004571801,0.0092007629415652,-0.00140021381085879
-0.0596014695316383,-0.0279805672777734,0.00857421726488443,0.000970074137010959
-0.0406415632214499,-0.0208479032750358,0.0100936217760959,0.00408478472277288
-0.0224855708299947,-0.0106284382487288,0.00981432062686977,0.00713268001774798
-0.0149290616291278,-0.0018673727230059,0.0093729866363893,0.00846165124492048
-0.013981225024272,0.0140744136506375,0.0111026682215483,0.00776374603843758
-0.0091790679045601,0.0379987760791984,0.0133939393891012,0.00635424494698966
0.00024733616122127,0.0514429528637445,0.0162124571149777,0.00506907950638051
0.00898498991665751,0.039523129391837,0.0191596815465081,0.0040059155003995
0.0109666331192216,0.0130132391630444,0.0195545020264972,0.00303977745216844
0.00629030761523949,-0.00646811498213216,0.0143311363860374,0.00167094298454188
-0.00202935031758712,-0.0127087967334981,0.00437323327997578,-7.90430616084943e-05
-0.00866685025459869,-0.0102363202431312,-0.003463642148984,-0.00147632678655702
-0.00641723078411159,-0.00250010365433076,-0.00555138523259033,-0.00215708375035657
0.00907968101014487,0.00655991590948644,0.000466247814854994,-0.00227795731072467
0.0307353753226701,0.0119715233745636,0.013534484403345,-0.00201674767233849
0.037211157279237,0.010209028453536,0.0187136523378245,-0.00177598155355128
0.0228563917136718,0.00283270548263031,0.0108161821624668,-0.00254207234881102
0.008363857564331,-0.00115863179346262,0.0035413877680526,-0.00460398021178623
0.00538402707548033,0.00849025130126169,0.00519538259421407,-0.00645408780472897
0.00726398478841547,0.0294950080044442,0.01124312285552,-0.00627588268567635
0.00962082563304266,0.0450659631560185,0.012614853204747,-0.00400822701127826
0.00822467615908841,0.0356513771836337,0.00741647127196977,-0.00133814745471258
0.000895035253519843,0.00412020010259782,0.00302799683026129,0.000171417277906165
-0.00352430956769952,-0.0196831172722984,0.00504814467004693,0.000591043513601081
-0.00414147744141621,-0.024946945430499,0.00553831950511296,0.00132920497586578
-0.0112540249958521,-0.0254888809887359,-0.00235530059466871,0.00284195223690278
-0.0271991493063906,-0.0217951085567819,-0.00824483392824648,0.00413769120970029
-0.0440262525917992,-0.00349249150297036,-0.00523466103931023,0.00509438310076047
-0.0458120091880104,0.0294612425342397,0.000385584133221335,0.00601806459584753
-0.0261128360194432,0.0584936312524298,0.00416214121207157,0.00623078944706364
0.000537883952771309,0.061734005578918,0.00388672849382355,0.00526711870072307
0.0205129792371448,0.0400687252455484,-0.00133368214186361,0.00339447771504026
0.0329139108051283,0.0131932303230578,-0.0065065772211737,0.00131016714003525
0.0398923408310742,-0.00469207650653624,-0.00935546131831713,-0.000439751928512721
0.0421896979303648,-0.0136801937917917,-0.0107025015943293,-0.00214532005516216
0.0435135658203807,-0.0194622177330857,-0.011662854296796,-0.00396992168728372
0.0453710052797973,-0.0239915141640399,-0.0138584644278761,-0.00535764334024656
0.0454748980952856,-0.026754901795212,-0.0145589171628352,-0.00578577339278407
0.0439202767397942,-0.0298870434924856,-0.012522049390136,-0.00519156805903207
0.0415592233145552,-0.0344931784561836,-0.0110244093769084,-0.00394857385869062
0.0383391216061353,-0.0411530996073698,-0.011800706542559,-0.00263418240215959
0.0334082001759842,-0.0476109765978013,-0.0136674379132264,-0.00173707513850048
0.0254211536101877,-0.0428768398347816,-0.0147405573187101,-0.00161511634746132
0.0154887914863116,-0.0249862034741483,-0.0164434358277144,-0.00198733449943604
0.0065661403543629,-0.00737719898752483,-0.021843179232037,-0.00196909739755088
-0.00399582591491643,0.000358419929442251,-0.0284813235457004,-0.00133071398113113
-0.0168498088849818,0.00125033938545255,-0.0304712843033579,-0.000811287286302518
-0.0198394796305876,0.00221492442092792,-0.0273885013686064,-0.000856278306643085
-0.0103691087658544,0.00504916378827682,-0.0219272830093397,-0.000691027784395941
-0.00325478865517668,0.0052861409811429,-0.0147427792003148,0.000467589230802512
-0.00432238283733982,0.0130251051608313,-0.00633158456555855,0.00209442898595767
-0.0108269688915364,0.0446244954988716,0.00322269138358558,0.00291169342127705
-0.0161743791464818,0.0804856646979072,0.00937051466398715,0.0023070906414275
-0.0133807389406414,0.0887095421896254,0.00780904424368216,0.00123058348897057
-0.0111351044734585,0.0633395719364937,0.00296680299163287,0.000890168072495645
-0.0179140338471371,0.0209211440061082,-0.00234300060230757,0.00105705830573734
-0.0265501448953519,-0.0119221564326855,-0.00674630118385809,0.00081028446193322
-0.0266535875257936,-0.0175423838304756,-0.00617855533311756,-8.03510924108769e-05
-0.0154342570922348,-0.00285256376283965,-0.00235294840789804,-0.000863758547202088
-0.00441740893717492,0.0105569339053681,-0.000741800072110742,-0.000845084618571366
-0.00781405734844381,0.0087447676250928,-3.94532750717675e-05,-0.000184624811244872
-0.0195360739385629,-0.00532439276179225,0.000387100765075078,0.000723057649061075
-0.0257076660665768,-0.0164480538955961,-0.00281645576892313,0.00142895473235469
-0.0256795416663671,-0.0146656617047974,-0.00631354412715762,0.00135830006498098
-0.0234431079151356,-0.00220273919037807,-0.00609815866673676,0.000381544875600673
-0.0191224811523445,0.0127802099376902,-0.00547938434802825,-0.00108313686635915
-0.0121758640564581,0.0242114855045879,-0.00482441303738721,-0.00225784053686529
-0.00298923240345657,0.0318247493369886,0.000950970266677426,-0.00217931154415848
0.00764109534034185,0.0375250150295092,0.0140291460807928,-0.000533269959398493
0.0120309803302545,0.0349003601124702,0.0276028911578299,0.0021475799574268
0.00316359880756424,0.0217075730131075,0.0270251655417497,0.00435708797858619
-0.00841050149832177,0.011230493751047,0.0111854649156001,0.0041624738681292
-0.00731404599396375,0.00678570148511197,-0.00395670173762447,0.00137200303863862
0.00626195557272652,0.00940974649994259,-0.00890689604236744,-0.00208610174812421
0.0210732326238213,0.0208706590897273,-0.00427312343857237,-0.00370284683620004
0.027997609717092,0.0284369097138856,0.00512684621189941,-0.00249098921742339
0.0241257982117438,0.0265359555432506,0.012376915512068,0.000160058930321864
0.0105948834843695,0.0244875674468302,0.0162332900283048,0.00262321627334495
-0.00756794421132467,0.023585053662712,0.0166761413002766,0.00441884298948271
-0.0229220711876837,0.0168807364485685,0.0118724277215661,0.00523732943285915
-0.0367926524369364,0.00807437002568366,0.00398641200387792,0.00484385227239869
-0.0503905538897521,0.00180564548177536,-0.00273378944074339,0.00360814440575008
-0.0548617143960856,-0.00452109567936204,-0.00629500744703566,0.00216545909095616
-0.0474185595255937,-0.00506065546783514,-0.00580148372515603,0.001029177357353
-0.0343967760880194,0.00773049699442411,-0.000663048783362184,0.000321209487176012
-0.021724495839593,0.0234532075169304,0.00589232807414406,-0.000186945591827951
-0.0161354785225086,0.0267046938238822,0.00916826378977336,-0.000883672776863842
-0.0171227962236544,0.0242905972259981,0.00903283482440847,-0.00187573916387715
-0.0161368550625975,0.0319531554842848,0.00583478398732666,-0.00272949213157789
-0.0104369562824933,0.0410369494011672,-0.00043320764659451,-0.00320591520586922
0.000476865470723564,0.0345032187368006,-0.00566448006505299,-0.00328082525650376
0.0122329207574593,0.0180541155117045,-0.00818766824940789,-0.00291553847529373
0.0192494883428705,0.00485485244759609,-0.0109294886643262,-0.00229453212164632
0.0253050148374579,-0.00388399545756216,-0.0134944579071736,-0.00173774347615644
0.0305130748976356,-0.0103008949662859,-0.0113699082395496,-0.00147206630040268
0.030472426475304,-0.0142411270540264,-0.00390096210035324,-0.00140870456968834
0.0266021564151807,-0.018700289247676,-0.00018558203407203,-0.0013130254593646
0.0218887961933699,-0.0223776213426968,-0.00758454849281384,-0.00119816199390364
0.0183079047159477,-0.0182837347876222,-0.0171960550795395,-0.00134617891720526
0.0169687630010015,-0.0118524494611782,-0.0181046486993208,-0.00170842141695482
0.0143871089119095,-0.0192266453724345,-0.0107723428459907,-0.00170426103037601
0.00874290514437478,-0.0399769562256995,-0.000625314534402666,-0.000733222814379465
0.00616861089723929,-0.0528347402373295,0.0074915104386133,0.00112210584275111
0.00692007215733621,-0.0457742140969567,0.0119042039934032,0.00295605949978146
0.0037447200425581,-0.0297094601441135,0.0113851027003972,0.00420094854640907
-0.00382060041994455,-0.0247527481005644,0.0074776185627694,0.00469792867788841
-0.00964073688388806,-0.0292185010879507,0.00259266499311048,0.00371459153003039
-0.0112162429048069,-0.022715189217162,-0.00728831344670398,0.000917042577379546
-0.0116265632802591,-0.00530720148549642,-0.0213130729107374,-0.00239651644248476
-0.0118684196168895,0.0071022183720167,-0.0315503114397699,-0.00446119985757245
-0.0124791791723844,0.011288322317172,-0.0342152526746269,-0.00490834083001186
-0.0134543572547703,0.0175212417416422,-0.0279439231021839,-0.00487241992006051
-0.0171513397263658,0.0231168023570095,-0.013616036070503,-0.00602157261185756
-0.0279274419117678,0.0196452395100682,-0.00462280893371881,-0.00942336411271263
-0.036658355424909,0.0122124499017874,-0.0102928428060699,-0.0139643624652354
-0.0351973874141574,0.0050139403965258,-0.0162839257842218,-0.0161576908277719
-0.0288209663538066,0.00298796663611315,-0.0110206736052306,-0.0132885839138316
-0.019263184799189,0.0100831150778379,-0.00218174661595216,-0.00633002121167568
-0.00180060790243318,0.0182635444172164,0.00274447212339357,0.00123566087584111
0.02182568295184,0.0161020592825376,0.00648969105611175,0.0069953254719527
0.0391517955581816,0.00414082395777418,0.0108891980589865,0.0114732354309697
0.0399264834094514,-0.00955250666823904,0.0148093407801729,0.0163651065578333
0.0260052039825988,-0.0200095215424656,0.0210913556531716,0.0213655442085046
0.00911369899071187,-0.0217461515328674,0.0265992563085743,0.0228302785553605
0.000673601534303285,-0.0180653009495001,0.0216954573080872,0.017543119051188
0.000539736335026735,-0.0187224945285619,0.00881583014306299,0.00734914159039552
0.000379590118910814,-0.0215110726052987,-2.91086260428355e-05,-0.00274718384739896
-0.00415311100094496,-0.0213553114355424,0.00130506508914107,-0.00929665194624516
-0.00980416299019909,-0.0172904382048299,0.00979835080091208,-0.0120274885147424
-0.01309696717885,-0.00744254665565846,0.0179994976778305,-0.0120237779924586
-0.0131568293006978,0.00334185358285322,0.022653480548853,-0.0101007032221079
-0.0097350445940098,0.00732755261794536,0.0201920115809443,-0.00746724250887308
-0.00466515875466514,0.00575054679923571,0.00862630019051482,-0.0053972590398997
0.00175751167783958,0.0062861400354668,-0.00256888950217132,-0.00403882176463912
0.0104747154409178,0.0103388179615353,-0.00658641331466032,-0.00280661453008362
0.0192197875756548,0.00892475841094814,-0.00765318237025377,-0.00127960126347414
0.0256901824077088,-0.000488025211120178,-0.00947165741453039,0.000779385573660807
0.0307459318998028,-0.00769201957110908,-0.00779498573623502,0.00326032213812366
0.0347247944974789,-0.0106137469730046,-0.000535921698454088,0.00544567422045076
0.0368105043537195,-0.0161395271624312,0.00573860792440235,0.00672036045896632
0.0367428023409909,-0.0239280917155805,0.00762095871877944,0.00701985934178489
0.0338558974917206,-0.0276416351639985,0.0085583715908336,0.00655061857856724
0.0293335702878723,-0.0228091373944082,0.0121611104112708,0.00549784065078301
0.0255473765958297,-0.0165875592868693,0.017427956483909,0.00438528008116676
0.0212919480158964,-0.0197155849274627,0.0205465821450574,0.0036481833143153
0.0131704501820933,-0.0278597566213872,0.0186381926462635,0.00301076786118959
-0.000556983650554996,-0.0309889119331306,0.0115550914811824,0.00215904299102623
-0.0153105798742932,-0.0297319908582163,0.00446023278632745,0.00110244496353354
-0.0193107847642695,-0.0261213067203851,0.00282261254039092,0.000270429141864309
-0.0101386117646609,-0.0204570313729393,0.00421064531417282,0.000462988220570996
0.00150074320726074,-0.0137677329392185,0.00342906382166642,0.0017795644395951
0.00794307579955373,-0.00399596376526219,0.000372444255817739,0.00274978195173906
0.00828512621453667,0.00354100554829511,-0.00286522518131673,0.00175384743938397
0.00347631918568435,0.00592688687716239,-0.00633390825583202,-0.00122478408254256
-0.00144677460382655,0.0123977285131326,-0.00988588357148255,-0.00457585716202333
0.000707963178203572,0.0198601282453596,-0.0117081437337581,-0.00653671691210305
0.0130741698831702,0.0180222332906891,-0.0113169161349278,-0.00682943224261669
0.0268535538468119,0.0107528426914002,-0.010328979769469,-0.00604333367192979
0.0287530322934687,0.00679038441352758,-0.00918040549196401,-0.00430796160240622
0.0245309313877512,0.0094626960041164,-0.00640783898575376,-0.00150908164526765
0.0270212828657225,0.013925520753198,-0.00134813122634595,0.00181735901646236
0.0321674341717584,0.010721946593876,0.0053502822487777,0.00404795182179766
0.0267710181496896,-0.00273449535446845,0.0119511910471038,0.00394960033367722
0.00835119965650285,-0.0212288786569689,0.013141030200671,0.00242932730414784
-0.012331786375844,-0.0365471572476638,0.00496753400757491,0.000885713984590896
-0.028215325817505,-0.0372917519749849,-0.00214990435435551,-0.000174566314568262
-0.0394503170865176,-0.0207005391125719,0.00244216639200222,0.000294685548135247
-0.0450067425114753,0.00066299779161874,0.0082044853375326,0.00270096344840588
-0.0501806090597868,0.00983832611699428,0.00427752925853107,0.00498010229578542
-0.0570852895888915,-0.000640926451108172,-0.000547588791360824,0.00516576506482053
-0.0540694339630255,-0.01962633947976,0.000432674367316099,0.0035945289324896
-0.0351807853659666,-0.0325784436288433,-0.00133472167163332,0.00141281866167749
-0.00741742139719673,-0.0373718343084609,-0.0107594729375426,-0.0010926107646831
0.020644386856745,-0.0373782144156738,-0.017636967194404,-0.0038390235534898
0.0420415170843294,-0.0340656796958757,-0.0176337628001394,-0.00616178565977553
0.0555006713673126,-0.0250029316803568,-0.0155244974577429,-0.00757425565088332
0.0637409475970793,-0.0122318432126235,-0.0102517541901629,-0.00803083385059095
0.0603982081493473,-0.00107595572216126,-0.00302374860518973,-0.00732740115581082
0.0399050821742825,0.00724579930982104,0.00118118902799598,-0.00548306519258386
0.00969123947873406,0.0133153993882794,0.00342695482010576,-0.00328023942089969
-0.0249466488586335,0.0218947876767361,0.00604318875839101,-0.00141590357069572
-0.0585683004371261,0.0387999886397229,0.00829201846086425,0.000161097077091488
-0.0777703143817084,0.0653478951277837,0.00965205992210031,0.00192159573479166
-0.0780978336855625,0.0926482939396853,0.0108159441987005,0.0040783608319092
-0.0648659465775532,0.103177858935261,0.0112884809036471,0.00641791076889996
-0.0445421164418939,0.0854622297842883,0.0098133810135253,0.00855804912918045
-0.025895991365833,0.0502751262432102,0.00938264005227979,0.00976654934084034
-0.0161757619262897,0.0203299896786844,0.0103394404313335,0.00915035148824217
-0.00921973019496905,0.00172933895826829,0.0114523208731892,0.00661691788052478
0.00131235434661135,-0.0118637873485171,0.0110768837317613,0.00320491280297996
0.0116132822152536,-0.0227615412597505,0.00613305176602509,7.26279183944807e-05
0.0244127091029278,-0.0320248134036401,-0.000190286218946168,-0.00234578549184459
0.0413008889908843,-0.0405650170147967,-0.00257613453133916,-0.00408186503385911
0.0511655343161152,-0.0468256446923528,-0.00161732561469633,-0.00533182149710443
0.0498309615037564,-0.0473551108330817,-0.000662879047387815,-0.00620477186706716
0.044604353887903,-0.0407892669502568,-0.00132642283233206,-0.00652692074329729
0.0379364083054447,-0.0293412895129601,-0.00381107554420159,-0.00625227115808758
0.028527546603208,-0.0125484965068212,-0.00463747744188508,-0.00522879347919624
0.0182578369708416,0.00320271010580658,-0.00225147027331887,-0.00315037358988434
0.00831337528133957,0.00601591552828538,-0.00361045683529778,-0.000844850230367656
-0.00556259345652225,0.00326796659879047,-0.00534846631625488,-9.31157971890452e-05
-0.0252038589465545,0.0057391649660088,-0.00266287665917333,-0.00103811736794323
-0.0417258167758602,0.00562982393919153,-0.00508763349066664,-0.00180048966181514
-0.0463792568310433,-0.000484909490749173,-0.00836894411233658,-0.00144910612771216
-0.0378401614644675,0.000802895440754195,0.00173350150851485,-0.000451076769768089
-0.0234091904384336,0.0188490216306749,0.0174641457397119,0.000833144381245102
-0.0132448950447125,0.0430255307678731,0.0223427281648613,0.00207503377013341
-0.00590182869295863,0.0578628944785125,0.0215329470200872,0.00308428446229089
0.0024629456843951,0.0588696165690772,0.0211062144111883,0.00412441208726465
0.0110303877676258,0.0472878922183569,0.0141339853409253,0.00532607508409276
0.0216715759358787,0.0258722423834196,0.0022458724553539,0.00583047170056357
0.0335819893186347,0.00187726533254405,-0.0065621155837449,0.00453233153453456
0.0386665546751455,-0.0138351231731758,-0.0102854654422385,0.00158114069813391
0.0362214390438305,-0.0162622904346643,-0.0106446721595135,-0.00176730671004188
0.0310909832085478,-0.0103466621535917,-0.00724021329780788,-0.00424743703075861
0.0223771944415756,-0.00400304029736656,-0.0011407809902461,-0.00517441487248573
0.0104580088202284,-0.00483374079881111,-0.00150567846340839,-0.00476558758282206
0.000585038199868678,-0.0126276234460353,-0.00916587866292907,-0.00413230690602341
-0.00209740849959889,-0.0271220287037729,-0.0148629832083715,-0.00398911084884493
0.00155941024549922,-0.0522790466312791,-0.0177921003033717,-0.00403563319033554
0.00593796585372886,-0.0765479700270626,-0.0215531043189753,-0.00397572288304258
0.00690516757025916,-0.0849806892301412,-0.0261777276604753,-0.00379830754809137
0.00498231343377286,-0.0766004370579094,-0.029499454074149,-0.00342010186720997
0.00215935818104632,-0.0609922111903989,-0.029087326464153,-0.00264868619126472
-0.00337196877360526,-0.0463941873338693,-0.0256774143464085,-0.00125282268922194
-0.0097083744037875,-0.028412319294755,-0.0227781300610041,0.000778283913964577
-0.0111620212519192,-0.00456568494694316,-0.0201233737859337,0.00295471212038731
-0.0123722449642222,0.020384490807629,-0.0179564988166295,0.00457857048001393
-0.0208054648284675,0.0485297444555749,-0.0154464861034134,0.00524422043630796
-0.0345395550828225,0.0745601984189091,-0.00925418610643284,0.00475321072404259
-0.0417072857207593,0.0890478307328163,0.000138791857251512,0.00332503845674563
-0.0334401506356377,0.0936710467137552,0.0137938073403309,0.00185766621545147
-0.0212738604857177,0.0889054921155686,0.0316418995285221,0.0016044686538226
-0.0204810932286253,0.0736460299109887,0.0440839317795423,0.00290836468288033
-0.0176536474275641,0.0431125791676656,0.0426858999713862,0.00407822245556124
0.00209853465609855,-0.000333269440173173,0.0348150345179064,0.0033305881707436
0.0208303952443236,-0.0367999742126535,0.0281084560766341,0.000911478362217258
0.0240519462930518,-0.0536684149198698,0.0157097028445777,-0.00184597639743767
0.0219267438890638,-0.0507384961347856,-0.000775166143387289,-0.0039706318747923
0.0194599208408214,-0.0324102046631221,-0.00861690380506814,-0.00485743117217468
0.00882919780228351,-0.0115814705521972,-0.00656789799607961,-0.00398931304908021
-0.00753768691321862,2.76939652789319e-05,-0.00135684944109275,-0.00197401911111275
-0.0200107488556805,-0.00361920524433827,-0.0025318456400869,-0.000388977440587449
-0.028623035069058,-0.0105568209107679,-0.0138002660624451,-0.00012236507941716
-0.0356711111600703,-0.0011138857747495,-0.0211266902756117,-0.000577374710049864
-0.0405932640734243,0.00760146995975847,-0.0184948771287105,-0.000258729280734832
-0.0436402950055501,-0.00215760584686733,-0.0116637295199543,0.000624269617473341
-0.0424447517149237,-0.0055736343238184,0.000919638877493231,0.00115426961364004
-0.0365667434731399,0.00947083457765418,0.0119875964776226,0.00270542136743738
-0.0301835783765761,0.0222575263502342,0.0134277409587935,0.00573682688423555
-0.024860883287281,0.0212645878799709,0.0137534090606386,0.00797592235942053
-0.0202747404610293,0.0142742266355681,0.0171687505117474,0.00790130174812186
-0.0141533613219976,0.0100291349532839,0.0155573686875779,0.00594049645171009
0.00171319739703202,0.00883807342390656,0.0100387725601474,0.00345814784594281
0.028050081141075,0.00959561829383464,0.0091271002182782,0.00179233019940648
0.0502553393614692,0.00431070222406331,0.00889888763504826,0.00114168811298976
0.0579429681652318,-0.0172814971980293,0.0033886309732473,0.000481687772934533
0.0558950227256142,-0.0463669798122177,-0.00277418976857525,-0.00105534681346381
0.0497463413242579,-0.0669604497798331,-0.00534334406753491,-0.00325613928102164
0.0378123596275005,-0.072289553852942,-0.0053777815958381,-0.00537247360963836
0.0147789599867104,-0.061441699840509,-0.00267673239553499,-0.00645698821359045
-0.0156130244410938,-0.0432075773158718,0.000942376926917537,-0.00582599606679138
-0.0363842757726446,-0.0281690422123803,0.00150612160450644,-0.0042009955285203
-0.0410488807649178,-0.0143267286621202,0.000499292460952434,-0.00282307453579961
-0.0399842154249948,0.00868762908747635,0.0039575601819012,-0.00151832997654683
-0.0430813097631993,0.0343319263481254,0.0125097973226592,0.000466662517820154
-0.0425703202367586,0.0434782986848179,0.0209656351939512,0.00323278530456029
-0.0313780388753695,0.0388068461984783,0.0266911378887512,0.00619515840884379
-0.0201414214617285,0.0363094217400408,0.028678125000768,0.00798409988203538
-0.0105275605797959,0.0455960290523675,0.0250953945666305,0.00783049174578554
0.00402986700305626,0.0530616474227005,0.0146443223540682,0.00640253233820683
0.0198672534980463,0.0364378505083479,0.000920101072840789,0.00436258246236674
0.030818399841332,0.00511901196562083,-0.00634185656168071,0.00170878861691899
0.0345256040275167,-0.0208267888104449,-0.00462963376031533,-0.00133957485005602
0.0307695393870898,-0.0356486707840726,-0.00223933122000932,-0.00410555289669543
0.0261499705108355,-0.0446767982490984,-0.00541060417837596,-0.00599395155661812
0.027204022059992,-0.0511954986010416,-0.0110273010604423,-0.00693516830123963
0.0274005407888133,-0.0502643094681889,-0.0116287929025261,-0.00738059435289162
0.0195561746478844,-0.046422876963639,-0.00974759091256937,-0.00731442456451889
0.0099017973548511,-0.0428006029257944,-0.0109844477559298,-0.00631326923147297
0.00482307753513648,-0.0320443805785869,-0.0124635029179549,-0.00458490392144251
0.00129170188798313,-0.0134097705064229,-0.0123526913063992,-0.00261697627762625
-0.00353307770556315,0.00454780639471599,-0.0110932948172449,-0.000468180598131919
-0.00937996266258226,0.0159695754262156,-0.00897091139229868,0.00187525546290269
-0.0164804820206866,0.0190654143106376,-0.00900923559872928,0.00380180383648291
-0.0227151246536071,0.0136444826189668,-0.0116972255800381,0.00455615884986119
-0.0242935221932607,0.0116685438916254,-0.0120462912612182,0.00428198262012734
-0.0205224845128759,0.0242079471334468,-0.00641104610573042,0.00405106824321902
-0.0175764598646763,0.0384119839981191,-0.00423587394604252,0.00421880159531157
-0.016076956180728,0.0374114313383037,-0.0105108819646429,0.00344374657534851
-0.0124954041028148,0.0257290301231705,-0.0136291332342698,0.00110919987128387
-0.0120217441024006,0.0179042575974436,-0.0110364329977842,-0.00154463432924067
-0.0130978376717203,0.0215677316635828,-0.0103568769301544,-0.00357571857616201
-0.00857906282592116,0.0374561796834529,-0.0130266247876029,-0.00491927726184405
-0.000220662661380232,0.059587368991624,-0.0152716747559196,-0.00518821350782981
0.00584366126913727,0.0764439997383566,-0.0146906055819889,-0.00402672181510525
0.00864296436090396,0.0768476778132117,-0.00921823038288982,-0.0021841400211419
0.0110754511375758,0.0657183673696597,0.00121095824075693,-0.000619421575903412
0.0115979366475479,0.0636366419377432,0.0125729767145543,0.000706949894078583
0.00404353146364025,0.0692676147572595,0.0214330625200346,0.00230120694655259
-0.00686278192310247,0.05685402457316,0.0297007597018055,0.00403788661387676
-0.006845096346732,0.0174263761355548,0.0359235020539818,0.00499953711436312
-0.000886651673530703,-0.0227016746467209,0.0331172856878239,0.00443916127755936
-0.0055212503667852,-0.0366077927236295,0.0225715620135378,0.00269766220147539
-0.0139451839560309,-0.0281882526315497,0.00996816563049294,0.000630796254162966
-0.0131256756656098,-0.0112541067492555,-0.00365972135886042,-0.0012994470010649
-0.00616641412124082,0.00412289133040662,-0.0151789932745954,-0.00281388770120757
-0.00374924780073829,0.00924957403466165,-0.0192771440023845,-0.003645888129734
-0.0136239707477018,0.00430878648414628,-0.0161642997209627,-0.00372754334643421
-0.0269338303917962,0.000540365454230921,-0.00948730083426224,-0.00309655751006663
-0.0296278347974154,0.00639673774468751,-0.00472135786673141,-0.00184326660208394
-0.0188912376593078,0.0144909260040932,-0.00470100259639991,-0.000436676932194454
-0.00192026003692378,0.0166232711884893,-0.00604672359019076,0.000499433465463733
0.0134471805215704,0.0138759169089416,-0.00534266423072201,0.000763651159390018
0.0217730066609086,0.0114691902015648,-0.00303622955933384,0.000561454835558649
0.0197911877160565,0.0128269434586299,-0.000438604429185245,0.00042364374230049
0.0131592300368016,0.0144981104295194,0.00174859995494289,0.000649288775520801
0.00721571714721506,0.0123787934884806,0.00326148788914126,0.000853707837602356
0.000373557561457783,0.00471354766792619,0.00520623275241863,0.000824239064903491
-0.00488837991394228,-0.00728713278926694,0.00648442514414257,0.000904207635180319
-0.00795539206428511,-0.0190580086983044,0.00513545615531546,0.00103532002503401
-0.0133411195265133,-0.0223615232600409,0.00405558183440902,0.000753206433456114
-0.0160582547483861,-0.0150747962482899,0.00575964924212366,0.000222908554146215
-0.00897117063059462,-0.00826579573752807,0.00968269154194164,0.000145947865260097
-2.01516825888357e-05,-0.00740025539992049,0.0130472162044967,0.000684376264796655
0.00301383682709929,-0.00669730734070522,0.0129429170456261,0.00105640627481201
0.00466179664096914,-0.00294547608901646,0.012195075437819,0.000765229273801525
0.0056546289841991,0.00116448314791597,0.0152472960458892,0.000374889800328461
0.00186534534581577,0.00334851697761088,0.0195891576250261,0.000247539770382327
-0.00165639713753094,0.00485069971906842,0.0201611380921258,-5.7569938934781e-05
0.00176151882793251,0.00713772932372202,0.0173567230541669,-0.000645099733730063
0.00655494860032499,0.0106541491779974,0.0154753409192866,-0.00131272274221314
0.0074231307272204,0.015456195625679,0.0208457609392368,-0.00210329775774809
0.00449745890159283,0.0137780371440906,0.0286422552128944,-0.00236773617985165
-0.0037845637850126,-0.0026844679161636,0.018313379715178,-0.00144986913181274
-0.0139273572354092,-0.0219816638598877,-0.0111013478825588,-0.000480160174612224
-0.0167553686646288,-0.0251013377392828,-0.0310105017378922,-0.000831259159617545
-0.0114477822066303,-0.0135928184003334,-0.0268750723927901,-0.00171868177914736
-0.00562807189287498,-0.00412833543318302,-0.0126762242685424,-0.00175752751241576
-0.00505500106413656,-0.00608156873539959,-0.00433794300353009,-0.00119076785928784
-0.00521883012494998,-0.01436814868795,-0.00335003652294102,-0.000921745008380857
0.00247457984201185,-0.0205972697703198,-0.00460943642696078,-0.00113583073497678
0.0144246704936837,-0.0211461771559899,-0.00601611771371593,-0.00153826893555082
0.0214056497022879,-0.0187307007186615,-0.00656440000575848,-0.0016521309919052
0.0212087733288067,-0.020873493930194,-0.00438356302934726,-0.00107496249606283
0.0187473233328465,-0.0313907877438961,-0.000731944002278346,-2.72285484732545e-06
0.0170273982827764,-0.0417414000302258,0.00104124622971892,0.00107377236409404
0.0155867713443009,-0.0408898296566274,0.00118205380010591,0.00167578318655764
0.017406620425407,-0.0308452553212263,0.000387045895987999,0.00162861401471927
0.0201337711835137,-0.0194512812854775,-0.0035708181525786,0.00129428338768813
0.0172742199561516,-0.010394306494223,-0.010336485751494,0.00061040409379235
0.0111947769837869,0.000267291114279311,-0.0136473996021436,-0.00089012862544833
0.00741272915828766,0.0168714165494583,-0.0117930358888902,-0.00312647930824046
0.00276541561499647,0.0358337037535119,-0.00980081055590353,-0.00514460618791754
-0.00873889212194518,0.0463548919416123,-0.00881157382604636,-0.00566264654149647
-0.0185927340559008,0.038369650563162,-0.00350469937066187,-0.00467320656661122
-0.0154848502432969,0.0197288993270241,0.00569273329530519,-0.00283273718278817
-0.00374449148985846,0.00177483265828314,0.00743845485591772,-0.000260783628853702
0.00628137157592792,-0.015823946262203,0.000175273634262301,0.00232390206760431
0.0137440989645583,-0.0279256837893015,-0.00500376456649342,0.00392931847430977
0.018468871352675,-0.0369236930851817,-0.00578559785251118,0.00491065832238076
0.00786240128238436,-0.0481186513103966,-0.00665474354215389,0.00662487540728056
-0.0158545213708636,-0.0456690862985693,-0.00764155514163828,0.00927013565740767
-0.0270516356735303,-0.0188832484156972,-0.00850615678818442,0.0107863828252742
-0.0198539580740014,0.0119920317229619,-0.0143708863703292,0.00863865346049287
-0.0107836168969365,0.0179072147297178,-0.0244842545706868,0.00232905999562608
-0.00686655195262196,0.00463574173604272,-0.0274064712286796,-0.0058798225506526
-0.00467604803698922,-0.00306899849833018,-0.0178486455159224,-0.0119361527940642
-0.00295673960969561,-0.00249604187193019,-0.00549350950081012,-0.0126207801411694
-0.00630937726470528,0.000568554300428264,-0.00260117861192658,-0.00868355704597541
-0.0113715859233622,0.0064779375451999,-0.00415815857895467,-0.00385660304056825
-0.009421790242403,0.0136972119993816,0.00034336321270691,-0.000500849783126336
-0.00489452033941063,0.015631498321743,0.00641445639000817,0.00143515583086506
-0.00354678492060931,0.00964470999237868,0.00768358498148055,0.00237303911055488
-0.00469396997115853,0.00150458844443255,0.00818324618393705,0.00265906780935706
-0.00434411833018066,-0.00571368795056483,0.0102725528505258,0.00277233621142579
0.00418015302312758,-0.0128943729276203,0.0096552888458359,0.00311915295782589
0.0151445027749397,-0.0219100958554162,0.00752047219946739,0.00400942572145689
0.0188763928114486,-0.0297530909698017,0.00454637040219334,0.00521184133180046
0.0209286081565673,-0.0306424351555948,-0.0064912785794181,0.00588664044017754
0.0276245123886524,-0.0263935751239828,-0.0213290942366365,0.00517651372618791
0.0311779785073829,-0.02131161673901,-0.0271497564534912,0.00313755231064044
0.0230084671847221,-0.0184956511207664,-0.0249919124684179,0.000910176384416542
0.00655968544246162,-0.0192052566891086,-0.0231721218546762,-0.0006086195938426
-0.00906667881189932,-0.0206898225950549,-0.0222862641129952,-0.00143957897954723
-0.0239054630372585,-0.0204434182952711,-0.0181076621140351,-0.00176244767068238
-0.0396401206960719,-0.0220862641673041,-0.0108946175920629,-0.00151914255568193
-0.0501544995077787,-0.0214355582889255,-0.00362383470694441,-0.000882700884190732
-0.0496715095011262,-0.00161704244350579,0.0036199764682355,-0.000116068017784399
-0.0366364886598596,0.0328636969694301,0.00889733503987829,0.0009286177315101
-0.018614093442863,0.0543773439873694,0.0084115080680688,0.00198798021194159
0.000521353785717061,0.0494119198988044,0.00524984217914355,0.00229132640481404
0.0179428677670981,0.0276372368954186,0.0029527141322282,0.00175834679027643
0.0203547568754159,0.00816964656537908,0.00225305333045943,0.000911634599354576
0.00944555834697249,0.00383590765859985,0.00432654419319622,9.13820399269395e-06
0.00526114899662516,0.0132926254692544,0.00528004841069944,-0.00116494153194532
0.0119967587827809,0.0258150543804811,0.00250280658392216,-0.00243545750202256
0.0220633643564506,0.0310618226031027,0.00268433511267215,-0.00293071118720282
0.0329188552477005,0.0277210825738595,0.0139098069119259,-0.00215304121833995
0.0333855330968939,0.011912517686346,0.0250788466431401,-0.000470901403829742
0.0142644498548622,-0.0147284997536912,0.013228899508751,0.00053634378005229
-0.0137344914806165,-0.0258300991415922,-0.0153341032943487,-0.000638116541481994
-0.0312282202311938,-0.013287217536592,-0.0335020794004024,-0.0024865889908515
-0.0292068655522089,-0.00186890340100438,-0.0321217106984782,-0.00215988590093721
-0.0150560348769841,-0.000804376734024816,-0.0210891941495333,0.000356085947989913
-0.000788089084968246,-0.000748345290783187,-0.0124720195138882,0.00266717970194936
0.011080907786428,-0.00152902376494136,-0.0102175249843785,0.00269438343291207
0.0253419686455368,-0.00397664529605438,-0.00816974820662702,0.000108250108922724
0.0410091660150901,0.000947048583196778,-0.00066321294456495,-0.00296932202869595
0.0456642364538647,0.0151885514438492,0.00788189143502255,-0.00402793541755429
0.0333263441371084,0.0236924212333349,0.0155143418317182,-0.00270473664252705
0.0154839672658734,0.0204545800982228,0.024259556779441,-6.13358881722407e-05
0.0013911053842332,0.0149202946254871,0.027841740141754,0.00232885320297375
-0.0071270828188118,0.00967861051286835,0.0203557321560144,0.00281923293121977
-0.0095264057912101,0.00555196282973252,0.00827291056162175,0.000900716979625542
-0.00955079173399906,0.00707373572736372,0.000961655662565669,-0.00206665522317364
-0.0104284603583506,0.0148856785392923,-0.000253455728455977,-0.00378631927492793
-0.0127491570015345,0.022393487387717,0.00206720652760392,-0.00314846249974492
-0.0137123704673974,0.0249106326525171,0.00761912901539927,-0.000993245867214446
-0.0107747334436625,0.0219270119054386,0.0123479773838076,0.00112894757403503
-0.00886134472820082,0.0150504386443976,0.0122419147248084,0.00198449612138852
-0.0121974003992439,0.0115416150769506,0.0132328142770281,0.00159820083966736
-0.0169454784530583,0.0201519424431715,0.0195699753623458,0.00105163081831426
-0.016936559041767,0.0377464204528733,0.0273926569165736,0.00098581473592867
-0.0114158782686538,0.0507021774737262,0.0294328494938114,0.00134211901201303
-0.004863748032059,0.0500813195287141,0.02305099312531,0.00162257368585365
-0.0024729423435384,0.031453217138119,0.0124103755544703,0.00143048641857352
-0.00596063047821126,0.0037815953891528,-0.00133398442879257,0.0009213229575372
-0.00985538821327017,-0.0120539148312136,-0.0104754651803073,0.000302316435974507
-0.00750080868637638,-0.0112051436005995,-0.00446792944610388,-1.17097636478151e-05
-0.000607017552309026,-0.00667862922559005,0.00985102734698787,0.000472583175488491
0.00616458869078838,-0.00893110681983627,0.0182638822392942,0.00113840642312408
0.0116560187162013,-0.019421886456123,0.0131711541467394,0.000624840858003437
0.0179340174791239,-0.0295182318961773,0.00267890806586857,-0.00169875384653935
0.0274211339814312,-0.0336121850879627,-0.000859997905329448,-0.00473857453642052
0.0367999438894461,-0.040881505748604,0.000359391366629011,-0.00644434888991174
0.0399262492086495,-0.0547207915116623,0.00139053253425095,-0.00629464137861106
0.0398281075550614,-0.0644600360338222,0.0012251505773003,-0.00536993023421949
0.0420004738865113,-0.0663894057627893,-0.000852422134773219,-0.00396107264885638
0.041753137229827,-0.0638626825231444,-0.00244524348731685,-0.00147449578818462
0.034649904967793,-0.0579801345977112,-0.0032128637428035,0.0015031128840166
0.026921753962503,-0.0514919346962423,-0.00379428286602592,0.00344770783285814
0.0252944256645411,-0.0449821697695833,-0.00320514099014311,0.00410702058214061
0.0220649433770437,-0.0355425406066652,-0.00250907980827187,0.00428126530810788
0.00951442715770146,-0.0239369616425789,-0.00333548442887754,0.00439093667526211
-0.0020439773811835,-0.0127995729512392,-0.00588712588526618,0.00445542240553546
-0.00637985035306704,-0.000104555179037139,-0.00912795317036594,0.00420887492581531
-0.0136107147186346,0.0156780281905554,-0.00951518962658073,0.00340633084833784
-0.0299341783348171,0.0328754117307128,-0.00347632943637503,0.00205607323374217
-0.0475212389705998,0.0521599762600173,0.00528662023934774,8.49625061930762e-05
-0.0532230718602203,0.0719669492744403,0.0116338765558396,-0.00244542159027694
-0.0447484565419228,0.084231244327749,0.0125430360896513,-0.00441208869575901
-0.0299586048107418,0.0745374712706033,0.00539153566448073,-0.0043358059299223
-0.00775328770483888,0.0350074874986718,-0.00769176457121774,-0.0026526734356694
0.0229757972598588,-0.016933006353948,-0.0213895980384168,-0.00121980027261606
0.0492451610992081,-0.0534063494134969,-0.0301511734145681,-0.000808467612470694
0.0607492820230996,-0.0645083946339831,-0.033033648777417,-0.000983119832920416
0.0548797429283068,-0.0602381973674499,-0.0352253758464134,-0.00142960308257143
0.0410582726756536,-0.0441995929361066,-0.0363525040566918,-0.00198896168941191
0.0375010593914431,-0.0154620017869591,-0.0323060758363962,-0.00243998846093266
0.0450527912473504,0.0082848607953845,-0.0229306974507317,-0.00291116438597449
0.0502644073203957,0.012050070020097,-0.0106261553111307,-0.00336380293338248
0.0469397783735245,0.00475387292412147,-0.00369241866052255,-0.00305864318794241
0.0358910572663041,0.000387070650683476,-0.00906965727105535,-0.00181588127908256
0.022106421563029,-0.000607405358637975,-0.0204429386228392,-0.00050877100590882
0.0137776906561097,-0.00360304186381675,-0.0260539366959608,0.000294060246319183
0.00973043743078301,-0.0046201495715353,-0.0232739306219751,0.000954822420462542
0.00413167434119426,-0.000842474321491423,-0.0185123871117401,0.00208149832944228
-0.00238579239121803,0.00149226109386331,-0.0112240084744387,0.00371454993392828
-0.00999051869577631,-0.00632563856914985,0.000692199811951941,0.00534842082303337
-0.0146591726341812,-0.0268657481560741,0.00848760533168027,0.00615578361192284
-0.012074650496134,-0.0415709033453773,0.0101053240691965,0.00546373596554467
-0.0136711388003047,-0.0274174468351578,0.010991424399835,0.00401518296350714
-0.0294395663759337,0.00557288380975153,0.0063614453891448,0.00291948772467292
-0.0504957303752606,0.0281908380309011,-0.00162793239376842,0.00156278535353022
-0.0585862940752743,0.0319416462511298,0.00270160567316198,-0.000493215965387984
-0.0456179472893209,0.0305975227027808,0.017240452969402,-0.0017996255388944
-0.0218494040990816,0.037795573714385,0.0222483552662488,-0.00133305425518867
-0.00175456737294818,0.0403404015360765,0.0132978189631696,0.000210876872074411
0.0117974536671626,0.0194571991556413,0.00626829116141137,0.00170547025180661
0.0218609517307244,-0.0105094341181573,0.00748441545404985,0.00247740279432332
0.0256378073413963,-0.0203566821505764,0.0104608021593156,0.00230830644934868
0.0168982279417525,0.00112017743107787,0.0114325559733533,0.00162952390286889
-0.00202803141761782,0.0355825814886221,0.0100769316836458,0.00115294006446501
-0.0163800386604244,0.0548389200981022,0.00713934159917834,0.000955791871790714
-0.0160603254480657,0.0552908291053389,0.00511825529769238,0.00103966136712808
-0.00758865291654415,0.0437827607911033,0.00696803856985697,0.0016565884054596
-0.00193889809372638,0.0182190100801868,0.0119412963936422,0.00253510256836624
-0.00305403241530162,-0.0113404013925893,0.0165491660817887,0.00332487482235585
-0.00569058814053573,-0.0295188655043101,0.0199937154099912,0.00373717672434743
-0.0048598411548655,-0.0358189461975637,0.0236722936869781,0.00322803144560865
-0.00309090032305636,-0.0379679794404224,0.025453857592513,0.0018378517231136
-0.00184404243082665,-0.0406507984337283,0.0243724644520706,0.000308948369126857
-0.00313700238256047,-0.0430115555856337,0.0223359723286279,-0.000662609407663911
-0.00956547388286726,-0.0408434461433559,0.0198234051897178,-0.00078605767556493
-0.0168340890591134,-0.0316658235192116,0.0180032421112894,-0.000409916474612258
-0.0194855270701403,-0.0214182369263645,0.0180434498414168,-0.000186833153248951
-0.0177820927297507,-0.0163612099081719,0.0200518324707718,-0.000149037025496144
-0.0143302092390132,-0.0113927598395109,0.0275367310390171,6.89015237135115e-05
-0.0140909731456869,-0.00750534519413645,0.0339992690977339,0.000604449856620772
-0.0210362525619409,-0.00990281947526845,0.0277228677835829,0.00101582974276126
-0.0286553018377675,-0.00716855326043785,0.0175560140239266,0.000310827285243698
-0.0304136814080267,0.0056568277817129,0.0167317502436302,-0.00133748860049725
-0.028970895997893,0.017398829389502,0.0208702490088384,-0.00236449110769296
-0.0266804761597135,0.023986759865933,0.0200592076171823,-0.00213016567147815
-0.0236375086238897,0.0268431508125379,0.0132741092806158,-0.00124869112189838
-0.0200679900998632,0.0244253302342317,0.00697446315659194,-0.000118575586979441
-0.0163171773965199,0.0157294292856895,0.00522006906263121,0.0011276485660753
-0.00862768028774308,0.00483832230070445,0.00537348849288809,0.00179110909414999
0.0054301252907606,0.000194338595675662,0.00725464081584525,0.00126042048981304
0.0171196043917163,0.000275299139399537,0.00977711733129462,3.31564694250285e-05
0.0212700402177563,-0.00124688001986582,0.00874197037274111,-0.00105921619837661
0.0224181697275286,0.000836904943620161,0.00516133855183376,-0.00149811103268914
0.0233506773558569,0.0112575538754735,0.00249904863643851,-0.00141835505652453
0.0225800992600905,0.0215218227574358,0.00311106953639653,-0.00180793817762241
0.018616080611662,0.0200859834238298,0.0048148388331126,-0.00282225120273081
0.0101114546718487,0.00950052344883749,0.00202254213562828,-0.00337720360032009
-0.00084929471861013,-0.0014949225486225,-0.00429728111167964,-0.00342454970598162
-0.00673520760137281,-0.00967580173201203,-0.0116294433865463,-0.00403802942039422
-0.000970628714649979,-0.00761743262751479,-0.0193507140136539,-0.00539558360868665
0.0114553828869158,0.00473035611261916,-0.0210302407233424,-0.00622776817116209
0.0151561428730845,0.0102641900494311,-0.0159162888271571,-0.00511119075948246
0.0105772513387703,0.00168416750606902,-0.0102359103709699,-0.00208960825321744
0.0105232943314974,-0.00643098903628273,-0.00691437755314796,0.00118035065014422
0.0133105516786756,-0.00427045139184718,-0.00580372124053714,0.00287872196954286
0.010800879447854,0.000639959945630188,-0.00526291306926618,0.00267807614375269
0.00111251384743735,0.00108988121986734,-0.00443224331756088,0.00145616042509228
-0.0103517563653401,0.00244217198663749,-0.00243334779644898,7.33983174899988e-05
-0.0154354101200129,0.00834222008624291,0.00148179248230533,-0.000869170749791728
-0.0119201405699089,0.0120026683384049,0.00554370048709618,-0.000978880277241891
-0.00475011566648351,0.00872316409030385,0.00550223228656603,-0.00032340252020687
-0.00315882287713514,0.00118937686395128,-0.00143152466532193,-0.000255861081888292
-0.0072563207754478,0.00777922226151293,-0.00906386220631541,-0.00233026516931368
-0.00662756165740274,0.0369263811517003,-0.00900441571888113,-0.00532587392138988
0.000895535854298524,0.0616542676641495,-0.00123013923435111,-0.00635237863695215
0.00788747169335089,0.0520779224684449,0.00608623557177833,-0.00434127208011304
0.013743685050774,0.0154899121178453,0.00323184886458918,-0.000779521398278033
0.0193546118109067,-0.0112279343577412,-0.00491185933527189,0.00168331435169778
0.0203801535404955,-0.0124212065369856,-0.0077846015097242,0.00182732145260478
0.0162924172431043,-0.00141891396404135,-0.0101340528270934,0.000773240835086275
0.0108425307869878,0.00792747113124473,-0.0173032563881922,-5.10046407761081e-05
0.00509110659476094,0.0092306973186392,-0.0194743999563792,-0.000229831538166614
-0.00702505362844753,0.00404508200050852,-0.0107849493248403,0.000415029466156006
-0.0246458889548809,0.00148987406579146,-0.00225745447296391,0.00191789058719204
-0.0377751464924722,0.00578124399270803,-0.00178179582268725,0.00368115323996574
-0.0420099582757544,0.0113032850982342,-0.00392318338797928,0.0053116013279591
-0.0418035421410238,0.0131437300212408,-0.00771613551293969,0.00651255517444251
-0.0421223975635605,0.0124868529376458,-0.0132677985631613,0.00604099520551968
-0.0381928079457162,0.0171105901341978,-0.0124406108706721,0.00335131598967469
-0.0270535285996099,0.0307361466718135,-0.00387997258143946,0.000373110742084487
-0.0165303264333067,0.0381176195348681,0.00318854354000918,-0.00096482867743214
-0.0094270779599107,0.0254213037379761,0.00348997612635639,-0.00144174719752713
-0.00390267638395324,0.0110323216467725,0.00508354103458624,-0.00300322387519124
-0.000175327840058817,0.00967462936626948,0.0120002506549191,-0.00555873522954088
0.0030925315669169,0.00617729758395091,0.0165404790001593,-0.00750607175545257
0.00478984561827232,-0.00219078242897062,0.0139069591703856,-0.00805768814119848
0.00176615888256528,-0.0027569665181804,0.00521078009299647,-0.00690963672014166
-0.00314601437596708,0.00120357122019694,-0.00143722842152905,-0.00421139910149287
-0.00377698627863056,-0.00200640536200234,-0.00106901742781383,-0.000927879239881035
-0.00029278561499297,-0.0115618032689974,0.00296713061077406,0.00196733975093391
0.00320434337750258,-0.0176055034892669,0.00619901136768391,0.00373777239864593
0.00664195405708079,-0.0163646945478109,0.00462041103066205,0.0035673166019531
0.0108723784813007,-0.0122673478662574,-0.00104734158920395,0.00143126170214202
0.010856815868868,-0.010790433617967,-0.00941909678321126,-0.00100906719665524
0.00443918667529798,-0.0119135243031144,-0.0152157155178477,-0.0020699580523562
-0.00322383408067124,-0.0132494793555602,-0.0125561760390221,-0.00121380694520421
-0.00960702334753644,-0.0185043560476688,-0.00604236729036394,0.00137869116974284
-0.0141695228058018,-0.0260923363439679,-0.00158160536560737,0.00423050164046803
-0.0151352508920395,-0.0271626948788875,0.00163929904167364,0.00540441712506988
-0.0122679516291793,-0.0234324796754661,0.00524799905894448,0.00532605051296331
-0.00627788503125103,-0.0193608339821507,0.00611272247393844,0.00661176956894236
-0.0034516274417157,-0.0193989875705547,-8.0401467955593e-05,0.0100324230911053
-0.00870151308630263,-0.0282860132694056,-0.00901430363723148,0.0119930642493623
-0.0146365170267988,-0.0289370690647607,-0.00982996033525059,0.00859527597286548
-0.0124342744961058,-0.00603064379672713,0.000974873327154235,0.00109039045956719
-0.00572469262510636,0.0151658777908506,0.0121132722715175,-0.00621426128379969
0.00119944982956825,0.008916263509345,0.0109599837350073,-0.0108484990856965
0.0118405898557402,-0.0167008993714342,0.00101829925881229,-0.0123272385860981
0.0246318028421303,-0.044855651295529,-0.00429339167127856,-0.0110667213383384
0.0348986257237166,-0.0642468650424402,0.000772342741261785,-0.00839350890072497
0.0407315422138457,-0.0729307310281141,0.010912150667276,-0.00544486771820267
0.0434821978257562,-0.0796553184599706,0.0154215987640172,-0.00267054215312839
0.044815212761541,-0.0873917945589463,0.00310875662069473,-0.000677009762203629
0.0489343194292335,-0.0845865545829546,-0.0156530949208965,-0.000125772063559605
0.0565753000718684,-0.0675349184777006,-0.0242897218986056,-0.00045157000988983
0.0622326643858496,-0.046292680990991,-0.0263407174066971,2.5030706362044e-07
0.0667293832911415,-0.0271181339383129,-0.0258419325824367,0.00184975696360644
0.0634582950346959,-0.00854544089021277,-0.0208336026505489,0.00451420011275529
0.0429508388535055,0.00792535251435041,-0.0146693803089198,0.0072357925530008
0.0202641845275557,0.0156535263338777,-0.0128553613619245,0.00884488234077564
0.00725955883063485,0.0176126546511212,-0.0123847507838659,0.00850766882904278
-0.00374010681860205,0.0224437291366605,-0.00337724284980156,0.00653405698730496
-0.0153565208876485,0.0315905027786067,0.016120933900239,0.00414767024097793
-0.0287419037805351,0.0412078469082412,0.0308443619519813,0.00244109541080395
-0.0445273910653217,0.0426238456755525,0.0287814225958536,0.00116951478617057
-0.0634182879524688,0.0301466786873469,0.0183670582230947,-0.000138111425853942
-0.0874552795240588,0.00709701138830843,0.00966015772486883,-0.00102842363113146
-0.0936390484230535,-0.0171789208735802,0.00459337663565114,-0.00100272551389953
-0.0618817887711487,-0.0261998192047684,0.000862855006364197,-0.000124405408472539
-0.0157829052005574,-0.016406777726803,-0.00377755568229986,0.00103716751803658
0.0161782402631734,-0.00504188134226775,-0.00523513614901892,0.00159659246723108
0.0320779012103381,-0.00275145926439078,-0.00277650259443703,0.00106934583909892
0.0405293955378612,-0.00619710371879274,0.000455290656178671,-0.000139030428234923
0.04430634867848,-0.012022365315607,0.00466145123908031,-0.00132485407556342
0.045147240853465,-0.015949993587719,0.00786266667047818,-0.00220793539235093
0.043124271572486,-0.011604671189381,0.00628546951553362,-0.00270471744659563
0.0325472938798198,0.000868539063018207,-0.000551467167111207,-0.0026980972086143
0.0106596597847857,0.0187928913453195,-0.00605123198591854,-0.00247830966103029
-0.0158968153307868,0.0390788647370379,-0.00518893814440427,-0.00213336184827325
-0.0358125064434749,0.052743936043893,-0.00508426325694384,-0.00125993374368602
-0.0445386827738956,0.056277198114351,-0.00751314597815228,-0.00028399781453386
-0.0476295008617948,0.0547993823804128,-0.00751411172264701,3.2911521764282e-05
-0.0505763203008614,0.050874632157157,-0.00642252193334288,-0.000152923686714491
-0.0521210258626085,0.0461772078488374,-0.0062955878115691,-0.000226996676827721
-0.0503396013259761,0.0464923226853055,-0.00495367183474946,0.000190559072234375
-0.0457780380966811,0.0501559840472311,0.000412323508395439,0.00108992084140742
-0.0400990260084891,0.0491184739912636,0.00460501849338809,0.00199675416709975
-0.0336451350171855,0.0427851738501265,0.003633948040867,0.00208391853425054
-0.024171762965147,0.0331216601606807,0.00205142822765962,0.00107438539035595
-0.0128219931543492,0.0212852836044698,0.00247045925197263,-0.000119505965733524
-0.00545380513341978,0.0090280475386384,0.00630624736444441,-0.000397232968576977
-0.00877058263925573,-0.00287537705980109,0.0157762687999522,0.000223019786276663
-0.0195351047341072,-0.0134584412952628,0.0273086910948575,0.000764038315930815
-0.0219378837566118,-0.0143719624647786,0.0312236298637243,0.00057144145991554
-0.0116259381034613,-0.00340524215970242,0.0248499180227208,8.56995265088203e-05
0.00225762348864361,0.00277380699261011,0.0155896861957651,5.71202780790684e-05
0.00785529119678105,-0.000772127995282861,0.00812353080524861,0.000449370607297035
-0.00292690469472356,-0.000420009264351866,0.00361621775713987,0.000591076493014176
-0.018234029245063,0.00378100785184559,0.000147173641106134,0.000116999779475923
-0.0170361968528756,0.00451941213652773,-0.00164459354784403,-0.000676369568550813
-0.00201676325293425,0.00712459315030916,0.000554663799395918,-0.00116724567225854
0.00728833261515626,0.0221703253673786,0.0025306588489643,-0.00127162764966752
0.00664472934757855,0.0450842827749021,-0.000123897889387794,-0.00156161539847755
0.00491942430001253,0.0543418899517903,-0.00626669341788183,-0.00211529371395918
0.00710167400834853,0.0400311465576409,-0.00742610277408256,-0.00264453280610635
0.0124943769850185,0.0142962486818131,-0.00377925750685681,-0.00281662960129422
0.0142620822781576,-0.00835927080645412,-0.00703351909554937,-0.00225388443920973
0.00899414554643847,-0.0240664122487103,-0.0147373109018495,-0.00164308264373019
0.00605174054988258,-0.0325689786406495,-0.0184454261956997,-0.00173856263363508
0.0110207446232402,-0.0331496207162705,-0.0201996774365258,-0.00168461343880143
0.0193034774345964,-0.0291956085510415,-0.0190538679667446,-0.000734957120446379
0.0257915441306151,-0.0240698703274477,-0.0114437130917384,0.000577465498477916
0.0282283380466512,-0.0166303936328992,0.000803869614048398,0.00196915549898619
0.0259503919782284,-0.0114068258710974,0.00906822573318057,0.00324280827999751
0.0211892881257696,-0.0140758903250217,0.00513701372535256,0.00298264542378385
0.016502037616071,-0.0142410214943131,-0.00239539292822308,0.000416804761766843
0.0108306506224671,-0.00594119399541265,-0.00271708250317758,-0.00250362052666967
0.00357106380280563,-0.00189694680784893,0.00152272176633934,-0.00324090507802788
-0.00122845638120667,-0.00774731124221589,0.00748697712786676,-0.00127923981664775
0.00171677949695993,-0.0180249813325351,0.0128562814503533,0.0018455912076758
0.00668341769320181,-0.0255940242323381,0.0139426862890745,0.00414441039363665
0.00620650259593445,-0.0239063353238615,0.0128550063968175,0.00487717003364942
0.00566848131479412,-0.0111808255601426,0.0112646798470576,0.00413212109784962
0.00866444837760214,0.00541674256660651,0.00648783821981016,0.00216016150947198
0.0127101237877883,0.0105511001529548,-0.000667276904375687,-0.000293256905332737
0.0183027078989599,0.00180876010743854,-0.00580508345654363,-0.00214930307742002
0.0266797322831141,-0.00585142738984069,-0.00670615973822148,-0.0024446438399074
0.0359430300564516,-0.00599200958246354,-0.00488876535385279,-0.00128311951401364
0.0413109638073092,-0.00601387893583879,-0.00565232175129278,-0.000325909220732903
0.0396863185976992,-0.00975954126450155,-0.00981416302871429,-0.000886075854305076
0.0335128431558079,-0.0106253419909633,-0.010647479624216,-0.00231133653385316
0.0252789663806374,-0.00588498900642923,-0.00751562576306674,-0.00292198947405698
0.0107069146797441,-0.000277920074555502,-0.00428590518226738,-0.00170151803666856
-0.00772252667915863,0.0105190647210647,-0.00243131398234148,0.000852325829996487
-0.0103355662836044,0.030193927385428,0.000612842321006601,0.00348928356428298
0.00555230136030857,0.0460981093207583,0.0096436590567145,0.005403541727543
0.0150895006721708,0.0405976972112732,0.012937378410644,0.00599383167982248
0.0121927186069704,0.015357706025906,-0.00193758760363847,0.00423536343735069
0.00850580935254906,-0.00764249881604192,-0.0185369799777438,4.49467059627194e-06
0.00204737933567036,-0.0191475121064407,-0.0209856952545497,-0.00450021442144736
-0.00410399704884713,-0.0190675387055076,-0.0172519418886199,-0.00700670688221702
0.00319580368620901,-2.22925422661922e-05,-0.0163609154626499,-0.00750623249087354
0.0163487185537062,0.0269744348121336,-0.0148352983344195,-0.00640917869837122
0.023570835674121,0.0343699486885272,-0.0104283744622589,-0.00374220259578649
0.034536972330752,0.0164602391930622,-0.00601468609153052,-0.000767750581319983
0.0512995156622075,-0.0101847629429975,-0.00238795217524526,0.00100405246898138
0.0546166168541571,-0.0315984516274721,0.000216829694862326,0.00143975730422962
0.0358912155252281,-0.0373998084547946,0.00323709254397688,0.00133785457638114
0.0136106198491996,-0.0221585888512747,0.00486905581616532,0.00117924001184988
0.00646668190067369,-0.000616958047744767,0.00260945280147152,0.000885367449254764
0.0094137725802704,0.00941618292745906,-9.81086551467125e-05,0.00050654273552878
0.011781929635399,0.011366916421358,-0.00126862514351236,-7.80496733439054e-05
0.0130057533899756,0.00975802235897845,-0.00101709669571391,-0.000579250823081847
0.0117393289336469,0.00403542827070439,-0.00183186590810801,-0.000318926386974196
0.00509672183041748,0.00215640116982358,-0.00524016938457573,0.000462585395948676
-0.00475704994453542,0.00567782720525539,-0.00743420206491886,0.00165343194264695
-0.0151520343935995,0.00460871807854577,-0.00623995622063606,0.00330013901069088
-0.0211426382084631,-0.00482249179120894,0.000258578532627301,0.00419981735206938
-0.0187755476175265,-0.0193954184305276,0.00571288425038587,0.00316543178704337
-0.0127737332240108,-0.028450662267134,0.000801964424962799,0.000570881194661328
-0.00301631574480464,-0.0188969421718176,-0.0073443519749313,-0.00217609075806898
0.0115255624311227,-0.000237763373406176,-0.00757879768776536,-0.00389703403355267
0.0224728902379296,0.0130564573801321,0.00173698874419884,-0.00438258259587548
0.0262071325015953,0.0223012603137513,0.0108124497080898,-0.00388022647689942
0.0237651087650384,0.0229746087140971,0.00935671510035735,-0.00279956459344864
0.0167405213970261,0.0103714344399117,-0.00140975264812308,-0.00174119872675562
0.00901646327419842,-0.00729277496508546,-0.0173088941100984,-0.000924941249272321
0.00594771561527014,-0.0187559324374851,-0.0290190107216684,-0.000815077354107643
0.00952422619074102,-0.0144611477099528,-0.0240282922998968,-0.00200819652919144
0.0129368574650452,-0.0038896026131491,-0.00877784146640868,-0.00339455214894357
0.0147224193492294,-0.00926890183992158,-0.00128219532989284,-0.00335795960539672
0.0191589319583946,-0.0276118252876257,-0.00438863849055502,-0.00222312080214823
0.0177213954883591,-0.037572529209061,-0.00556116183619785,-0.00111900615352374
0.00360368346371329,-0.0308939429091274,0.00317572156072054,0.000203649493158633
-0.0104789023419205,-0.0233972952709463,0.0149364661196194,0.00259706673653635
-0.0163794187541212,-0.0255089527686969,0.0186817011003886,0.00550896183738851
-0.0200255111626628,-0.0243886895625122,0.0139546149267812,0.00722967594067531
-0.0291952890021324,-0.0185558431476618,0.00606834529870548,0.00664327111282979
-0.0448820377807895,-0.0205417557491998,-0.00531909851231969,0.00427304497346939
-0.0550208582366439,-0.0288669557447898,-0.0158312482089399,0.00165425371264551
-0.0482631503069232,-0.0359848214618222,-0.0178356888478864,-0.000267391007783955
-0.0241447899421653,-0.042241467621237,-0.0136762238014612,-0.00147411119462997
0.0057462942399252,-0.0461531864985974,-0.00872361359387216,-0.00173948123512856
0.0235604092153519,-0.0491271567755,-0.00645768659232583,-0.000832402404537845
0.0222746339557271,-0.0576500322435522,-0.00475395259172321,0.000660831914728753
0.0114452560979001,-0.0651218794537991,-0.00404318899604316,0.00175114453256415
0.0117420696127591,-0.0513576308014792,-0.00577819379980026,0.00166777084900878
0.0296270154099579,-0.0194550598613121,-0.00258355938570606,0.000676902528325628
0.0446729754802622,-0.00875142516731116,0.00295206880301187,-0.000187417354417049
0.042267708175308,-0.0342054374408092,0.00179481871293611,-0.000466373983561674
0.0332064756091522,-0.0654194498733308,-0.0032198262534474,-0.000494118971507596
0.024034083825566,-0.0750067661683452,-0.00443565185031558,-0.000729280560524821
-0.000407950591466241,-0.0606579148548147,0.00127664636946656,-0.00135138157559292
-0.0407597583649543,-0.0307733132932891,0.0112698140182794,-0.00207079737077115
-0.0668099120420455,0.0118229420502178,0.0166886078608968,-0.00186277411761009
-0.0576004112048506,0.0562963492978331,0.0123025633924072,0.000214026715064126
-0.0276996517563719,0.0708126597946969,0.00385001431829361,0.00358052221548188
-0.000801186899826931,0.0410890685925993,0.00124430416938689,0.00634969452715113
0.011337508571709,-0.00387795096397349,0.0087059111879184,0.00702759284613942
0.00427313976290046,-0.032432147253344,0.0162272664168564,0.00552254648290333
-0.0168921902672843,-0.0286018980768495,0.0107390720754501,0.00290008456958066
-0.0334418012478602,0.002517760068642,-0.00427979520045369,0.000507371964829233
-0.0304590574128037,0.0272887144363022,-0.0153688671606237,-0.000816057082408333
-0.0162896100420335,0.0309617731220675,-0.0158571142739302,-0.000621993164022921
-0.00555888225510384,0.0169685448302555,-0.0132769262713153,0.000848027385086514
-0.000859752507110456,-0.00730027164520054,-0.0177590068927074,0.00187407002728935
-0.000253423083573678,-0.00761049328200412,-0.0217508578571176,0.000963939524396289
7.647434891489e-05,0.0192012697837103,-0.017402686181889,-0.000896027453020307
0.00389959967954798,0.0292179041855298,-0.0128137027892801,-0.00205302045846833
0.00542271922570549,0.0138279198105995,-0.0121380141371462,-0.00233481269579041
-0.000817675473526555,0.001138268576145,-0.0100011548139489,-0.00223717691095271
-0.01133132731464,0.00401040567060366,-0.0038256632657775,-0.00196987849606392
-0.0190641309725541,0.0154073094827653,0.00408789921878609,-0.00110697113997186
-0.0210779606066167,0.0221256648653695,0.00914058783169631,0.000755260376490401
-0.0237685843906659,0.0158624440374235,0.00919742283163767,0.00295227739217321
-0.0326385787099857,0.00424122569110476,0.00764625291503532,0.00460004746664064
-0.0424952142692487,-0.000860157350778986,0.00663654006058348,0.0053058917584359
-0.0453156037900836,0.00278436025108763,0.00536539552213408,0.00488981865244947
-0.0429297162304206,0.017625133484789,0.00508873402891845,0.0035589126367774
-0.0393373103128724,0.0449876031939113,0.00730306644993833,0.00187285059836666
-0.034302005828397,0.0794566844925909,0.00874877520029378,0.000153132582138737
-0.0293423234867508,0.103631129961775,0.00581662764957481,-0.00205972244605443
-0.0252743731478858,0.100246622025951,-0.0019198535327334,-0.00472149586961777
-0.019942845497986,0.0787394963071046,-0.0151577731114673,-0.00644953748527069
-0.0125302264792315,0.0579549879293394,-0.0296132329573778,-0.00633781981921275
-0.00612214927414794,0.0448600943240247,-0.0358733663075773,-0.00510007203771093
-0.00443506262425919,0.0379338928952812,-0.0322199241332586,-0.00394929352983789
-0.00713489389161587,0.0363808342153434,-0.0240030318355768,-0.003151892723641
-0.0112150285353608,0.0418322160852611,-0.0125973557390872,-0.00199952237085507
-0.0133065319265445,0.0494937718102902,-0.000838320664139927,5.8493170463839e-05
-0.00889134468394847,0.056052933210669,0.00505527174091422,0.00242649180508507
0.0015144464111676,0.0595876943750804,0.00572543023874196,0.00404897255305367
0.0100304762502789,0.0527539727034651,0.00454089224604053,0.00472848903273545
0.00753587023194107,0.0400431800190563,0.00316969571295621,0.00465166838539814
-0.00311141786519985,0.0327419738554256,0.00235915932285149,0.00369957133479252
-0.0057361562988425,0.0233251203083962,0.0023515606838284,0.00163333084829472
0.000995533798647169,0.00171483906815016,0.00550235635029151,-0.00145489823577105
0.00161052547949081,-0.0192780189486598,0.0144917620300498,-0.00456884565664643
-0.00472572316279522,-0.0207640323952757,0.024464075837503,-0.00628246750456237
-0.006603430598804,0.000596585248776716,0.0240449322994582,-0.00606908897327264
0.00308364384804942,0.0194835885453407,0.0144935746302896,-0.00458672080630348
0.0210434135030061,0.0126533542597087,0.0103387567321893,-0.00293232819929731
0.0273335930390457,-0.00120779062480471,0.0132251748347655,-0.00199636002349177
0.0112937253311004,-0.00726826667759271,0.00955146536492697,-0.00201346603037771
-0.0126384053535856,-0.0136440778004735,-0.000420251683276258,-0.00276906816804327
-0.0252422944953218,-0.0111841385628312,-0.000237357134441889,-0.00375898082860615
-0.0196142388293609,0.00427107552806387,0.00974385610533761,-0.0038956043677377
-0.00291442931488642,0.0171448998020155,0.0188664199670145,-0.00216570743311183
0.0132329364060888,0.0203234332888801,0.0259813780946898,0.00084861707286563
0.0215623817026458,0.00980660168913572,0.0247102188413547,0.00325319676753899
0.0250155719580608,-0.00517797115290966,0.0134228281542325,0.00339352251710167
0.0360366166126227,-0.0106127404195594,0.00489137260548565,0.00120718841870092
0.0538493892653677,-0.0127214548259449,0.00435769969940013,-0.00137139020935961
0.0598375262408566,-0.0151803111074197,0.00668102461513977,-0.00271019730859434
0.0513588727287544,-0.0152833330649945,0.00995154275159039,-0.00286169732190273
0.0396792246899531,-0.013079703706568,0.0150226223624401,-0.00245441364728233
0.0306048364477198,-0.00827812931976495,0.0184358427079786,-0.00193858773458328
0.022132509147083,-0.00366251676587651,0.0159217244491714,-0.00134467994120563
0.0120968788385931,-0.00240299381564267,0.0127721051270408,-0.000873790342253846
0.00620993991599463,-0.00355828070594658,0.016439969975984,-0.00116090134440722
0.00656127324179021,-0.0025629647167551,0.0230216543823945,-0.00204787152867749
0.0100267908599919,0.00215394920542994,0.027605479635098,-0.00250235371271098
0.0108148040138921,0.00470909704354193,0.0295809561482238,-0.00178281113823891
-0.00140586797680177,0.00141474680848961,0.0285105545249638,-0.000247010837136778
-0.0275138388438019,-0.00726048146455058,0.0259188297398195,0.00108949924004857
-0.0505375959691771,-0.0249879478981518,0.021443772810314,0.00187841768954755
-0.0543717054536569,-0.0409523270355147,0.0144662095844487,0.00228518004820285
-0.0376572879285593,-0.0340094149506092,0.00933818279485321,0.0028583980777368
-0.00728714380820859,-0.0166752901473413,0.00760132032017102,0.00520992260587883
0.0212594184728478,-0.0143733283856227,0.00534639282270735,0.00963237743389666
0.0340622930398809,-0.021887829503818,0.00253041698354124,0.0123237427340361
0.0339967916434607,-0.0240770467640443,0.00106972127057474,0.00923707360225626
0.0324206055398061,-0.0205558458698762,0.000202481527904989,0.00147121526669418
0.0340807622442254,-0.0169719463010127,-0.00186487400859335,-0.00630247293229182
0.034863320351538,-0.0170105607113596,-0.00540485007865224,-0.0104834245830391
0.0306020689888842,-0.018786942595238,-0.00839855990567137,-0.0105467332118947
0.0197900989155255,-0.0172992497224884,-0.00962329659111437,-0.00816302490724594
0.00662299226996431,-0.0128402361188746,-0.00763197337890854,-0.00529965713804746
-0.00452941845919513,-0.0090358224168281,-0.00294554204322048,-0.00282759402691241
-0.0152602210675258,-0.00773197896781444,0.000161817164997018,-0.000793508331810308
-0.0221744479211335,-0.00651934676043329,0.00187889032956234,0.000724670986019199
-0.0230590514094616,-0.00120709439175995,0.00271242587583637,0.00188476178690039
-0.0227311343137816,0.00758330712313656,-0.000905443380231504,0.0029996849481931
-0.0216730685551659,0.0146231504554978,-0.00601783696082794,0.00421960968011199
-0.0196318501982353,0.0118499396870962,-0.00504846891093327,0.00572923187399675
-0.0189566570497871,-0.00384481019121262,0.000406489937824159,0.00746411695176962
-0.0162881223355792,-0.018758482203076,1.4919561069917e-05,0.00838531211117392
-0.00836065794154733,-0.020392728182039,-0.00733080842046956,0.0073446442199276
-0.00161473310665241,-0.0106829972981486,-0.0117429771743535,0.00470819913562427
0.000339893363761494,0.0045981863528822,-0.00807840901858961,0.00197923196005307
-0.000283229053356353,0.0170999125891307,-0.00416966960928316,0.000261590028040968
-0.00132897094615677,0.0201944962274629,-0.0069284034137314,-0.000640624702083384
0.000423084574133759,0.0158939037259871,-0.0102813833935996,-0.00128460213484155
0.00384954594513945,0.00904874947322482,-0.00983677088747453,-0.00154101238831016
0.0095849358346752,0.00126887246148165,-0.00872760203066366,-0.00140347883244908
0.0230089655236978,-0.00846816755551038,-0.00896856023966501,-0.00113591352359653
0.0395893790471205,-0.019889445278402,-0.0099294302002047,-0.000860680603948404
0.0459756103887217,-0.02141391280252,-0.00954954386404024,-0.000633986993942847
0.037050501578057,-0.00541780139915878,-0.00421394579032422,-0.000109258641318547
0.0211202429767034,0.0082215913652926,-0.00117247291827489,0.00107742570836152
0.00980414016510922,0.00296380615748916,-0.0121188158968213,0.00217979993706647
0.00516576941652454,-0.00855139897588529,-0.0270827386162078,0.0019915682932562
0.00427130686065917,-0.0114155295484779,-0.0310514985918213,0.00042813517158644
0.0034517926739509,-0.00265563730432083,-0.0245152331830727,-0.00157742923344095
-0.00493878965846023,0.0116589955017338,-0.0157855152383071,-0.00307955434610034
-0.0234270330776406,0.0224465058980359,-0.0138259749368802,-0.00379563451663692
-0.0461755932447311,0.0313475444162431,-0.0146492748992533,-0.00409918915707978
-0.0672533715357967,0.0432625521190091,-0.00701071193828924,-0.00380994896054347
-0.0797358337450862,0.041565695529509,0.00381556862808515,-0.00201940988373063
-0.0771500662766065,0.0143676244256521,0.00684993592313075,0.000962843176947658
-0.0582052977326943,-0.0162315559953438,0.00483240858058387,0.00344181597282437
-0.0215629504473246,-0.0349698696532482,0.00121190883805821,0.00386863002577146
0.0243116211194791,-0.0468438142604991,-0.0029975522107158,0.00194705788660144
0.0568542291881161,-0.0549254171284452,-0.00370812965489545,-0.000817524747644481
0.0644744679273767,-0.0502070859212207,-0.000725942124921133,-0.00260205640286684
0.0583008950140359,-0.02574089769461,0.00513471243807643,-0.00268442569051601
0.0489648823184248,0.000878514697045675,0.0125164937506812,-0.00114098471296614
0.0344468401358469,0.0106944837507454,0.0207108465224564,0.00103186109079558
0.0175938761915016,0.0064286677526432,0.0259821090550471,0.00246520221007957
0.0061511234384802,-0.00128898417909457,0.0191777529925015,0.00259320235455227
0.000757386149437392,-0.0080443326848124,0.00706987821320448,0.00145285556968185
-0.00279237068050128,-0.0139657948437489,0.00264278234455658,-0.00052822084121843
-0.00810475179864698,-0.0162804715785796,-0.00193737446584185,-0.00242597933224151
-0.0130499995404333,-0.0118753721281847,-0.0127106168558148,-0.00378929797220011
-0.0141288542204119,-0.00398704811063391,-0.0182771085664819,-0.00475714475039498
-0.0129269085467563,-0.00192262785487271,-0.0118851805713616,-0.00498849259155149
-0.0134499599288743,-0.0110289713382208,0.000212930543576287,-0.00395262052452261
-0.0132673733964876,-0.0217420037418342,0.00899324080088106,-0.00194453115777994
-0.00611827695313253,-0.0233055526137118,0.00840643110701625,9.21493793945641e-05
0.00493703569985592,-0.0213949306772066,0.000151381660672526,0.00158373095373795
0.0128631994224028,-0.0287863017774882,-0.00615249574776582,0.00250673208962555
0.0148007856840794,-0.0452711599480995,-0.00651985572867197,0.00281235311072209
0.00875663872343729,-0.0585713460285081,-0.00422236403309059,0.00246939695094255
-0.00628272331893835,-0.0623970524823532,-0.00155677942456294,0.00162386989692542
-0.030173961503142,-0.057562444991221,0.00143224369207781,0.00023216485639518
-0.056067552527189,-0.0400013986559212,0.00579427097290837,-0.00161023739746636
-0.0681701625054189,-0.00986992889100241,0.0072674316306872,-0.00298060639664637
-0.061775961801398,0.0153756109850068,0.00451269101888541,-0.00281099757077101
-0.0491992141483737,0.0238439325487296,0.00781220135796984,-0.00101814036827407
-0.0427308932697057,0.0224729298938345,0.0152966306398857,0.00159266585002962
-0.0397321731880602,0.0296276183603503,0.0141242135138539,0.00334228654594331
-0.0306470383320264,0.0536748977470303,0.00663663274216535,0.00298664592756006
-0.0151704527139135,0.0736360520631362,0.000109396771025776,0.00171762365069584
-0.00147964605340115,0.066526495469875,-0.00547745503628533,0.00132571434371721
0.00244041749535494,0.0354036337596411,-0.00827611262201068,0.0015265868334245
-0.00347141269185481,0.00376470940407325,-0.00563022325337064,0.000795492665605028
-0.0109786159507714,-0.00809737986908927,-0.0011429542120791,-0.00134472648193194
-0.011534524260685,-0.00125464517167656,-0.000546069930172397,-0.00368024114502968
-0.00287899653711781,0.00847493317463453,-0.00301329947155179,-0.00443887806405338
0.0112526159601092,0.00967893754363575,-0.00663251076046921,-0.00308282435224689
0.0260544194865161,0.00438403338157514,-0.0115840094144335,-0.000611541214929638
0.0378653064820319,-0.00022900912998508,-0.0151165798889272,0.00164681071454449
0.0421682978755078,-0.00428940033969736,-0.0136580097673117,0.00300314934808058
0.0371479699780374,-0.0106171083269346,-0.00932980817716345,0.0035508957716146
0.0238578262301647,-0.0121180955861218,-0.00592875516110701,0.00338698174525179
0.00676129859439234,-0.00343624955204045,-0.0033619193916467,0.00264766507080928
-0.00640516444599841,0.00594898076899987,-0.00266715900357127,0.00193807064339792
-0.0160365290893077,0.0101120331697724,-0.00378376781815804,0.001753409070463
-0.0248030605155472,0.00989120421342142,-0.00638344307500009,0.00201086592336824
-0.0305652398062115,0.000759824404622779,-0.00756834153109513,0.00214966897660359
-0.0405591271373588,-0.0148935538113132,-0.00194741742876381,0.00178682012483731
-0.0630305430398901,-0.0223685189612558,0.00713498845313493,0.00109729636165658
-0.0791092982339073,-0.00678436800299381,0.00760470481740416,0.00029383380586725
-0.060949680388549,0.0234768462208395,-0.00326944218078232,-0.000369135789782528
-0.0199026097498819,0.0419187398239756,-0.0147737690285168,-0.000612064880728989
0.0119853964529856,0.0438073463894251,-0.02048550263449,-0.000628283329955003
0.0219596251168669,0.038343299474517,-0.0218327725174569,-0.000675220035983794
0.0158536656841488,0.0358093726782493,-0.0219173569420338,-0.00073193102945528
0.0106747605076537,0.0457766291079525,-0.0217839941782983,-0.000847169617617487
0.0168541312583357,0.0579426627029535,-0.0222395719194876,-0.00102053327163024
0.0316017235811954,0.0521904990593566,-0.0233287671317737,-0.0012406970457866
0.0483420400902707,0.0280484809257701,-0.0140373568835834,-0.00134171510554904
0.0511550977516654,0.00311377855797256,0.00372974634835063,-0.000777538742603934
0.034447004610247,-0.0147832984225865,0.0106841696419591,0.000142718739950364
0.0171189354975588,-0.0276060026284153,0.00932861364423278,0.000682797278327752
0.0110769884315412,-0.0314781211072374,0.014512247734344,0.0012646559117165
0.0116728311732757,-0.0286692203771715,0.0252956008455949,0.00249001600101349
0.0134351754931906,-0.0312499350756282,0.0328249998752637,0.00394881420031094
0.0179691549762941,-0.0368905959801857,0.0343296284470276,0.00460473522178195
0.0250788121863684,-0.0347009061356404,0.0292458459381473,0.00391909171316019
0.0255957654587965,-0.0298755561501139,0.0185456439362219,0.00222166447207468
0.0160822146460049,-0.0313284913807057,0.0070807988254921,6.00144229490765e-05
0.00276085754783093,-0.0347800536519896,-0.00211693978198922,-0.00216500069771233
-0.00943205371388732,-0.0348073445118175,-0.007423227797932,-0.00400957751980488
-0.0218424822489041,-0.028166121109177,-0.00465332988931291,-0.00469355228271248
-0.0369242666487788,-0.00542232953019479,0.00406051944618303,-0.00367603982912523
-0.0455232790829112,0.032674172642041,0.00881189738798029,-0.00148417169087584
-0.038447192005058,0.0616906762887644,0.00468603727572932,0.000394593131394056
-0.0186103281467747,0.0643880884129946,-0.00444901350635383,0.00056412765039692
0.009391942944354,0.0480505006338142,-0.0107766741225295,-0.000723471271271474
0.0353877144498265,0.024756827931454,-0.00900076689359461,-0.00175058301762744
0.0449585364724054,-0.000134459305641751,-0.00551940756985599,-0.00190099726141634
0.0392416454131189,-0.0216248024987752,-0.00670235956835677,-0.00198743691163869
0.0320107658756723,-0.0303407903093186,-0.00600129112965137,-0.00213955431084475
0.0283482344728892,-0.0252311807090354,-0.00162116079926227,-0.00166421245929591
0.0213506948723686,-0.017389753676204,0.00320365612188026,-0.000240635631054041
0.00773290700333539,-0.0142176788790117,0.0104389301314709,0.00185341997938295
-0.00893403560249015,-0.0120553575432564,0.0197755189068446,0.00402525521412187
-0.0213846526042874,-0.0082463404420154,0.0255165673399593,0.00555367114728798
-0.0163390859046041,-0.00602923142852065,0.0227935751740608,0.00582603506115304
0.00501079957833963,-0.00483376704837947,0.0134347389922418,0.00454215299835824
0.0216372137582068,0.000368256357372261,0.00367485293006437,0.00186761121089049
0.0259261395366052,0.0108433734037208,-0.000174821922016857,-0.001605332725581
0.0254375823429394,0.0219677836538751,0.00557664098193073,-0.00480606258775408
0.0219533405570824,0.0307510029916756,0.0173991351881572,-0.00652238471049348
0.014346719791476,0.0373621620256072,0.0262221422999281,-0.00651251959764937
0.00573122102574351,0.0419267927333929,0.0274413050379681,-0.00546145939491708
-0.000293911459634536,0.0442193781889051,0.0248583166872082,-0.00373305665321629
-0.00530629757922416,0.0454014081610871,0.0229589734697075,-0.00156106977755177
-0.00877661255441765,0.0484903454686577,0.0222867005411264,0.000336310860746549
-0.00540513858848732,0.047507048044515,0.0213337821372013,0.00143744702088263
0.00167982817176534,0.0333511934191804,0.0192921993283314,0.00173341335441553
0.00411409833168555,0.0154644125348837,0.0168718099915423,0.00129266107166394
-0.00319422060115512,0.0083827747839338,0.015140302188816,0.000431498277495853
-0.0154531689266453,0.00977335743577773,0.0180878755660393,0.000139856893066075
-0.0162826696257491,0.00427627832669596,0.0290201378905361,0.00144381676505799
0.000424624612662992,-0.0161775902430707,0.043590939515445,0.00384372463044932
0.02196788287181,-0.037025399249224,0.050070421389118,0.00549647768621688
0.0340781080443278,-0.0414097147809222,0.0368861902920006,0.00534890262679461
0.0395341708693877,-0.0307159991340937,0.00899447703688608,0.00392157488181297
0.047260026538632,-0.0163017514944397,-0.0106587231346502,0.00214243227827634
0.0523134039651159,-0.00547798806637757,-0.0115010711757049,-0.000113043320455418
0.042751845939539,0.00179994098243654,-0.00869526052500487,-0.0033683839786935
0.0134656091076879,0.00854136435502902,-0.010775786716645,-0.00652243638919872
-0.0262660630711806,0.0145422228117115,-0.00732211522314871,-0.0076955318302892
-0.0550192161800158,0.0163899125497108,0.00309253161542555,-0.00633508791449761
-0.0618867618177972,0.0129823159561679,0.00759375084819233,-0.00338474965493243
-0.0540312544418222,0.0103070487765911,0.00549454488802992,-0.000361147033552743
-0.037391034194245,0.0133268833512415,0.00605551502883691,0.00180010713887698
-0.0144804909959063,0.0145955375383897,0.00555338158389953,0.00302910688160866
0.0121410102203995,0.0111987545043995,-0.000942974417693969,0.0033869649999975
0.0361464084162135,0.013119485756879,-0.00416221867016222,0.00273029184619037
0.0468687667360583,0.0209934126124586,0.00125502804448338,0.00133479967821735
0.0409953343445628,0.0223215860042449,0.00561164739397644,-4.24036583239363e-05
0.0212812355339916,0.0119456939903597,0.00297860580262996,-0.00100336011389405
-0.00393469300897696,-0.00202798149618147,0.000639319091389492,-0.00147438008605907
-0.0189179664935579,-0.0121223415247317,-0.000748520043715582,-0.00119380468375841
-0.0207527833955642,-0.0211656962102761,-0.00648182967972758,-0.000311382902205846
-0.0212971685820669,-0.034159602624409,-0.0117510250902026,0.000521591096959734
-0.0264424779456378,-0.042138537158677,-0.0113670032364359,0.000909274036596839
-0.0347351182280153,-0.0336227804323069,-0.00930446803806122,0.000779344454923558
-0.0410718031615712,-0.0192949671293493,-0.0129272951386432,0.000213216639738595
-0.0373068612524943,-0.0163931056963164,-0.0202181903484645,-0.000600096886796911
-0.025365249781176,-0.020878546679346,-0.0221532198690694,-0.00136393419797295
-0.0214545845144662,-0.0209594623099938,-0.0194997748186346,-0.00193588780992882
-0.0311730989755551,-0.021184478519413,-0.0239249608957734,-0.00238807516450756
-0.0395140820275487,-0.0251557486779123,-0.0400534811082835,-0.00268367522394048
-0.0341581301001394,-0.022834338014484,-0.0560081106655786,-0.00267976470655075
-0.0196056983473707,-0.0147336287144624,-0.0585338306037032,-0.00243957835064431
-0.00620601722250692,-0.0112197842691293,-0.0470386725346683,-0.00195404072046317
0.000234537531668418,-0.0108650399280096,-0.0324679319481542,-0.000938093682972336
0.000330759085608784,-0.0109886694435013,-0.0268310801822106,0.000181057071144613
0.00154460458820741,-0.013273734908587,-0.0271672715017244,0.000674409046071849
0.00624684670509069,-0.0156751140941852,-0.0244961424995589,0.000707724209696832
0.00819041597899138,-0.0176088336895433,-0.0224759062520225,0.000732485337020041
0.00161019252451576,-0.0186839366281179,-0.0251909781556034,0.000830169015722206
-0.00958750343862005,-0.0162474399567912,-0.0266762856169429,0.000769397750255644
-0.016979508018565,-0.0134755968502261,-0.0249854494721139,0.000571538155783867
-0.0217955262193032,-0.0190630458260919,-0.0233978208728717,0.000469038421512572
-0.0261603787276274,-0.0342408959743197,-0.0233213706842526,0.000289799348751721
-0.0273601709342287,-0.0448974661360338,-0.0242774971799863,-0.000312181018430811
-0.0278195461906455,-0.0331878610536594,-0.0228244431130597,-0.00131874536381706
-0.0320038120283805,-0.005712759976282,-0.0198291417995509,-0.00194506421645001
-0.0360558455319829,0.00999637263349155,-0.0187597580304959,-0.0015111706272575
-0.031038384712658,0.000294969552765719,-0.0161333819734074,-0.000651681972831143
-0.0159086318030912,-0.0151290082099829,-0.00759169123079227,-6.6162751109751e-05
0.000929810169091489,-0.00962071619673899,0.00309544047887788,0.000606632879857016
0.010635730716569,0.00443203325135129,0.00746401195810677,0.00161724086640823
0.00919071259295189,-0.000165669961769047,0.00515961589943565,0.00252301065877253
0.00253424266594751,-0.0167032300103401,0.00714941269974969,0.00280247968815067
-0.00403765246269304,-0.0263603357916437,0.0150406122465502,0.00238168878960389
-0.0113227370269025,-0.0289334589704408,0.0211058286878373,0.00163710718534895
-0.0173701303898914,-0.0289571581202277,0.0242163891069826,0.000984720296623325
-0.0137083682030459,-0.0265357387648946,0.0200807274370337,0.000612255210308665
0.0041173247206552,-0.0284380649887589,0.00298272769946246,0.000491866691273482
0.0227351793823189,-0.0385804848092399,-0.0148070717945964,0.000297076593881928
0.0300754091433199,-0.0490155969191955,-0.0187165526096859,-0.000214602316403812
0.0302919637965398,-0.0523756721865494,-0.0149960162637746,-0.000784777700230147
0.0245998426935629,-0.0440708599287952,-0.0123645906549344,-0.000794614145537262
0.0198759870301169,-0.0275611858184351,-0.0102862396834783,0.000273336844598712
0.0292904997457187,-0.014726171200124,-0.00877803970593145,0.00212507090797103
0.0385427668407682,-0.00877258807086261,-0.00926804160747425,0.00369757700525417
0.0276243086074565,-0.000935441692900316,-0.00949573758210106,0.00407023515416883
-0.000469780372390614,0.0138518556879661,-0.00691279201785274,0.00352405832770071
-0.0236667067743618,0.0254386597365386,-0.00292629162013824,0.00271417161309058
-0.0338840851082392,0.0270264142772488,0.00324302811696682,0.00159859026543289
-0.0413592327321661,0.0243205512825324,0.0097630689396874,0.000396488482899018
-0.0387541469006912,0.0156814660070242,0.00611623570624395,-0.000365773157137368
-0.0120784360795244,-0.0108115114374867,-0.00641453930028262,-0.00078899493271188
0.0384263710917052,-0.0422217429430616,-0.0161746331755352,-0.00159411878002064
0.0909404262472,-0.0437990021708135,-0.0186974265997317,-0.00304694387711842
0.12617464363308,-0.0172273231096133,-0.0140599070173857,-0.00436092744171208
0.138261407072155,-0.002606287133092,-0.00438472806435883,-0.00461342547058634
0.117678410750377,-0.0306523235779837,0.00545322602248131,-0.00353990298855143
0.0958300996922997,-0.0805427564008344,0.00759736151798663,-0.00162331423995105
0.114225315263365,-0.108916098834603,0.0020593455361826,0.000576446462846229
0.132384088040024,-0.112441508609873,-0.00677413755029795,0.00288375154086957
0.103210581156481,-0.101376667306592,-0.016605607890218,0.00502482784461181
0.0562091377518465,-0.0725645187416962,-0.0201356867074133,0.00673235261737669
0.0255067799633441,-0.0450597415306045,-0.0173823758958904,0.00781611896460497
-0.0116671448748732,-0.0414340451009405,-0.0184092882867017,0.00723181922445435
-0.0868818051379205,-0.030101177711586,-0.0222933809011841,0.00328938650057849
-0.17165626965481,0.0393353256132298,-0.0224453447160281,-0.00338262225583698
-0.192960108535474,0.142162819041881,-0.0202241864992672,-0.00868507347849532
-0.131564376277016,0.192595731507018,-0.0188384154943254,-0.00924008463839544
-0.0471573417690621,0.151993789313189,-0.0147097344256818,-0.00581784522041789
0.0128165272916398,0.0623905083270381,-0.000644483162130397,-0.00169196810229058
0.0439131419225128,-0.0104999866981297,0.017961818830313,0.000776155784218085
0.0429188185359988,-0.0294715831318725,0.0272217649281383,0.00171806413010837
0.0225483865575023,-0.00824747731690348,0.0219786118005926,0.0021761178628117
0.0151387447923719,0.00546967847374339,0.00826971170199198,0.00217599354130058
0.0223080515931334,-0.00620285128999401,-0.00267488863120698,0.00133761648302052
0.0308968236130619,-0.0206824267228579,-0.00453337646137319,6.40082509409828e-05
0.0361468858230593,-0.0199931771475912,-0.000781254389768372,-0.000585411218175374
0.0281415310835795,-0.00845289810697838,0.00500540301974635,-0.000264226128552284
0.0103348423607394,0.00228786692051339,0.00869307337002925,4.06697734100323e-05
-0.00585487173229697,0.0134060778999575,0.00259428745261474,-0.000485785901880311
-0.0205289502216555,0.0294660176609595,-0.00656055485426062,-0.0015671412478352
-0.0322243975213046,0.0412603082990593,-0.00589269398543044,-0.00231939261791101
-0.0381007932441422,0.0419879868825364,0.00181649006729637,-0.0021720252473825
-0.0425636261278381,0.0383982795994557,0.00903518516679829,-0.00142032715755709
-0.0463941753195273,0.0372074260942322,0.0136828228224021,-0.000447410490432678
-0.0481159795372025,0.0418736677371654,0.0161620471264674,0.000888682941788558
-0.0542248954309589,0.0486031143631515,0.0172535622585551,0.00297929950283486
-0.0656038701040355,0.0485303476503206,0.0177482559287957,0.00517524011567846
-0.0783288060412266,0.0395196318818255,0.0173376671599795,0.00550179024846087
-0.091999410796748,0.0288164418098353,0.0173050119954619,0.00297923933989817
-0.102798330889172,0.0213142099077449,0.0223355046005687,-0.00115511994815514
-0.110069525876441,0.0137909526351743,0.0314895778652183,-0.00459288473382415
-0.115162112673891,0.00759408532117938,0.0382978215386016,-0.00552606051126922
-0.11267706323136,0.0109149557753968,0.0390475363511643,-0.00423707168799179
-0.101680679333638,0.0294078197373479,0.0341139437619577,-0.00259082563023665
-0.0920425750268823,0.0559517525831391,0.0308430897580236,-0.00118191228518771
-0.0844856557852319,0.0717703873127143,0.03420011558663,0.000679151021690516
-0.0734092209789603,0.0729439220696312,0.0379350598623019,0.00258945894789677
-0.0576068154251688,0.0724662705664939,0.034987858769204,0.00327952983886886
-0.0371754698813109,0.0684306055157253,0.0242151018336588,0.00252239136331633
-0.0193324661672302,0.0515901540821843,0.00916333974282799,0.00144286390274802
-0.00311503364838812,0.0293969705508462,-0.00509292437025933,0.00116629505962103
0.0222709900463015,0.00756641387573234,-0.0163667007745737,0.00150242595025286
0.0458487207109584,-0.0112937092343785,-0.0257109685057747,0.001438364025129
0.0459197126627197,-0.0142523681405273,-0.0301792539764178,0.000403927293269413
0.0349382856160776,-0.000796771155273369,-0.02931932264485,-0.00152073090687497
0.0424438881411105,0.0110551772589705,-0.0296636683710804,-0.00341683508284107
0.0591937883308231,0.00370134102311783,-0.0298427662033435,-0.00429120633014568
0.0570163777832104,-0.0180253716036697,-0.0212851624838201,-0.00445282557943357
0.0456664767382259,-0.0325873721459788,-0.00192435159320888,-0.00477854142562357
0.0442156124118743,-0.0355696083458783,0.0196303111104962,-0.005152295790839
0.0408191430990222,-0.0388132606713418,0.0346021256571251,-0.00455285164755796
0.0177265772780796,-0.0403219756467588,0.0395907733556815,-0.00268422990529127
-0.0266754280847896,-0.0250492473655501,0.0429500858716918,-0.00044026837294243
-0.0741483873469838,0.0158732446780279,0.0515368689810888,0.0012064457381053
-0.100864228882527,0.0688063491169484,0.0522237711059127,0.00197709018776135
-0.108977960350944,0.0837567972247833,0.0433742336698691,0.00242513702821714
-0.105899062176494,0.031642773493088,0.0344145396223337,0.00292820977967221
-0.081279407582784,-0.0495528268466154,0.0264273444332228,0.00326136721831637
-0.0430231226411336,-0.097812993766791,0.0265357996003326,0.00366456543206285
-0.0151825320606548,-0.0792688480326021,0.0373649512850231,0.00467881055350438
0.00441625874231588,-0.0303045729442396,0.0415468220841285,0.00627372803536652
0.0332155488241623,-0.0152892671732327,0.0236648575034758,0.00713785889829388
0.0649863957285798,-0.021521989430429,-0.00235819360755934,0.00519713632993449
0.0916182185792943,-0.00206054162470837,-0.0160367717111919,0.000337439317557958
0.122565229477928,0.030904244811138,-0.0196596183062297,-0.00532348788310452
0.14484843742108,0.0376482663823777,-0.0212794995209018,-0.00981920187491041
0.139880949181505,0.00597998129152832,-0.0185504889523496,-0.0121573211333054
0.125414317146779,-0.0319166052658713,-0.00498748328269281,-0.0122234136068005
0.123093680243113,-0.0426493580554339,0.0177480299273986,-0.00999264426672181
0.120694033142026,-0.0341819423021769,0.0405378089559712,-0.00451075352670229
0.10092997153256,-0.0255257474925492,0.0557314950939832,0.00388492674795564
0.0743935311343441,-0.0230645801897437,0.0617151153530355,0.0118981672044196
0.0451719304281589,-0.02670811584427,0.0587030680958165,0.0162628373590604
0.0134172584267705,-0.0383936745494046,0.0439778354144146,0.0161161138574638
-0.0110599883525611,-0.0600837391446278,0.0164166865683642,0.0122479000083873
-0.0343611591725756,-0.0868558559579071,-0.0155076102778799,0.00550266119973172
-0.0643912554616126,-0.107541397514017,-0.0331870504794202,-0.00294035983481495
-0.0916794898294539,-0.102625293690989,-0.0214996680715067,-0.0098531585473858
-0.094473395530263,-0.075222273585674,0.0133026825691532,-0.0117525568264327
-0.0815506893136053,-0.0504306108869875,0.0410636402310619,-0.00852697637731691
-0.0872160303113728,-0.0245520410268602,0.0402796748647266,-0.00302746052472146
-0.0919562343915605,0.0214574898888199,0.0208696555862802,0.00169620706852042
-0.0581321631158908,0.0670271621684616,0.00221556576424007,0.00443751827540905
-0.013988253153696,0.0722764245025163,-0.00747126138856994,0.00596430679238885
0.00415229560994046,0.0541705200518903,-0.0106495744085122,0.00686937751651214
0.0190186434024567,0.0536038743251231,-0.0135227909215031,0.0067817099657746
0.0550495036756099,0.070522097369571,-0.0154921710105581,0.00524412802842101
0.0976930665544081,0.0742062378171878,-0.0149238575122768,0.00325710782185744
0.12354196381192,0.0405486444002249,-0.0205254158907475,0.00249896653185426
0.116963440191321,-0.00669746647312394,-0.0307131955271975,0.000848154557159093
0.0833365742322553,-0.0315924851431942,-0.031926674560325,-0.00484552131558701
0.0410762928682424,-0.0372788520730388,-0.0262553251020532,-0.0118579715677771
0.00554865870936061,-0.0386878315285789,-0.0248321492203085,-0.0150708897535703
-0.0161374762136458,-0.0360178405005352,-0.0301110835674299,-0.0134502064059268
-0.0259143147644763,-0.0299635669449885,-0.0349566512642768,-0.00926359279823595
-0.0225035496790376,-0.0241770963387797,-0.0294913608244047,-0.0045902205252176
-0.0109650575006329,-0.0218217785196232,-0.0163934786076382,0.000120464740701424
-0.00852537354262721,-0.0215139512767501,-0.0127401806605576,0.00544701077028568
-0.0227735002740304,-0.0175964666611143,-0.0242302203510384,0.011839180881372
-0.038136487731244,-0.0109023866300066,-0.0387773958790122,0.0182227470486444
-0.0334767207778038,0.00462654958512144,-0.052611750554364,0.0209479169998277
-0.0149836410837667,0.0391811700998716,-0.0653609310498788,0.0165087003110443
-0.00753801989200237,0.0810387574737189,-0.0652022578368342,0.00673502211034967
-0.0188608348372285,0.0998720257729448,-0.0546518463305207,-0.00266940157238837
-0.0365714675375324,0.0837446614316791,-0.0516002103080358,-0.00836101362128739
-0.0465195456349594,0.0531524870329805,-0.0591001315109412,-0.0109291062929243
-0.0369787555943051,0.0321160501896383,-0.0666563367058773,-0.0121348786527986
0.00424453953279496,0.0212932384931916,-0.0684690144156047,-0.0126484310034579
0.0700375757074563,0.0161888909829608,-0.0652502564297874,-0.0120895611156248
0.12635411120614,0.0190177004117628,-0.0569520969950504,-0.00979561726433264
