0.00435604381713745,0.00751928094405489,-0.00483051547869067,0.00430743328875334
0.00583032535192621,0.011660531543767,-0.00313973721216445,0.00405187806683326
0.00944339437869043,0.015528173584205,-0.0029898318607028,0.00338552794556654
0.0120739047547478,0.0196922589786752,-0.00111922761313359,0.00304531335241779
0.0104733806526791,0.0230179974068478,0.000574811198088874,0.00266822059492264
0.00530092402104869,0.0275184480041299,-0.00122154035546818,0.00143056931065953
-0.000161737845287183,0.0318859433631851,-0.00372289742109867,-0.000287469434373566
-0.00573828650605048,0.0320822420483069,-0.00373835218365521,-0.00175559881555561
-0.00825080168165017,0.0264222630714149,-0.00194623185210877,-0.0026362737481229
-0.00209575377852853,0.0188613561943573,-0.00251443625538647,-0.00248037672975112
0.00948080174719831,0.0142186794104315,-0.00646681963870886,-0.00169286611308999
0.0180152896238191,0.00861941091832816,-0.00937284290867527,-0.00138179191699541
0.0163525210968926,0.00151388321397191,-0.00854483717491731,-0.00143654867022974
0.00659045214302488,0.00174576514711321,-0.00586202487096051,-0.00105830634893498
0.00214790472641662,0.00737574127639625,-0.00379607177127902,-0.000823909811842088
0.00822716194931374,0.00782141204038895,-0.00230999644990975,-0.00199147961189745
0.0135314854764333,0.00531105747358902,-0.000231013945395462,-0.00416734239400804
0.0108051828819238,0.00631065011260319,0.000931583978170707,-0.00549818668625204
0.00545841432853013,0.012214253824794,0.000547008790210955,-0.00485494137107742
0.00319125156415241,0.0272762767182533,0.000241319278721236,-0.00254680046028338
0.00595943289342882,0.0420008981090419,-4.77649765461413e-05,9.09003113525467e-05
0.0114872807495001,0.0323400730856051,0.00237206871975025,0.00175427791025722
0.0147463256455818,0.00185586414627861,0.00867740085081324,0.00245214160707039
0.00959947674651394,-0.0198276995275595,0.0140542611124424,0.00280849573984039
-0.00671844035980843,-0.0238995775618938,0.0152585914430986,0.00283536436307227
-0.0237221512202236,-0.0198749980609732,0.0133038865608297,0.00235963775608382
-0.0335929793187485,-0.0148199104471525,0.0113761509133294,0.00165443925959501
-0.0356640796969084,-0.0137160079285677,0.0107588399304928,0.00097919256724812
-0.0331197245139268,-0.0133985031015737,0.0104751926228151,0.000149035197372518
-0.0329614454615991,-0.0115349608658709,0.00805331760490135,-0.000916521618048017
-0.0310368954119488,-0.0160371676409859,0.00292369690951992,-0.00197347209491959
-0.026149367086385,-0.0261541539485794,-0.00134276689824002,-0.00258950947447457
-0.0236604398465324,-0.0227714257227299,-0.00663033426527517,-0.00205249387448426
-0.0192545231994236,0.000735843290997474,-0.0193245055242818,-0.000303669085655641
-0.00893607258466322,0.0233442392154296,-0.0350053668867825,0.00116863419253755
0.00186915655567182,0.0261972214375636,-0.0388659070418392,0.000971312365844912
0.00698429237915021,0.00908777324672569,-0.0251102138648248,-0.000149923522629907
0.0011848192838147,-0.0111681149791325,-0.00436838298773531,-0.000807024756828117
-0.0132371412900505,-0.0117529524524467,0.0100601685196417,-0.000745113431991484
-0.0213800559678078,0.0039536544714142,0.0130786154601161,-0.000378327100730249
-0.0134420079722614,0.0107428768662343,0.00791383500785137,-0.000227475468636232
0.00920413978440984,-0.00185726220652989,0.000547928431415696,-0.000292253733165184
0.0313563903038477,-0.0310273949474525,-0.0057817340507612,-0.000132411140893981
0.0293946009550603,-0.0776485910926316,-0.00664700953253797,0.00029860061860988
0.00700051116084885,-0.112228025938377,0.00185248023559254,0.000636132767298856
-0.011252509446707,-0.0792593445122291,0.0115203246978295,0.00071363447702422
-0.021790148000047,0.00680908641949039,0.0112379747407127,0.000626389725509755
-0.0301615313237397,0.0681034741435574,0.00307400095843623,0.00018503227115468
-0.0317852480223079,0.0735461315916091,-0.00245516012017378,-0.000480688834434637
-0.0279272968811117,0.0591003050938439,0.000651750069083854,-0.000479548220570199
-0.0239037738701087,0.0555195076206719,0.00628117770031377,0.000470890133020958
-0.0199481714482871,0.0578029170573084,0.00619078513816171,0.00148711522183326
-0.0168538957355376,0.0543469504141435,0.000416611216982242,0.00158473360263877
-0.016671151033797,0.0408856889848854,-0.00620899001190072,0.000793687749713554
-0.0169185174036659,0.0238909081359978,-0.0105297075021622,-7.83334683158604e-05
-0.0139071995783755,0.0124641347804494,-0.0122430554636928,-0.000503774272653789
-0.00865563466194271,0.00372019362280087,-0.0112259243083225,-0.000342944370355734
-0.00311994465907383,-0.00955460643097501,-0.00864225113180764,0.000379720403199068
0.00251112876036292,-0.0260706145460744,-0.0084088319970331,0.00120298220737149
0.00737988274442899,-0.0375978236200755,-0.0116980121699027,0.00160389080519821
0.00881875034183109,-0.0403986773143924,-0.01447986722611,0.00163474738803657
0.00761051984123801,-0.037811023075271,-0.0125350780040152,0.00152970693247327
0.0065608205922176,-0.0353993026444614,-0.00535040829636438,0.00115599116331971
0.0084838458482808,-0.0326871776551566,0.0032492128861985,0.000534540209047076
0.0161802935957098,-0.0214071345699738,0.00691032129472546,0.000230319171917402
0.0240437071588726,-0.00411938982907857,0.00371021574567645,0.000280440139452914
0.024145007562205,0.00688683521851267,0.00252972077451887,-0.000199683609498036
0.0183979261797951,0.0122411521091059,0.00577848253216138,-0.00146472129513375
0.0119324926358228,0.0229023970212737,0.00718974725800883,-0.00250573365416404
0.00510902887772811,0.0409706474633997,0.00813589573961018,-0.00240316198112573
-0.00247190142132958,0.0521306255963989,0.0100426932260395,-0.00142317672403689
-0.0122111477360442,0.0463847670375457,0.00887574333431838,-0.000376985791910135
-0.0224743113109472,0.032816843770722,0.00204884280206738,0.00048336325282394
-0.0256748113819208,0.0219847755089011,-0.0051381877834272,0.0010524793914391
-0.0226330388561746,0.0128065880462884,-0.00488355920094703,0.00117392416948666
-0.0198719718625558,0.00284538357028239,0.00121723484939644,0.00119481463949466
-0.0167629281127286,-0.00188675273773976,0.00492962643467578,0.00125492778253404
-0.00847780835615738,0.00638139974580701,0.00258691917412094,0.000980193417643732
0.00373714574510515,0.0236114024154918,-0.0029127943583348,0.000412682336023658
0.0147029135340621,0.0301258459970407,-0.0116602364502701,-7.38488009703305e-07
0.0175353567245606,0.01084145810236,-0.0194313504097219,-0.000195465612158216
0.008491786401604,-0.0173671376418365,-0.0163073480390559,-0.000436184099695244
-0.000146619408223572,-0.0278186717316987,-0.00420255261614641,-0.000810573701101901
0.00317047115632242,-0.0216041651473442,0.0080357584074961,-0.00117467238293744
0.0159099992661675,-0.0137782349094022,0.014393437755769,-0.00118694863305566
0.0279401404163629,-0.0185979655298175,0.0131128718699863,-0.000847396054689174
0.0281626636424365,-0.0322603499028549,0.0078659538225951,-0.000768955422756113
0.0170091678017418,-0.0310655720672878,0.00322847971827644,-0.0010861421307679
0.00465455183758765,-0.00682405375238969,0.000577344189488818,-0.00147769551786991
-0.00357643239127878,0.0238309807019639,-0.000113772481204692,-0.00206850044664126
-0.00842447434713216,0.0419975192054051,0.000799325018219933,-0.00246435612462678
-0.0106007650416405,0.0433209027706258,0.00189951035109544,-0.00136881655162533
-0.0109297990259037,0.0292262299012754,0.00213922366363265,0.00155707090336874
-0.00988085695450827,0.0121978028691668,0.0023109121073201,0.00495626367493021
-0.01185525285917,0.0120275624272372,0.00255841853048048,0.00692969230219746
-0.019029202786947,0.0221790279573353,0.00262953613921754,0.00626794789219037
-0.0190281228605567,0.0217058593546484,0.00247900661697201,0.00349778133663144
-0.0061619596983104,0.011851159843522,0.00171627258232852,0.000309652336737312
0.00759263738864558,0.00706289887538257,0.000798857251749533,-0.00199096690186287
0.0125553506688692,0.00994375792683155,-0.00098859896774464,-0.0030328532079651
0.0100309707092509,0.0160840402455357,-0.00373308959373385,-0.00348437977196509
0.00772685053778569,0.0187511685530746,-0.0047092410593687,-0.00378940175379649
0.0108848696596902,0.0120791661547175,-0.00363222976307696,-0.00325442149629903
0.015281003334468,0.00130815103175273,-0.00469335335636507,-0.00165147748246999
0.0148117239195048,-0.00578571019144392,-0.00966202597587941,-0.00028488487473489
0.0111206724953504,-0.00882012478459432,-0.0134403685605199,-0.000343186155634722
0.00890273841124254,-0.0108741467487736,-0.0112646972316927,-0.00108054244616949
0.0105112730195881,-0.0102889917560805,-0.00718974005356761,-0.0010341059177715
0.0151249669672122,-0.00666151075493417,-0.00509897685190509,-0.000100660039099494
0.0187263447492006,-0.00103194034288182,-0.00176088175211203,0.000596376548243587
0.0176399600886674,0.00706495919265414,0.00488518770949898,-1.39036830402082e-05
0.0139034223916853,0.0118874746905408,0.0119428091936655,-0.00187590017155804
0.0110918831363509,0.00878181003224281,0.0161487102684096,-0.00352502676510387
0.0103327923121205,-0.00529313009257759,0.016999932826751,-0.00341273910887115
0.0115059719087446,-0.0219789431165301,0.0148269446019038,-0.00115065996005051
0.0108135389789046,-0.0199543539712846,0.00929886675832611,0.00246186279720898
0.00191419961092799,-0.00154234599483441,0.00387028491803117,0.00552428126694121
-0.0165634255266015,0.0106367169677684,0.00332291816678854,0.0060813361051696
-0.030638676965603,0.010209809841103,0.00451342214812133,0.00387467585230302
-0.0262454147047959,0.00357729594164774,0.000218998166085203,0.00113828073959913
-0.0137219871459277,-0.0056240276767959,-0.00772561956020559,0.000319565487956665
-0.00622085793266731,-0.0131742263727206,-0.00872905439817716,0.00131086180936193
0.00213494855660725,-0.0293038209379289,-0.0031122796541549,0.00243895138292131
0.0144466635269417,-0.0551637514079054,-0.000256237423154631,0.00250985426218734
0.0194725290372976,-0.0440734336454141,-0.00239705390843952,0.00129156271645746
0.0112282325751894,0.0166488459530789,-0.00580943255748121,-0.000788439258941682
-0.00155148752095562,0.0601128564310065,-0.00653866177887833,-0.00301662707271033
-0.00740051218462552,0.0416032137528883,-0.0020877452281843,-0.00483037800893318
-0.00192234936895086,0.000559172307575767,0.00603133684518278,-0.00558613609118166
0.011243752758019,-0.0088383641683227,0.0132566921238695,-0.00458782222732067
0.0219883561463299,0.00586052480561366,0.0160095750052147,-0.00211185053835928
0.0206941781178678,0.0093662464513574,0.0128810113760942,0.00043433253212398
0.00632352590637662,-0.00267370014042515,0.00677443082488322,0.00153644456658832
-0.0130031398920533,-0.0125232182021836,0.00271155468980941,0.000715593683678378
-0.0244461451266508,-0.0125042852721806,0.00359112595186091,-0.000968119788507464
-0.022019738179264,-0.0094335223472002,0.00726385233369491,-0.00177846788521646
-0.0104505101166295,-0.00805824417241573,0.00919250639748821,-0.000765552336612807
0.001104784240725,-0.00697125287756501,0.00981651796435186,0.00148429949753859
0.00421707786594281,-0.00746152693107747,0.011533186070669,0.00342074169680617
0.00211974608921992,-0.0156280294951125,0.0124203946822953,0.00415718034199259
0.00537193921856743,-0.0336007826369321,0.0123286872472364,0.00380061395999601
0.0124158405981456,-0.0511660444106139,0.0130341605259578,0.0027054518414336
0.0157654520618316,-0.0603561969048497,0.0138790570273335,0.00143502828984516
0.0139148891298422,-0.0627892835310197,0.0123439651009448,0.000658779802374985
0.0088113289653313,-0.0627164739839743,0.00554197372553361,0.000475843768233974
0.0064297091565131,-0.0692498714871879,-0.00278539014656319,0.000357040492152964
0.00987878951682113,-0.0810402684519231,-0.00276203499126509,-0.000144760070406838
0.0132003582171069,-0.0873027724708699,0.00661797713105715,-0.000889106059434813
0.00928061926529836,-0.0813893557874283,0.0179660338516651,-0.00134957232286319
-0.0021629756837776,-0.0494790826151537,0.0239100449542109,-0.00125948010293427
-0.0137068450926763,0.00368617055190162,0.0184329059654705,-0.000550947581713235
-0.0112994680892003,0.0374353115025007,0.0106095165878056,0.00086118705392898
0.00567536386626401,0.0336188840483119,0.0124242228933144,0.00258376367082853
0.0177593297561804,0.0227906654490184,0.0125885456148727,0.0037137640829476
0.0127870694119025,0.0333515905464894,-0.00211440434597809,0.00374709973033286
-0.00107274335388219,0.0557839913585796,-0.0227467315787417,0.00277713639350699
-0.00693637262823339,0.0701205866805735,-0.0305669807530492,0.00100544315535637
-0.00207019186567678,0.0704604836396147,-0.021205753472234,-0.00124366330582102
-0.00266466176462355,0.0561317538286623,-0.0117708583159302,-0.00339850048425085
-0.015768649593507,0.0266262947066856,-0.0125508713748681,-0.00485350070755876
-0.0250633997839041,-0.0235256026735272,-0.0082016278701346,-0.0051647262647574
-0.0198550942221793,-0.0778748002684679,0.00974075820915207,-0.00391015455232423
-0.0101347044102675,-0.0958084335403799,0.0204933639590738,-0.00105966854389801
-0.00856838620964062,-0.0737061204744609,0.0103085748857319,0.00225634940293745
-0.0158037442086211,-0.0428881836139921,-0.00801059307682494,0.00425584243272677
-0.0206174580750047,-0.0290565397626569,-0.0188814688101141,0.00423620671711643
-0.0139405589887151,-0.038571623744184,-0.0208701492527311,0.00283247812864657
0.000841054796359209,-0.048258261300736,-0.0168558704424666,0.000774135071165109
0.0118723901512043,-0.0293365764504345,-0.0058006576678374,-0.00121204585692841
0.0124194852412488,0.0131656226337169,0.00648878570173961,-0.00206722930297369
0.011422945957288,0.0496520536542403,0.0107572562707815,-0.00159137237467053
0.0186238879990557,0.0630332037210093,0.00678827053258968,-0.000930638357242426
0.0304014680836799,0.0543541905271783,-0.000213840563079631,-0.000843785047660899
0.0337660668895336,0.033769591916459,-0.00693997000370653,-0.00108139575328766
0.019756984452772,0.01887112553794,-0.0132097368273122,-0.00130364630499727
-0.00319585571008527,0.0160590714389633,-0.0184802800830449,-0.00137774038609763
-0.0196419490954756,0.018385181910182,-0.0216457200790469,-0.00137940723123066
-0.025158781667712,0.0215105464347785,-0.0236078332976441,-0.00167380930937385
-0.0258787786388475,0.0217804295059028,-0.0235405441728944,-0.00220532752596634
-0.0249698846763331,0.0191019553484607,-0.0209585762439533,-0.00205588106252637
-0.0226207973202641,0.0190754385522499,-0.0185330253617081,-0.000603856204584556
-0.019600271813857,0.0239925699716685,-0.0182201868493355,0.00153638412167574
-0.0146935175330888,0.0302153689025479,-0.0180942865999941,0.00322473498549962
-0.00793891631703948,0.0326046791740694,-0.0156156843680289,0.00387524845829531
-0.000916627270435397,0.028604523618807,-0.0114952016203713,0.00344231630874988
0.00475396244909616,0.0227148354706577,-0.00861917825136143,0.00224040577527912
0.00841518226541696,0.0192391904153169,-0.007019520717735,0.00111278915686031
0.0112294955148472,0.0124442936328073,-0.00656749303786667,0.000699504426440796
0.0136551388111916,-0.00303122772959773,-0.00706569518143715,0.000199906701787436
0.0153028391280788,-0.0228443437752318,-0.00665218580703226,-0.00145798123060492
0.0094713295223848,-0.0385355664473299,-0.00551157305083154,-0.00355044211572629
-0.00740316719498224,-0.0469764320186105,-0.00261452071526497,-0.00475493532884916
-0.0196618033840323,-0.0522494843656904,0.00188631133836726,-0.00482819434735624
-0.0160975804759585,-0.0583418675277714,0.00422469148719713,-0.004190490453134
-0.00642238657363979,-0.0591571888553104,0.00160942825510551,-0.00345943886893127
0.000337208174573334,-0.0448300495551883,-0.00314201532819079,-0.00296218490655539
0.00584856552341567,-0.0126590748221584,-0.00396602173489663,-0.00226820181968134
0.00916156723103195,0.035243401690244,-0.00104090225457202,-0.000965812513308835
0.00876807528955927,0.0816240127370292,0.000658005731752138,0.000679393225267833
0.00893179133499518,0.106622951952475,-7.04188316759079e-05,0.00203210720208388
0.0101620884344836,0.103419577985178,0.000459935776508342,0.00291967781159543
0.00793893182319258,0.0655375090167649,0.00588822998716123,0.00385026689467382
0.00493444353958694,0.00572004706840619,0.0100059413345626,0.00486495548512587
0.0121897825979665,-0.0466465926565224,0.00812209208472791,0.00507169197207867
0.0240436253028258,-0.0754380121071441,0.00628712267848057,0.00371469371211541
0.0240309554486777,-0.077391563344502,0.00496238076469284,0.00114482961433044
0.0150209040445396,-0.0622538938840587,0.00642639327516958,-0.00119736814516343
0.00554435085140654,-0.0452324688918382,0.0172137209651721,-0.00171182442261834
0.00182715318572712,-0.0230668842701795,0.0197416514681362,-0.000254055193585001
0.00765023181141051,0.00326803017779999,3.76794877237803e-05,0.000843612745400268
0.0153034960443055,0.0169832965182423,-0.0190106831523596,-0.000653475032104783
0.0172733702339453,0.0243616028392717,-0.0168192878063081,-0.00323558246817984
0.0138344707769879,0.0392594221072735,-0.00179936209802209,-0.00354562712995279
0.00958527930241058,0.0387958356530308,0.0105397741687703,-0.00100796577120081
0.00411032294020358,0.00832769722819002,0.018383871494388,0.00195110588042471
-0.00683044073071171,-0.0169733491610902,0.0223728782954827,0.00303556800537623
-0.0187047072081496,-0.0220438696370934,0.0192865879634982,0.00182069266965509
-0.0228509322365412,-0.0220718664905707,0.0115882998792324,-0.000354001633664027
-0.0229143077097321,-0.0187559372350131,0.00657253933821001,-0.00180540496712433
-0.0221655491569027,-0.014449347241197,0.00573433335576379,-0.00183431925689824
-0.013624835214118,-0.0147293539369477,0.0039038395701442,-0.00069842539626055
-0.00185031518323855,-0.0175184816018379,0.000570081470169502,0.00068512145416088
0.0024560929726623,-0.0177423961003911,-0.000490213115915171,0.00169667927144922
0.00136421030827599,-0.0150146854148824,0.000420731843730924,0.00235418280837348
0.000688988181716626,-0.0112893697524954,0.00141751557422522,0.00257091075999647
0.00152948327639381,-0.00209449574932954,0.00266423010611178,0.00218710888755934
0.00116164107095912,0.0214912836859663,0.00605597925791434,0.000925703638036577
-0.0011297072290176,0.0547794363743318,0.0115702076581056,-0.000937191603503344
-0.000877232819831972,0.0681485129031663,0.015291330788919,-0.00216540363987109
0.00112581873104498,0.0505846765154526,0.0134274664467266,-0.00214797426391544
-0.00131224910942226,0.0362101303065118,0.00776705771314901,-0.00161921774347273
-0.00764550208556704,0.0447101790081417,0.00637791244260226,-0.00153251259057863
-0.00817651852067704,0.0568647375724368,0.00964291733248124,-0.00156789273142401
0.000682326146324321,0.0508538890723588,0.00723609377565517,-0.000906880279503782
0.00812861648986095,0.0257693170051839,-0.00221732174737105,4.13540322061084e-05
0.00348919934709115,0.00308645495754784,-0.00475641490263727,0.000269093797193079
-0.00661917551084712,-0.00836417617134393,0.00705751423814385,-0.000135702444906223
-0.00112419645088717,-0.0157792974515512,0.0171490567686358,8.34103871296328e-05
0.027178208142623,-0.013116062574658,0.00972898679790313,0.0010786850841308
0.0550735619959017,-0.00306582090732717,-0.00426910184603663,0.0016273433604986
0.0556877154608867,-0.000471347413492189,-0.00776290179804412,0.00119333857418031
0.0268726956298121,-0.011229753887053,-0.0026307014297102,5.57031582344959e-05
-0.00952609393591131,-0.0305590803593965,0.000626358588574259,-0.00147126405654677
-0.0435600722921622,-0.0397092414531,0.000766993602746316,-0.00284254979804369
-0.0820927668570406,-0.0250944022203821,2.18252213073523e-05,-0.00313057818686878
-0.103844752091053,-0.0101936636329523,-0.00143793012735817,-0.00210772683656641
-0.0860036078416158,-0.0234359759284807,-0.00279532678712274,-0.000652889474117509
-0.0481628001088827,-0.0399076967259355,-0.00275083647260825,0.000512590505554606
-0.0256061725870574,-0.0147605810088119,-0.00173161252832119,0.00113788882008069
-0.0284428211943174,0.0397287495892842,-0.00224969911825792,0.000852473887846181
-0.03371148949553,0.0788833736536822,-0.00466285149102722,-0.000381407105863056
-0.0253414029504857,0.103110153928052,-0.00619204778584713,-0.00182878461160913
-0.0113553280210974,0.133668749362417,-0.00211421987614389,-0.00251570613446058
0.00391561605472727,0.1468900656226,0.00688019060750502,-0.00160214073983498
0.0219014558229835,0.110950954860365,0.0130863346257024,0.00113648262951613
0.0428884260172899,0.0262360971272377,0.0137620874235372,0.00440666162136031
0.0671532978706798,-0.0775363078799327,0.013444156156629,0.00598681604512443
0.0791881941807718,-0.123289630537965,0.0102996676966283,0.00469747329320361
0.0583552253786652,-0.0804942373283206,0.000728907289158927,0.00115288956804184
0.0129948471782138,-0.0199484823690409,-0.00838219212968994,-0.00260944407368426
-0.0273159278785999,0.00629981764036387,-0.0116180241680173,-0.00435251416477636
-0.0420821744458326,0.0103191459794934,-0.0108698669847623,-0.00387940480361206
-0.0367890778053154,0.017195042723305,-0.0080197218026072,-0.00301601945690095
-0.029868607607892,0.0313845467024032,-0.00527637665049471,-0.00300512552568678
-0.0247804644422393,0.0349088596786499,-0.00271170045578034,-0.00306680551566291
-0.0159065628310912,0.0226239011496791,-2.50809477079855e-05,-0.0016137760489144
-0.00495094259763159,0.013194737542925,-0.00144271858659834,0.00113783193236559
0.0021836749434699,0.0112525147454591,-0.00554332476083711,0.00304718851229521
0.00316793030029191,0.00843305098689429,-0.0056160369096947,0.00309263925200698
0.00324492685762855,0.00897887623526139,-0.0045422233024619,0.00257130042502677
0.00569896519563448,0.0080418378103138,-0.00740141696850258,0.00301406438627362
0.008348714464884,-0.00541482786225802,-0.007466466597282,0.00410162381616956
0.0134154440431404,-0.0156956506808247,-0.000224621741279324,0.0042622708044175
0.0229466691228563,-0.0132635406863858,0.00645309598409197,0.00270738979272411
0.0280512247506868,-0.0115018907357306,0.00669697175647369,0.000562606600627822
0.0181884859822061,-0.00751786397161869,0.00361821245180058,-1.32140348292776e-05
0.000180693735635024,-0.000296899994332966,0.00208987451849238,0.000993118937145898
-0.00950189600234301,-0.00235833579028353,0.00234917925398167,0.0011642170145153
-0.00762692208151381,-0.0108322464232667,0.00313620692373487,-0.000473637706138495
-0.00413216462318052,-0.0186256562304059,0.00520478199138774,-0.00226666380917249
-0.00831142553745647,-0.0241532479197803,0.00714227439030765,-0.00285328254205503
-0.0174644183171227,-0.0271584103279174,0.00656582148595894,-0.00267444369689019
-0.0198965377044141,-0.0338325203281343,0.00250191545523675,-0.00218197813226805
-0.0142099372874196,-0.0418751004062399,-0.00384831318582442,-0.0011563682387808
-0.00840367501699203,-0.0291825400459311,-0.00592617959432765,-0.000137101480163801
-0.00195917779228975,0.00416970762787264,0.00104825358788204,-0.000329275919942222
0.00921558235177908,0.0222046178601336,0.0100095329566064,-0.00170811568411641
0.024313689252147,0.00578163736944074,0.0132994610041782,-0.00330085103160337
0.0367634775790997,-0.0166209873915723,0.00997192397940055,-0.00430961562495637
0.0398276942908502,-0.00383373121178459,-0.000850707759508757,-0.0035798020336478
0.0347066502869475,0.028671743066989,-0.0128828899441993,-0.000558905474688541
0.0245506095814532,0.0370975317775917,-0.0151536159426611,0.00332744086192277
0.0159127170436333,0.0165271708853773,-0.00730000438187537,0.00614854819903268
0.0133799026669987,-0.0142586006023831,0.00209503491811105,0.00712321642464363
0.00752665008700155,-0.0329203893476797,0.00713149317796462,0.0063153315059299
-0.00742580650503556,-0.0404312818439877,0.00927072154867993,0.00421961336036855
-0.0207792864317637,-0.0649421195553332,0.0117544504994762,0.00162051688909707
-0.0281194266028794,-0.0988846933988122,0.0103066105546341,-0.000661800072064308
-0.0342319828161075,-0.107994956458802,0.00422019263925552,-0.00209830852686821
-0.0328860662197086,-0.105623756178862,-0.000731380030456913,-0.00294314766443702
-0.0197723245011937,-0.116984467139716,-0.00572850074231157,-0.00380171824382213
-0.00750259378785309,-0.11947410011437,-0.0100819014323344,-0.00432976490210919
-0.00848433772511087,-0.0974935479347376,-0.00925851302396878,-0.00393282009806203
-0.0170560374630065,-0.0794509620064309,-0.00363654594414477,-0.00333108896995118
-0.0197079072141115,-0.0735012363403457,0.00356799526481398,-0.00326224224666791
-0.0163696381307487,-0.0464387392442654,0.00605140511488424,-0.00306707979580653
-0.0161301342628524,0.0177019802157571,0.00104364114478288,-0.00217144466550302
-0.022110915696605,0.0901033908081644,-0.00443343238466473,-0.00105189930757091
-0.0292752347398108,0.13134495777655,-0.0093711244581231,-0.00018966161449791
-0.0311569213219579,0.139601007573326,-0.0168349081399851,0.000427917957209374
-0.0260621999903104,0.133640582881789,-0.0178259039222169,0.00099444085148542
-0.0105128405691305,0.116495836124307,-0.0069714218835286,0.00193260665796272
0.0134700971920752,0.0715247113714661,0.00379154576807188,0.00356751998361578
0.0303704510460772,-0.00262186454949073,0.00333434871863592,0.00514609328380847
0.0340759932332164,-0.0403935292705174,-0.0032092980723711,0.00539460484671371
0.0276080180807666,0.000732716390868637,-0.00452157819821778,0.00441620825504029
0.016063633212061,0.0519781738293194,0.000386294242006468,0.00347723612522096
0.0150235722649017,0.0472919140006691,0.00432596725763237,0.00302350757436445
0.0278420352689925,0.00827771820539014,0.00374416640508487,0.00231889068931033
0.0319871379015264,-0.0164446059771655,0.00108558516729818,0.000767667282017495
0.01425658410182,-0.0214795195600284,-0.00193682155095887,-0.00128597561909809
-0.00938159334881171,-0.0249628935540633,-0.00441303093829357,-0.00307278157951581
-0.0225837865865486,-0.0241661680034296,-0.00447101668146025,-0.00418607995530227
-0.030117520795508,-0.0190163804213064,-0.00383296885996632,-0.00446066519869737
-0.0366494064002627,-0.0188181133799628,-0.00462756975080794,-0.00389008982271966
-0.0315079829597783,-0.0340304148376132,-0.004629377556074,-0.00301754213558996
-0.014002564130421,-0.0569645305475518,-0.00227878571972335,-0.00243834888362523
-0.00427456278819479,-0.0463607385935836,-0.00180435794734618,-0.00214282878117634
-0.0107265659252823,0.00275900011661712,-0.00660392374795946,-0.00143912303503528
-0.0161994198601869,0.042157290962737,-0.0112710057617675,8.47312521209788e-05
-0.00838186233982519,0.050115779237024,-0.0114136082720084,0.00159373437555105
0.00416616110915581,0.0528528239206508,-0.00964063668218097,0.0022621193974307
0.00875128551573598,0.0642106362939957,-0.00845334072946091,0.00259488983712338
0.0100987513229762,0.0583073683459508,-0.0100170083888873,0.00328846580052206
0.0236324347958451,0.0379687375682014,-0.0133794318378916,0.00374044787717181
0.0367465088277752,0.0386784015013606,-0.0134747575731666,0.00291364462104665
0.0226451297357634,0.0606981694088203,-0.0111510537932155,0.000969221465935533
-0.00914649026718311,0.0840743181348598,-0.0114634460425369,-0.000554380480066658
-0.0341134247560213,0.0902215756619826,-0.0162819314317021,-0.000471534102606445
-0.0470149061910437,0.0554865592923993,-0.0211712879649538,0.000238802285634418
-0.0499438378185812,-0.00968418659291608,-0.0189863223763712,3.54613474652722e-05
-0.0453115076854174,-0.0492815999801545,-0.010379544973399,-0.00104612937377362
-0.0370096919778239,-0.0385371537649247,-0.00296168983656008,-0.00195049046585665
-0.0286597797609694,-0.0080255433337343,-0.00282594498229326,-0.00145238170319573
-0.0197293977801059,0.0219217077934962,-0.00241309206329792,0.000880699891555037
-0.00515126808416637,0.0470393166893421,0.00776355861129983,0.00370929747317773
0.0143239426715233,0.039301314196732,0.0214985759968714,0.00470904575242545
0.03865969544772,0.00384134068939383,0.0267870898945624,0.00281401140046376
0.069178550336575,-0.0117888824340242,0.0210021996082024,-0.000930516950893042
0.0917405855712273,-0.0100017867112506,0.0125908923332815,-0.00449237570820432
0.0901743768652337,-0.0210634154770134,0.00627498900009842,-0.0055348457804857
0.0690420948591609,-0.0368262988070983,0.000540651604308683,-0.00322392519476623
0.0422103337733071,-0.0376599997637533,-0.00444255912715331,-0.000100105656101815
0.0121257714814098,-0.0293756227344571,-0.00820543228354987,0.00100545163913508
-0.020346880148476,-0.025053760531223,-0.0094055410733234,0.000424375681665205
-0.0429004121509405,-0.0255817723496961,-0.0080740985969856,-0.000125604060909501
-0.0462951582956446,-0.026840920159744,-0.00614409267368385,-0.000244723051276696
-0.0374236088961403,-0.0259688663795669,-0.0040595714307085,-0.000503100358247556
-0.0290120920516237,-0.0214194307543946,-0.00342661770226725,-0.000954137637693441
-0.0215086120743701,-0.0141062889138004,-0.00324588490675353,-0.000914259285530826
-0.010323620582233,-0.00800480968039533,-0.00107982303543469,0.000195559790761906
0.00171917799509125,-0.00439745967086892,-0.00357940238602905,0.00174983469636752
0.0111089006932862,-0.00205902250373891,-0.0100117809457823,0.00257219391156875
0.017815858056305,-0.0028384590084944,-0.00713215409721471,0.0025326727255407
0.0232004330144167,-0.00406829895567296,0.00173526578992557,0.00213248164495884
0.0268698054304368,-0.0030259190328709,0.00623245070868476,0.00164684060890748
0.026977345042636,-0.000623641049530325,0.00634885608793533,0.00120147187088961
0.0256307377727668,0.00237342361953361,0.00479386030815441,0.000842989321180472
0.0276528292242989,0.000795001113154348,0.00514885573622202,0.000462684626885705
0.0320234602452741,-0.00892624502312247,0.00920258087055107,0.000142259201424057
0.0354094860847307,-0.0260368763068891,0.0137970535539343,-0.000108347944846185
0.0350951228273312,-0.0466139044925633,0.0154483298593699,-0.000557895103209949
0.0277052502905601,-0.0625799240137602,0.0158362502202208,-0.000930144856437585
0.0181339342773756,-0.0643865177740864,0.0167692147182786,-0.000866702259173804
0.0163897857827434,-0.0539757877789593,0.0175842480251542,-0.000565956463935338
0.0238239588376457,-0.0462711697436381,0.0190574079920053,-0.000380110737069229
0.0325817408319655,-0.0427428174153092,0.0232781939791745,-0.000353346658291176
0.0354371354759732,-0.0317148389005505,0.0288963017786276,-7.97687849812969e-05
0.0327702199575014,-0.0166769331408939,0.0316767040273128,0.000491190425411444
0.0293042853613319,-0.0117133135487015,0.0323190977682382,0.000916787572809913
0.0294484320221936,-0.0118837248211019,0.0316227162339279,0.00104271601868267
0.0318587665956811,0.000475271533609926,0.0255120333369794,0.000989330767127899
0.0294268154984602,0.0291656293404464,0.0139021380497144,0.000903420454031621
0.0163467576207038,0.056643420791676,0.00136449882523637,0.000947099267822965
-0.00612057460160833,0.0571211932179001,-0.0093922997548664,0.000837556665341626
-0.0250074234843963,0.0302899274239323,-0.0176187290056297,8.57461523276594e-05
-0.0306081210406116,0.00499860630270002,-0.0214108346748767,-0.00107143794104097
-0.0319501871069826,-0.00131012348840505,-0.0238897785563396,-0.00231301780234788
-0.0330676611631208,-0.0016380895672171,-0.0284867625222778,-0.00389560849461999
-0.0247367224712738,-0.0094755709440093,-0.0271915910481384,-0.00548561517697962
-0.0133080100832408,-0.0188695901828264,-0.0189288059327727,-0.00581882660752514
-0.0102322194933097,-0.0249513835208336,-0.0154023361922087,-0.00435037463636523
-0.010143068020693,-0.0338937868371587,-0.0168606321710646,-0.00153600703922659
-0.00803441140411337,-0.0468815294147631,-0.0172119425245019,0.00184195566436683
-0.0087311293188007,-0.0525594609923669,-0.0159270269469554,0.0041479092720906
-0.00730148558535191,-0.0685249818908443,-0.00632174392228772,0.00409919701454205
0.0108753108256565,-0.117875824529345,0.0109435275643093,0.0022007212680792
0.0364854001029002,-0.140547712423575,0.0211803522454096,-6.75101739649208e-05
0.0427974242737957,-0.0934762584968091,0.0191828808544767,-0.00149571241525754
0.0245717890635633,-0.0343941563713994,0.0104074399072471,-0.00200005483313902
-0.00226904450309415,0.00518757546922452,-0.000362060421687465,-0.00208707101484805
-0.0209747241572145,0.044251856468718,-0.00916614526173403,-0.00194337160246901
-0.0279234874962197,0.0800108944286037,-0.0112818233974342,-0.00162805294129947
-0.0308586689262858,0.102992242776588,-0.0078717878226201,-0.000903593823369993
-0.0350227626749733,0.103109029907454,-0.00934861389353545,0.000412154035170755
-0.0377365263750923,0.0698820223802802,-0.0191804946121429,0.00127604431202393
-0.0351983876723596,0.0214997855679504,-0.0290508538579441,0.000987903743532053
-0.0270260889438954,-0.0169523966112234,-0.0304793915186941,0.000811748500921848
-0.014079505777737,-0.0433221371477441,-0.0223694128419306,0.00169209858102134
-0.00265196749510969,-0.0531778649728822,-0.0165610819263331,0.00237759195279536
0.000109104566817231,-0.0290959882224835,-0.0189600119000907,0.00118750702643379
-0.00322044598887542,0.021102764788382,-0.0209827595226724,-0.00120808155150367
-0.00464808695866329,0.0576310156968522,-0.0206613041212684,-0.0021758506995643
-0.00577411526010682,0.0572216121576048,-0.0200805278632938,-0.000865354731738964
-0.0132930359651047,0.0368889674590201,-0.0196128547664682,0.000692208791790324
-0.0202378702760069,0.0215764414291061,-0.0217308346912723,0.000703068063890617
-0.0195752133423459,0.0240988157133413,-0.0218587990511726,-0.000545247061552372
-0.015494964323621,0.0281472448548777,-0.0150867526706048,-0.00197461508740306
-0.00582235499808224,0.00093770300948371,-0.00642462934127042,-0.0029120342359991
0.0114215047049668,-0.0510152685552324,-0.00245405899347208,-0.00261701305730628
0.0224218574607196,-0.0805321580998438,-0.00487643585707279,-0.00060188517185732
0.0156668106664507,-0.0552839151386414,-0.0105876525959455,0.0020319918810152
0.000727740000917951,-0.00538187137137006,-0.0156837663923794,0.00316207229434583
-0.0034192362693105,0.0200502986046057,-0.0138508849565625,0.0021043692407276
0.00614127185977487,0.0203352714122479,-0.0026965056477523,0.000552001297570498
0.0139312950193468,0.0173587655044049,0.0058743424823728,6.13835381722789e-05
0.00949259728891891,0.0179550789473862,0.00505908985902822,0.000392527210253968
-0.00109020961762564,0.020317581256845,0.00323598757577936,0.000825908634386683
-0.00570224424628778,0.0236865136629471,0.00326595795641053,0.000942843526477611
-0.00278785881461617,0.0333261946529532,0.00151750044159534,0.00073057854367956
-0.000157397419833408,0.0495915959523741,0.000748484405749571,0.00105087674801419
-0.00172502966279856,0.0587729966734954,0.00272951539760116,0.00256604931062582
-0.00566709757297026,0.0548579932922356,0.00548066398388572,0.00428679795532519
-0.00754670568470792,0.0483259862065104,0.0092465118751011,0.00433572594701193
-0.00265573029068001,0.0411119179120627,0.0110619550291701,0.00248274347870608
0.00611607306797354,0.027000058741397,0.00953482857955488,0.00109739560202864
0.00898084454328293,0.012358393740012,0.00643739943104297,0.00143335226685464
-0.00209492005506429,0.00576454188992238,0.00249323462093322,0.00155047232086908
-0.0216169585509551,-0.000292667353109538,0.00361859182936182,-0.000131067768606649
-0.0268266479150814,-0.0187591283485391,0.0120820786658646,-0.00245101302937359
-0.0166877328474912,-0.0340239036054544,0.0164012671587608,-0.00346835950745058
-0.0160293519425756,-0.021971632287874,0.00558450348775443,-0.00322611952035831
-0.0256706222417451,-0.00257291113176093,-0.0126308168655443,-0.0029177945843618
-0.0329259061030424,-0.00071725367982136,-0.0206516870376766,-0.002519233217103
-0.0384077986043932,-0.00262111036981467,-0.0133025921756516,-0.00189372620351604
-0.0413207229405837,0.00868737248757333,0.00186058668620908,-0.00183846533064663
-0.0360517000283281,0.0306423956143414,0.0167971745155988,-0.00246200740193597
-0.016006847805537,0.0456080109761577,0.0285940885190136,-0.00230253394292506
0.0225908828955896,0.0529572767023684,0.0300951739919017,9.28839643233922e-05
0.0655829223647955,0.0676915005118761,0.0158031201289657,0.00345813521037413
0.0869064112303222,0.0538153531850004,0.00345459461869098,0.00489961796206691
0.0797582523151571,-0.0259072650127393,0.00709792871105399,0.00407938311660366
0.0547356034575708,-0.0992130787943113,0.0127769158986661,0.00284472233129093
0.0176722552895194,-0.0826047464725414,0.0104296979864036,0.00205681305629849
-0.0196525636221332,-0.0225341807084271,0.0123007272972124,0.00124759764176977
-0.0362042329942022,0.00436053799420476,0.027104416494454,-0.000106160121989867
-0.0285780315843575,-0.000605041788636365,0.0390589418389323,-0.00166765885761875
-0.0142839621720825,-0.00747541207716603,0.0279817808798061,-0.0027285379442672
-0.00689113612260682,-0.0135229488791246,0.00332175704126856,-0.00332893784933164
-0.0037508118171495,-0.0319768155567977,-0.0100181006373527,-0.00382795850109267
-0.000452305144779938,-0.048171004657304,-0.0104272408049552,-0.00392995305951214
-0.00407991137159313,-0.0421586235298579,-0.00841323936591776,-0.00333593302878184
-0.0187213840146217,-0.0167536963960926,-0.00335399588652122,-0.00231045252303117
-0.0307196988446254,0.0186304260207289,0.00605500554127656,-0.00124679580522768
-0.0260144092644532,0.0482307623111285,0.0153594716768655,-0.000710058715213609
-0.00906561060059203,0.0668725213868277,0.0203208163836232,-0.00113799596417638
0.00534149580853505,0.071736189247488,0.0254366816487801,-0.00178577792504939
0.0161136559589327,0.0515914163209784,0.0351527561181167,-0.00105262926552002
0.0299437556707463,0.0258930142811919,0.0346096223112364,0.00138624640429426
0.0314410393565631,0.0283614918904502,0.0181246352760657,0.00358546860973909
0.0135675805847858,0.0451284634917487,0.00662066767589719,0.00352734959729603
0.00737240352433904,0.0454055405317531,0.00424423979945638,0.00188453171703831
0.0300492035489949,0.0358638531333909,-0.00729106321523737,0.00052032615212615
0.0533530223528254,0.0305164032496012,-0.0262349107920088,-0.00040028738729406
0.0520514983449614,0.0173366700947704,-0.0361990389330491,-0.00129618283797775
0.0313362830292513,-0.0345728264680429,-0.032382696676485,-0.00171013976360632
0.00571613290304267,-0.113892274931087,-0.0173219541229926,-0.00125231805597317
-0.011236038855916,-0.146285500294494,0.00075845834264586,1.42969621641477e-05
-0.0116470077944042,-0.10284704143395,0.0114056083603504,0.00162448550536641
-0.00206020010665425,-0.0386252935192469,0.0141547424485542,0.0026026921852962
0.00376903985040746,0.0051954374034436,0.0151327902707213,0.00196403078831782
0.00318572452379335,0.0305312838857972,0.0154686631729346,-0.000270631789130389
0.00231847720534763,0.0459989462194955,0.0125642044136177,-0.0021687733935506
0.00348259206238136,0.0592191756679251,0.00823910994538016,-0.00153007539341535
0.00604827337018244,0.0744947579328251,0.00553341074069796,0.000685480689659436
0.00875734632647741,0.0909328606474386,0.00433332675609322,0.00152282363601113
0.00700294967239258,0.0990487888607143,0.00157478385226381,0.000638470921457268
-0.00118922884242088,0.0877671279521615,-0.00410857195705743,-0.000158772439902142
-0.00741501647276705,0.0572001156710002,-0.00736848804432345,-5.11331846654909e-05
-0.00392305051433985,0.00889587158117329,-0.00789634199349528,0.000544328528339373
0.00639041390147194,-0.045065086897955,-0.0103364556673705,0.000987057758310644
0.0147517292501652,-0.0718809075668705,-0.0133555173780245,0.00109592119324724
0.0156360121788908,-0.0614788632321396,-0.0144397107493715,0.00109971562080614
0.0107235080296768,-0.0405061270044738,-0.0142056065040552,0.00137620198725594
0.00629346224971708,-0.0300892182978168,-0.0131777040382649,0.00209439270029783
0.0056004324244869,-0.0243419100370738,-0.0110935614302642,0.00262663206206697
0.00279830036598018,-0.00847437079101689,-0.00896969613295985,0.0023126025532717
-0.00601353133943361,0.0198975126945483,-0.00761395817107877,0.00139166680920347
-0.0163293276761053,0.0467971939344354,-0.00552224207090405,0.000661774795387197
-0.0242641943395597,0.0673817426104061,-0.00251409508605491,0.000897525423854736
-0.0297592578531591,0.0815442149552952,-0.00365088625403034,0.00190219991985477
-0.0290645049229927,0.0747819494236614,-0.0114132666802002,0.00234427062419507
-0.018299651684833,0.0449034114135963,-0.0173092035687709,0.00125910935543494
-0.00390134180381429,0.011846944022225,-0.015968740222554,-0.000479987424988514
0.00634631997851203,0.000572754455674354,-0.0117219852064659,-0.000694725485383705
0.0116639563276775,0.00870695473662003,-0.0096262355910332,0.00140228145106036
0.0139094440118936,0.00822415866756614,-0.0100938797742201,0.00367461835632256
0.013440307382691,-0.00581628258905769,-0.00870583462754263,0.00328932738546879
0.00981580107814807,-0.011779630910106,-0.00553963540343998,-7.36603233797402e-05
0.00574732713879019,-0.0152403131706276,-0.00114487335417383,-0.0043662610093073
0.00279624602836264,-0.047048228089402,0.00426623634383119,-0.0070880926095929
-0.00327986351686602,-0.0879491740722853,0.00692766460013961,-0.00680900231781092
-0.0146884066078402,-0.0908315411916977,0.00769423480003075,-0.0043701489683224
-0.0228328090924486,-0.0651535792832451,0.00857106352735857,-0.00192415759835623
-0.0179347842599068,-0.0494722310253213,0.00957485961200702,-9.43071440019476e-05
-0.00571327021921415,-0.0442907207091409,0.0112445719947959,0.00225164441247347
0.00335842411465416,-0.0229724262145137,0.0144030327314192,0.00480231854169507
0.00918107449786518,0.0120788191645114,0.0168666225964551,0.00571419798977111
0.0134306335352538,0.0330739649878127,0.0110205826657107,0.00498822092175393
0.0126195967274375,0.0297956875553427,0.000604257788375664,0.00380751556475347
0.00758465947489401,0.0139366731592895,-0.00207841469954822,0.00191435447828704
0.00397769272685942,0.00802623804501297,0.000492519221688815,-0.000701275698753542
0.001361534448677,0.0246996723334339,-0.000109861731936903,-0.00277433224690459
-0.00165166908815656,0.0475424480309971,-0.00250983761455296,-0.00345782122400751
-0.00214802175158176,0.0541100549504282,-0.000784651447127964,-0.00301150582629159
-0.00113698822572192,0.0411120527843715,0.0041304157245621,-0.0022795411978039
-0.00549295035194249,0.018920661151471,0.00538635310610628,-0.00196738452689282
-0.0179831189096244,0.000424812456595029,0.00320350663310049,-0.0023918215034558
-0.0284926166470527,-0.00839530534952979,0.003405898857543,-0.00324221801283899
-0.0271511309624691,-0.00672849858504003,0.00622704868192409,-0.00389665417632294
-0.018794975141015,0.00364346304185002,0.00687494336689137,-0.00393722393598582
-0.0107543895283373,0.0138679272877125,0.00346026983681222,-0.00332625470989432
-0.000902964315751886,0.00860531769271771,0.00174267008138827,-0.00234437673041328
0.0116567931685549,-0.0178541431318784,0.00525998845778818,-0.00125337120107745
0.0200724459458281,-0.0444994919112902,0.00840211187621878,-0.000132828025801587
0.0207958444168197,-0.0481268917389219,0.00826572443222451,0.000878376007702071
0.0154144558947598,-0.0375239813355498,0.00898994126771896,0.00148200411189617
0.00851252061718975,-0.0301801810930972,0.0105328608258446,0.00161094283022589
0.00362369659804235,-0.0293230427859596,0.00977041611442212,0.00132674080287689
0.000244881024013106,-0.0362196827420767,0.00830764019469551,0.00089796479159184
-0.0011212077247338,-0.0484540523345239,0.00596568576281194,0.00069291827792907
-0.00235971726493222,-0.0562245659779872,0.00301720958158582,0.000488659140214415
-0.0116186374166389,-0.0462325738604224,0.00477987610133487,0.000236827264548371
-0.0293362023823637,-0.0117701954363207,0.0107715927705123,0.000314318921210547
-0.0439621676903096,0.0244424929290145,0.0123361600258633,0.000354315977643295
-0.0594707166738831,0.0349584919290308,0.00679558211793372,-2.23053664657326e-05
-0.0780942787644018,0.0241883404324386,0.00170509001720411,-0.000688304822846062
-0.0778683232193464,0.00108449288454854,-0.00143286002572941,-0.00152700103617988
-0.0591658289354254,-0.0295499711190918,-0.00838910468117677,-0.00243836284207199
-0.0456821905820299,-0.0556962247152828,-0.0194825761220706,-0.00359082074013867
-0.0428765842831647,-0.0566928242345935,-0.0274834521822211,-0.00472016913035423
-0.0415484996298653,-0.0240564990886776,-0.0242937779730821,-0.00491205568310833
-0.0378909987353484,0.0133264561301327,-0.010376898496902,-0.00380601446893203
-0.0346470087817451,0.033903405359337,0.00606002650279897,-0.00163314896373021
-0.0343794446558369,0.0436225092105476,0.0138671649638847,0.00123827049001405
-0.0343120090359885,0.0267270767364523,0.00916229734632289,0.00377882206160911
-0.0234322272416696,-0.0118159489328292,-0.000824265054281933,0.00492418964498807
0.00541234980500309,-0.0146244415649638,-0.00883356732159284,0.00465976501122785
0.040765742001883,0.0192051752691308,-0.00864660026605752,0.00350947726141836
0.0585976803076887,0.0353868374585547,0.00256162721289663,0.00225635121574621
0.0595270117339675,0.0289195855205772,0.0172730917012205,0.00203442900739266
0.0586380366312642,0.0280755969826064,0.0234119661008032,0.0032346156519713
0.0483832696281382,0.0149365495433291,0.0196125497203594,0.00478550624153126
0.0298890839292002,-0.028670117956358,0.0137248673325388,0.00498681926835638
0.0136562796073283,-0.0602740487414379,0.00950466823407317,0.00290863561866477
-0.00316222543292649,-0.0569861067784834,0.00647990752242673,-0.000691426481286855
-0.0190373026230167,-0.0416610511085159,0.00176070431047081,-0.00395804482283096
-0.0286921024862648,-0.0205016398545662,-0.00925845920648383,-0.00537201478490158
-0.031716671775894,0.00807896062078481,-0.0233808631943036,-0.00462808310375842
-0.0297166470942807,0.0275701333690352,-0.0278506392109167,-0.00295379163241434
-0.0249118946227836,0.0301583179596546,-0.0207507218744618,-0.00227832736843336
-0.017571827238981,0.0256592744080252,-0.0127529179990586,-0.00297102307424121
-0.00731825827572755,0.0143936177698962,-0.00816145785069082,-0.00321327458777253
0.00357700184084669,-0.00978146069863201,-0.00484159740593254,-0.00145289470809428
0.0117194657597598,-0.0312455663983798,-0.00112647449091868,0.00176553015446173
0.0147330885420242,-0.0344609027520913,0.00209723939748193,0.0044288653831024
0.0118108369989337,-0.0254374007010861,0.00404267373894746,0.00526576216121901
0.00958896306024499,-0.0155703566627144,0.00454059051126901,0.00464364296284498
0.0165143782071346,-0.0136461570473763,0.00625715456371249,0.00305478922043343
0.0280436716683629,-0.018724881182438,0.0105214592923747,0.000750875027432532
0.0366194730748308,-0.0124731677974005,0.00886870787100563,-0.00135374675688074
0.0409969126786827,0.0184455581295609,0.000386497184536243,-0.00190094670120842
0.0422271402451529,0.0539923214169279,-0.00485702854523569,-0.000705830620688328
0.0406106720894206,0.0781337290969702,-0.00494158629891434,0.000802995688194716
0.034353895856974,0.0908634744758838,-0.00432506613847062,0.00118664758577225
0.0256086704262913,0.0754045380081141,-0.00218324053783194,0.000340153043075616
0.0156296793931153,0.0323001441014371,0.00386619615461897,-0.000548326720927936
0.00704859169780236,-0.0282866521288054,0.00839836952929476,-0.000101400922654562
0.0115711143770524,-0.0837320231659488,0.00669663291953248,0.00137923251245729
0.025566189316463,-0.0922497304038975,0.00579317000004513,0.00193500950452224
0.0298792300473759,-0.0703153277414033,0.00881182523323749,0.000838847879236741
0.0239978895195736,-0.0499270092955037,0.0047569578350352,-0.000334972866764213
0.0198283658713147,-0.0319313009450493,-0.00957673253439648,-0.000429747445310953
0.0141061878267679,-0.0240848926162223,-0.0180556116934201,-0.000580317932764519
0.00208620532374229,-0.0291739622459267,-0.0128636402491093,-0.00187421376856505
-0.00759483268534625,-0.0368459670116123,-0.00484391607276878,-0.00354947407851123
-0.0132197724128259,-0.0385714883971385,-0.000199169537790769,-0.00454049274993763
-0.0189835868785747,-0.0302271652865121,0.00241740087732711,-0.00466065483868141
-0.0230357598445955,-0.00179635286522343,0.00268252817965307,-0.00407970122156297
-0.0240278000096313,0.0478272531609255,0.00242500872738616,-0.00273986403233599
-0.0206137076471389,0.0951513473102568,0.00474232968985548,-0.000700758250931991
-0.013194702905024,0.105570690555398,0.0067810697135323,0.00154765411775827
-0.00418028579571503,0.0603167438359101,0.00663462641794496,0.00337638197544439
0.005363875485419,-0.00997667799156193,0.00816156917464412,0.0044275404791194
0.0160077977796901,-0.0735104738290016,0.0117981652035567,0.00485961915009908
0.0288440042653644,-0.11470433645192,0.0120571339544132,0.00453764421964082
0.0349022956742199,-0.103227119637846,0.00672897715639972,0.00302903693493415
0.0226180082013645,-0.054534281022648,-0.000187656677789871,0.000921456769204589
-0.000605674962600243,-0.0149513026239035,-0.00577660865246725,-0.000751374553952324
-0.0162728116238781,0.00423778858394287,-0.00953622627918647,-0.0017067988688108
-0.0185126948432878,0.0106258822148587,-0.0106792214186117,-0.00213846001677933
-0.0164401716917632,0.00858344597840023,-0.00873667760723389,-0.00211544059981671
-0.0187954118573963,0.00373513499471875,-0.00479271366180222,-0.00179040275262518
-0.0222279443336095,-0.00305631095258955,-0.00300491417748313,-0.0016369567949403
-0.018861673883407,-0.0143766794179139,-0.00363265064867679,-0.00195253016178872
-0.0108711294421669,-0.0229017528582587,-0.00222737245049599,-0.00226985377397378
-0.00514489812892088,-0.0272410417653627,0.00183412136555852,-0.00172431020703937
-0.00150473499267066,-0.0324114869643055,0.00499641680304611,-0.000455778914053548
0.00263398605615328,-0.0469823032836656,0.00491610121100785,0.00051866704586321
0.00956620984475086,-0.0696849042944172,0.00256519914571592,0.00082971938241188
0.0189934757852671,-0.0743911704765145,-0.000440886996851787,0.000656393555973862
0.0244277875082383,-0.0507147383511323,2.33971304067831e-05,-0.00034036411444635
0.0217626684474815,-0.0103027427656336,0.00307627227418068,-0.00178748144328763
0.0132575729487726,0.0354512094999636,-0.00175952194167077,-0.00156927818747134
0.00508871677450082,0.071322655514677,-0.0105899028890513,0.00114390223856904
0.00264663574530002,0.0774697533304895,-0.00751046836151448,0.00427408481141747
0.00622138335213907,0.0417953195017334,0.00421771656250462,0.00576151030210423
0.0087802604940745,-0.0109962698144843,0.0105987033955605,0.00552103912296528
0.00222681424739411,-0.0304882887250818,0.0101950537091944,0.00444865704829008
-0.0080303869492765,-0.0110439411376701,0.00771114764126028,0.00309756175906097
-0.0105366803260453,0.00745153649916221,0.00353171623579292,0.00126990272475124
-0.00242797842373702,0.00802605399500868,-0.000653963470367508,-0.00141728986633427
0.0115831855584253,0.00248982803676499,-0.00275528644129594,-0.00435857631019159
0.0210285473248333,0.00202733783874057,-0.00455632995434618,-0.00612046591635052
0.0182810487182971,0.00634539626779292,-0.0057899747939782,-0.00559639060336544
0.00783234222428979,0.00790292020349536,-0.00416230908945181,-0.00285319696714843
-0.000493473059183284,-0.00164301801505299,-0.000445381758537499,0.000424384108387247
-0.00421351440701744,-0.0217037374311919,0.0019012294268283,0.00226670417978428
-0.00567467203974803,-0.0362271890828703,0.00160707440658579,0.00197584645313585
-0.00619364809911704,-0.0318802857566086,0.000645956001709541,0.000224180881605461
-0.00873567734907881,-0.00267317631470956,0.000391317243798586,-0.00151881615559098
-0.0110427212290348,0.0281522684224217,0.00154848060454521,-0.00216186337829284
-0.00861040585545093,0.0268635147220325,0.00302746091149767,-0.00169313113439215
-0.00799951235593657,0.0150803027465461,0.002681145621631,-0.000411583700020456
-0.0149609167141658,0.0289177020129589,0.00244991809388008,0.00125920151689633
-0.0197232694591277,0.0541261196981235,0.00383579351943217,0.00261246132068331
-0.0200751407781791,0.063658201230318,0.00244725833409651,0.00350468785716851
-0.0279975438391713,0.0567834740691532,-0.00052515095423891,0.00396581875904827
-0.0293579595503526,0.0297918887546569,0.00285966610203515,0.0034583230104285
0.000567310580176179,-0.0181827913675462,0.00903817110617552,0.00192185695949892
0.0389068808631591,-0.0570772452355464,0.0114649144505263,0.000305091084477462
0.0505566826666814,-0.0589852229081382,0.0104542741373762,-0.000588385696707654
0.0396263161620665,-0.0383008743025204,0.00574438729852068,-0.000675311340414218
0.0182028563699101,-0.0250016358007217,-0.00198772865377395,-0.000385792989915019
-0.00155964420926367,-0.0134481528726222,-0.00923063480466647,-0.000555210524981601
0.00196915188856076,0.0136317836514395,-0.0066759810560419,-0.00130419664894507
0.0227788043227092,0.0350494413350088,0.00618420497421606,-0.00134086228676138
0.0196362584251413,0.0288621463391799,0.0139924384699712,6.57910591051715e-05
-0.0278160575146897,0.0161090138132075,0.00938242946840909,0.00156359863176992
-0.0838785197135833,0.0225255243108994,0.000425866925780331,0.00167577149360148
-0.100301422561636,0.0426871969000085,-0.00304929014520099,0.000740806864421572
-0.0801685675768566,0.0640543421268997,-0.000216399102840137,-0.000322368215549546
-0.0587293342147934,0.0879030626826181,0.00168687568764521,-0.00126330844885502
-0.0411913288111405,0.101117773270631,0.00181851775698834,-0.00206763285871604
-0.0141114341449391,0.081919095330757,0.00650015912735039,-0.00231101481949659
0.0144085417735023,0.0438435549282155,0.0156146036610108,-0.00136393105811209
0.0269610455785682,0.0209566299105919,0.0219724685515862,0.0003241087766798
0.0255005121566672,0.0165586957881821,0.0181525740369195,0.00151215922630075
0.0275291131706696,0.00634372418952955,0.00511409181787002,0.00174677248438312
0.041523238029106,-0.0133627966428629,-0.00797185688205178,0.00121391048939677
0.0547362303758747,-0.0285892834760612,-0.0103581888508165,0.000136793186288708
0.0519775588136364,-0.0338046645315045,-0.000131383137638382,-0.000902387305503781
0.0355920403802023,-0.0293686406070169,0.0107919540667216,-0.00126754190075599
0.0171196245777153,-0.0294302571352646,0.0136870335931327,-0.00107305635313483
0.00531086927911005,-0.0441477617361809,0.0135457837437662,-0.000606592834565935
0.00149923008741698,-0.0538073114777478,0.0159927677953685,0.000493938105765798
0.000405617679615878,-0.0417809214448697,0.0183825076992485,0.00199116597904481
-0.00344850620031792,-0.0221851548149037,0.0199872888401223,0.00260341714408221
-0.0120920975995191,-0.00665624637627726,0.0190070953198303,0.00201492999293206
-0.0248468855846493,0.0202909123494057,0.00278756645759961,0.00138222402605648
-0.0373567284241358,0.0569613195484182,-0.024764826122957,0.00121400780383558
-0.0401324833187063,0.0764128885655216,-0.035643035069406,0.000131927315955733
-0.0298168369227689,0.0823433163075607,-0.0235526067793667,-0.00269184774690591
-0.0176033763086034,0.097838231687124,-0.0121557971085706,-0.00567479585538208
-0.0120452560691034,0.112496509071053,-0.0151654706070247,-0.00682193477637055
-0.0124311541884582,0.0964773069070596,-0.0193598374778062,-0.0051156692662906
-0.0154764808246092,0.0428902636045777,-0.0105416176439651,-0.000978818901244977
-0.0115652084390346,-0.0224489082309283,0.00242907233655405,0.00346106934029939
0.00359505984076632,-0.0550011207665063,0.00384832180260244,0.00649298101265041
0.0164364987439249,-0.0418709070500426,-0.000624270135110728,0.00741986638011085
0.0132903087185265,-0.0195078274221498,0.00495114909061889,0.00550087211986947
0.00264102314699045,-0.0170504288333253,0.0151750083296344,0.0014778767482867
-0.000618428086546532,-0.0425922529032265,0.0168306262410054,-0.00252723888676913
0.0072738089964503,-0.0784128600202621,0.0113960184592282,-0.00506960309848159
0.0167896196025668,-0.0759898750587184,0.00408528553095915,-0.00562706491426874
0.0129485911964099,-0.0336498310384785,-0.00272972037111987,-0.00470645302487327
0.000782195968506618,0.0048120288349164,-0.00719600137760738,-0.00344207012753903
-0.0052773706482213,0.025738477496601,-0.00991358051594901,-0.00237464279235216
-0.00646746366479831,0.042611995395283,-0.0114686831130104,-0.00158452909838727
-0.0105293217541179,0.0674976058518816,-0.0108539374903782,-0.00153165816057838
-0.0156843194044811,0.0895149499714805,-0.0107527558494444,-0.00192094255070886
-0.016122670252289,0.0866986272228374,-0.0108802136607996,-0.00112398064045687
-0.0173707284025845,0.0652556018249507,-0.00875745436802492,0.00136496311880046
-0.0247999971350467,0.0437884796566727,-0.00881816776759937,0.00401176760180362
-0.0266156109713065,0.0185091352176389,-0.0114558602418369,0.00519799742815652
-0.0135233384173848,-0.013817529657381,-0.0115377046574951,0.00457496360875512
0.000238414495523667,-0.0348839722595329,-0.00789524270253023,0.00298400078212306
-0.000625533229521464,-0.0404265430230604,-0.00295493772490235,0.00202380981652742
-0.00661645768677258,-0.0484773028283991,0.000403606058982625,0.00242125141458025
-0.00411426594717554,-0.0612794742648469,0.000866347078238412,0.00257455034983143
0.00425953514282709,-0.0572074377786812,-0.000862317236238254,0.000674606417376837
0.0156680214549995,-0.0249642143137835,-0.00248800754340376,-0.00285330950473452
0.0268000364091931,0.020013517836727,-0.00142299756433358,-0.00602106888222604
0.0229877457354255,0.0642710569758524,0.00378249451856146,-0.00685732583370363
0.00473794905343104,0.0975529502669062,0.0113499400036215,-0.0046672787847969
-0.00940306679429348,0.0979756491669344,0.0145140582682461,-0.00090214380588468
-0.0127429352923191,0.0674479238044035,0.00914507339361765,0.00166841480542625
-0.0102455230292939,0.0353460562162936,0.00132646371944515,0.00150080287341049
-0.00950940529254114,0.0162063320150233,-0.00142637399021423,-0.000364456493085408
-0.0132798826639734,0.00178088125789402,-7.79215511031283e-05,-0.00195479857730756
-0.0164555599523938,-0.01740596713038,0.00240119685791208,-0.0024348062633546
-0.0140940418866938,-0.0549720277216026,0.00754738105446379,-0.00220332699803043
-0.00220416448541785,-0.107266360537203,0.0118469072755491,-0.00178551631184701
0.0150474488549011,-0.114083329237836,0.00709578744346484,-0.000776211982067036
0.0233300396926066,-0.0582823423602147,-0.00165021226407587,0.000951563089180671
0.0182566820720424,-0.00673065964169994,-0.00173099122632844,0.00221543804665231
0.00832755188404683,0.00961732895163486,0.00436500388553759,0.00248156549838268
0.00197607616445381,0.010433423957669,0.00751972218860962,0.00210647509417444
0.000692407882585365,0.0111378476072819,0.00884334195285287,0.00131476632372317
0.000543628808560888,0.0147454664255034,0.0108913906267779,0.000813747598056032
-8.11806108164876e-05,0.0158716337301833,0.0139818433545551,0.0012870671545928
0.000812952948914279,0.00920625480058995,0.0164695837329577,0.00223026633520167
0.00337050392836447,0.0029336970382388,0.0164019541194098,0.00255018958409675
0.00451618155761282,0.00878844673940476,0.0159314986486797,0.00193069373135514
0.00416410970168535,0.0169336508408989,0.0154022533502336,0.00112649129408846
0.00714239170445654,0.0120215386668367,0.0139617048848682,0.000827841409102806
0.0131222163523898,-0.00191002162004282,0.0118022372593759,0.000940633428910541
0.015502639050467,-0.0170554763650622,0.00943985612385656,0.000716482704288354
0.013064054209755,-0.0385851521274017,0.00706118628794,-0.00084860290538551
0.00547827782138808,-0.0664564293457512,0.00499817119932114,-0.00333233626529517
-0.00596834858131992,-0.089189380732606,0.0049539956717909,-0.00492893592714426
-0.0105838217950598,-0.102308582441914,0.00831127609900475,-0.00501260932674684
-0.00401380273534192,-0.105120699084165,0.0123687100129092,-0.00413938877174647
0.00421518223305984,-0.100911868472526,0.0122626705160569,-0.00270915486197282
0.00685216843024178,-0.105618940546336,0.00977589992820955,-0.000788723121227641
0.00233796831620955,-0.111695358836556,0.00898579539334321,0.00139520499021749
-0.0145817166092326,-0.080471218596932,0.00819475374924043,0.00287701883432545
-0.0381577569785018,-0.00643484634610841,0.000376092392110676,0.00297150844697417
-0.0464722803786456,0.0719231563376407,-0.0138030250067069,0.00198669798656895
-0.0394399353271261,0.118450764597151,-0.0152940223730334,0.000738039309164872
-0.0382631462766759,0.118805554005803,0.00359219194431842,0.00032955420533194
-0.049892379494446,0.0832237664581261,0.0220570384208377,0.00142026790353919
-0.0652301226429149,0.043247812174465,0.0167251025720718,0.00374742318251356
-0.0693479825349913,0.0238142333128755,-0.00962990922297516,0.00558062236593879
-0.0534333471778737,0.0318029478008129,-0.0250993755789055,0.004391937556165
-0.0271407335097475,0.052623828480561,-0.0109356902988651,0.000634321196377307
-0.0029383110710723,0.053934146173895,0.0089354376182404,-0.0022573633006172
0.0193331178422868,0.0346641267167788,0.0101589280383891,-0.00293037474988277
0.0401175528631406,0.0137359620153935,0.00425661440196951,-0.00325189541291524
0.0536750984777166,-0.0126142427483267,0.00590144944780691,-0.00411904147379441
0.0520843785961514,-0.0355016346742641,0.00786514762448486,-0.00380350610450083
0.0349591613731446,-0.0417958554810002,0.00177668358606997,-0.00130786417335676
0.0132127858149281,-0.0319686162124209,-0.00550873471522129,0.00164292218914821
-0.00202711855298156,-0.00351955236385468,-0.0051722028417735,0.00328115000570601
-0.0108588283274835,0.014977696824191,0.00127262562904887,0.00364631784177475
-0.0207715538476205,-0.0164694779032673,0.00759049852055309,0.00300129586991773
-0.0289455285134465,-0.0646160618922166,0.00936896704043242,0.00155727704608579
-0.0259321163634619,-0.0659616988163343,0.00609204088685853,-5.60414050436143e-05
-0.00564033894602955,-0.0586086913514161,0.00302609455065313,-0.00106914194689328
0.0285318592197589,-0.0804108382920671,0.00385408950421789,-0.00100550294329084
0.0554493156665026,-0.06141760597762,0.00500021209389059,-0.000170851637054907
0.0529240111650192,0.0217027877961674,0.00400060532078137,0.00104119750742511
0.0237735621010959,0.0939190874188707,0.00239197108611814,0.00209541114722434
-0.00737573411357906,0.101750661181143,-3.58965067884728e-05,0.00208010530424266
-0.0285535262127339,0.0736945494768052,-0.00367819448139753,0.000683792527642315
-0.0397202804262801,0.0625452766819568,-0.00723175750807537,-0.00137004436493746
-0.0338589680292842,0.0732599660031649,-0.0107397995295736,-0.00290146555539741
-0.0160613295931863,0.083713068214628,-0.0121630422951872,-0.00334697847015485
0.00284619438553284,0.07614119425691,-0.00487195944109916,-0.00291634487903399
0.0240016680435254,0.0427680813766678,0.0103101088838805,-0.00147119138323621
0.0406836771883077,0.00621982446913094,0.0207909359533661,0.000973685207092527
0.045288010733467,-0.0196348446114524,0.0212086050651147,0.0029618469586682
0.0449177106257257,-0.0415940951348127,0.0195075482655681,0.00338999093041751
0.0422922901645819,-0.0326855777221037,0.0208049458155902,0.00298794640045359
0.0339611675505924,0.0169165617958125,0.0218361645383115,0.00267945225921235
0.0230195318333762,0.0575638444125892,0.0229260049111584,0.00246217304574255
0.0165523451093784,0.0457558978763717,0.0244925671755506,0.00219784432632536
0.0155755613767364,-0.0109553097086798,0.0189034844308468,0.00182067429332077
0.0161331306814351,-0.0631468190728037,0.00517761766884928,0.000805828987633632
0.016422406698439,-0.0739351736718283,-0.00466915263860278,-0.000967142717994844
0.0207818509513434,-0.0596604344284482,-0.00165459425018949,-0.00270182773311875
0.0320262208062134,-0.0481221022799548,0.00840182438869109,-0.00346624362378389
0.041290927634779,-0.042026288590368,0.00875291272203575,-0.0028078685304512
0.0425209187084682,-0.0390666158690113,-0.008096096022865,-0.00122043067619002
0.0382253321234181,-0.0319674563552099,-0.0277349581157817,0.000200783377232867
0.0285110131155193,-0.0127296019224185,-0.0311594688609928,0.000612816766920854
0.0144864125750689,0.00990191975570227,-0.0174262799729379,9.11489939786397e-06
0.00306798157491217,0.0239089640669422,-0.00124675066973203,-0.00063969319591352
-0.00222777475955778,0.0259889212052662,0.00669703688867152,-0.000395983751778934
-0.0042062320552692,0.0179430965705961,0.00603046637828268,0.00037066264699561
-0.00181723659548176,0.00572016107671375,0.00344316004446722,0.000510346413935209
0.00473613592882579,-0.00528626502510716,0.00481241366653708,-0.000162690244225699
0.00937513664547911,-0.035162923815571,0.0101705311140043,-0.000755042448435925
0.0122305201116308,-0.0959720696112782,0.0140174396375502,-0.000489806383816864
0.0169056529707057,-0.136605679106215,0.0111492938182752,0.000526494018091273
0.0168406674332629,-0.114588169007332,0.00574200304825901,0.0014618689074605
0.00507422045034074,-0.062466163757962,0.000333083068661773,0.00191812302738841
-0.0103434757209109,-0.0221740066985654,-0.00639321431735033,0.00177633402823115
-0.0201731800250972,-0.00478845912120471,-0.00981221620451578,0.00047977325071449
-0.020041911813241,-0.000927996116352303,-0.00680948793277579,-0.00148782223819694
-0.0103997032868665,0.00780256137502877,-0.00234618757911127,-0.00249910865748656
-0.0034641021361463,0.0245614944028464,-0.00142289049338147,-0.00193881075381311
-0.00397152851497422,0.0505777395911869,-0.00412043687917589,-0.000739189521198161
-0.0084150298675996,0.0769227908340804,-0.00928747374000542,-0.000290733880675967
-0.0162736257054996,0.0777260826450212,-0.0155237514454451,-0.000930077116997448
-0.0156138479606156,0.0521680377830279,-0.0200854843670059,-0.00176497634422821
0.00112223467801059,0.0250941551813127,-0.0209507259346297,-0.0016185407465599
0.0154627521393045,0.0158604565136376,-0.0204203994804296,4.17227338487377e-05
0.0141540688187925,0.0312281346760958,-0.019076820631862,0.00219095431224783
0.00962161148160329,0.0524765579379876,-0.0121410108657983,0.00331599410699606
0.0106609593491473,0.0422863209630365,-0.00298974268799711,0.00306840869056569
0.0114010144778664,-0.00750871251520009,0.000158852405497756,0.00201405466525708
0.00720980497007855,-0.0589490058871318,-0.00252506077109925,0.000716272786062824
-0.00269219324689269,-0.072389646922243,-0.00552534040475189,-0.000667998926397874
-0.0143374798939237,-0.0567508443733997,-0.00732732363783052,-0.00227443952194221
-0.0218557376900245,-0.0442958060416919,-0.00907371401646545,-0.00425096180903667
-0.0256074119624416,-0.0401279690201897,-0.00759255371625459,-0.00627263438194448
-0.0259593910461644,-0.0235868667487152,-0.00262202937703551,-0.00684089081548405
-0.0167642005838866,-0.000837083668553864,-6.53538191234078e-05,-0.00462673279293724
6.28894141083899e-05,0.00250819345353874,-0.0027907315197053,-0.000704610207427059
0.0106084676265544,0.0110524039654973,-0.00753903291395283,0.00270653798899335
0.0123158009053002,0.0486437538145464,-0.0105497589924,0.00479705558987764
0.0172776134543432,0.0750356481061663,-0.0100762414930055,0.00570716819118804
0.0256295742257302,0.0569957865007821,-0.00739486918633241,0.00506050899965186
0.0244191561106539,0.0205175971180851,-0.00415799075684247,0.0027398243649673
0.0171240052984056,0.00308466937697725,-0.00176273858045485,-3.56013978538598e-05
0.014234709419119,0.00602851287546912,0.000541035481321053,-0.00179441767397582
0.0114705373707817,0.0102837729620461,0.00552718164235067,-0.0026095921154382
0.00443301889907622,0.00651603050156752,0.00937401025077442,-0.00328492343850013
-0.00291898645487465,-0.000583907070661115,0.00739362238133291,-0.00337275184803797
-0.00700360994383526,-0.0103578361506946,0.00322144823337192,-0.0019665036512486
-0.00929097071806395,-0.0278487848186903,0.000727676888671187,0.000266717451787728
-0.0126452865980264,-0.0415603363664251,0.00274039325935058,0.00128741365368921
-0.0166672600406251,-0.0410615830553621,0.00515126693125791,0.000546276030184437
-0.0222408602466959,-0.0388304709733353,0.0028750530433371,-0.000268806638222607
-0.0296212426750347,-0.0419897254745891,0.00302818206106097,0.000464622877965517
-0.0349027265523196,-0.0435660961110298,0.00428773361213478,0.00266504687336135
-0.0375615334318489,-0.0426265462169461,0.00236600745199404,0.00417844299835386
-0.0358435685770279,-0.0354998029071112,-0.000316452474710864,0.00304844184287162
-0.0308643023954273,-0.0154628065930457,-0.00562721584973899,5.59032068242335e-05
-0.0264022121674614,0.00658182603776659,-0.0133786511719167,-0.00297200805722892
-0.0123591089526324,0.0224716294569004,-0.0201434064683049,-0.00550577133987995
0.0138979353028092,0.0468681190444435,-0.0205203120324464,-0.00748092112727833
0.0307033733278456,0.0650636749942785,-0.0107576601179568,-0.00794739923659987
0.0269669345898751,0.0481781620032468,-0.000391697196399105,-0.00564827819901305
0.0185282936563576,0.0197086194876049,0.00120709326346663,-0.000842017144444819
0.0298317299844358,0.00138715252531788,-0.00329098167501841,0.00437545249701708
0.0583621772901423,-0.0109099718603142,-0.00868182842950386,0.00742710371077606
0.0687948734206157,-0.0181379390546362,-0.00954670610378786,0.00716082728162498
0.047864392788489,-0.0327828652976778,-0.00581739808052371,0.00498875685010532
0.00960682339180711,-0.0505229849942767,-0.00664432212526941,0.00282839185646555
-0.0319059797484543,-0.0404187351018472,-0.0124955936663124,0.00129707484375434
-0.0569759789431627,-0.00912113483474308,-0.0134828646359847,0.000365938783110128
-0.0515456088439435,0.00536950273670607,-0.00849009426285217,-0.000566626948949875
-0.027297521616239,0.00940585171890701,-0.00384425667582338,-0.0022442255901375
-0.00693128026230724,0.0295560160934481,-0.00293168970163245,-0.00404655903314383
0.00530090633472011,0.0464692311314076,-0.00419511971251602,-0.00443780283125633
0.0104278885556953,0.0384899832633745,-0.00664154415234937,-0.00334099522035365
0.00430490641136764,0.0261846367492169,-0.010513457284968,-0.00234768801576919
-0.00358444852612283,0.0238742082387809,-0.0137471085689085,-0.00184176616206569
-0.00405674916937235,0.0188681928877869,-0.0146081105363966,-0.000381002099915153
0.000356387037556666,0.00502259441062897,-0.0119665058092229,0.00250552106426102
0.00763649450479136,-0.0112390029853413,-0.008495278143411,0.00527382851278446
0.0168678561366025,-0.0233385158361591,-0.00981073061348958,0.00619647845765405
0.0213892416984831,-0.0366207599703428,-0.0122629455211221,0.00524131743368436
0.0189885293420511,-0.0586981954676986,-0.00869674135213779,0.00361271051067116
0.0149302107660178,-0.0666664174401561,-0.00293897491064864,0.00223941406076074
0.00722631353427599,-0.0370080325518626,-0.00200194133310258,0.00127137800799548
-0.00405275524850208,0.0134400098632591,-0.00725722273455847,0.000266744324006768
-0.0141626664185467,0.0593549034884077,-0.0157440002819992,-0.00120601650574371
-0.0227509680155254,0.0922615404469334,-0.0197047176911096,-0.00284160135882918
-0.0278209962478922,0.118801695428277,-0.0183182690265596,-0.0038890018193931
-0.0278566052679402,0.137555520911056,-0.01724689325757,-0.00400679253925009
-0.024035676457569,0.124340236983766,-0.0159983970275389,-0.00283737532901444
-0.0180536770364984,0.0825243474590429,-0.0123412531622172,-0.000364457087037654
-0.0107227904657825,0.0643276921605118,-0.00481810267742953,0.0023489221320744
0.00194555843550698,0.0965891574485544,-0.00153754535936299,0.0043892058279006
0.015926019440807,0.125991715568075,-0.00778585216455559,0.00510746346006219
0.0222008161751662,0.0916574587891725,-0.00914296169913173,0.00373151937975391
0.0237591677288015,-0.0161157382413391,0.00173722022387593,0.00116255543945263
0.0287153674750516,-0.127883492284586,0.0162651720879735,-0.000249485113211417
0.0309230644256061,-0.124974981567305,0.0230903914332612,-4.42685120192152e-05
0.0187411282977696,-0.0424291959795141,0.0176009878044426,-4.16251403125175e-06
0.012888581602297,-0.0122092160635052,0.00522742363177348,-0.000706350556665938
0.0303575927392679,-0.0244611171866925,-0.00705024731701559,-0.00111383365842108
0.0419505570594194,-0.0192421318157402,-0.0133928932079061,-0.00109259395279215
0.0252456563911145,-0.00286796579458186,-0.0125150790101667,-0.000874805376200343
-0.00107932855976203,0.0139208668196917,-0.00831148447856577,-0.000201337940068781
-0.0120481350050182,0.0319708464222093,-0.00589956547850623,0.000629813260325851
-0.0129203978324434,0.041777669524468,-0.00623968384069663,0.00121245878093681
-0.0185639799090137,0.0416936332480188,-0.00619904780162702,0.00154517825370472
-0.0262334400332408,0.04119768865921,-0.00528502963568373,0.00132925378845813
-0.0300068251545712,0.0393032040980172,-0.00433320171765033,0.000342051067654192
-0.0272658589368797,0.0291723275135248,-0.000311395368451196,-0.00105842739708973
-0.0162455607676368,0.00983653465050844,0.00821968835699504,-0.00192399269059298
-9.6432763432271e-05,-0.0111956904064844,0.0133102274280919,-0.00123300652291638
0.0144553174096706,-0.0255667050412302,0.0111659853385272,0.000357671831961867
0.0219775831550722,-0.0290296214181317,0.00555025913513037,0.000947882127860809
0.0232888809289953,-0.0217467941034128,-0.000541599135084349,-4.78135422446652e-05
0.022533440700582,-0.0170342037214031,-0.00162256796157038,-0.00148866699461783
0.0228541218164894,-0.0229075461265432,0.00386220477982165,-0.0024305586164066
0.0258828572842341,-0.026887148015416,0.00881751498296273,-0.00318869307289652
0.0264854612027144,-0.0221197050474953,0.00809615901031303,-0.00361929480933862
0.0216264393261734,-0.0161007884165426,0.00476477958424538,-0.00251517905231597
0.016048366004537,-0.0115969352495838,0.00183486315698719,-7.03240454811346e-06
0.0128388318171241,-0.00559398880408975,-0.00108506825683586,0.00172545502947103
0.0148738290408592,-0.00295347697939783,-0.00285055494638662,0.00131137438895651
0.0205942923382689,-0.00894489661729855,-0.00185585982254352,1.96846183106727e-05
0.0217648201584482,-0.0120035942952679,0.00100893840223439,-0.000425930646584632
0.0171304986018932,-0.00210827599503499,0.00168907699644054,9.58272801433253e-05
0.0116075228549594,0.00479335529315917,-0.00100803417718063,0.000667953268922375
0.00833800488862692,-0.00211757612916875,-0.00397955215415733,0.000586880633602541
0.00546884990961208,-0.0121823957774187,-0.00296653931367195,-6.66925288066544e-05
0.000952461869173882,-0.0248903458646093,0.00274017856418531,-0.000661599921175006
-0.000585530439322538,-0.042978818738417,0.00884999820795131,-0.000705191936675725
0.000774199630138776,-0.0489813656749584,0.0160506204976821,-0.000213636868083461
0.00223267869039027,-0.0316209840116708,0.0211811984703682,0.000557504620649215
0.00475794729959837,-0.0038678480286423,0.011631968885538,0.000976152237577961
0.00668536376305041,0.0121414056707007,-0.00679963418597944,0.000393756800844859
0.00902471757671882,0.00159739115673012,-0.0101968012064376,-0.000673894985798854
0.0104347429118065,-0.0226403537855932,0.00329826818322454,-0.000956737278816545
0.00374303946856514,-0.0394670178210018,0.0139654459616222,-0.000317572266642136
-0.0080405878691177,-0.0515547486375851,0.0156725211035674,0.000227059435192796
-0.0126821698823728,-0.0542982898218364,0.00927671969583548,0.000150472676099668
-0.00867734423892964,-0.0352758267533334,-0.0107666470000457,-0.000463979032959994
-0.00556589589446858,-0.0204178600192856,-0.0288838973792742,-0.00160163607197273
-0.0058026034558443,-0.0296918660730479,-0.0217920963165314,-0.00276755145936521
-0.00449202304715196,-0.0369101041836314,-0.00122635497710482,-0.00296887775009888
-0.0027492688545034,-0.0249926344197651,0.0100811302982661,-0.00228416947625304
-0.0053947646597111,-0.00827526303805107,0.0122368535159901,-0.00137301166211551
-0.00866500596262478,0.00589340233154583,0.0129341767920613,-0.000219594082761163
-0.00908074001714598,0.0288868894084099,0.0131448246152087,0.00121249210479505
-0.0109851991184763,0.068408555643713,0.0118214951899094,0.00294348531181857
-0.017329041965383,0.0999343249847568,0.0085433168035149,0.0047467407544489
-0.0234349882338352,0.0780208120238663,0.00475660559071783,0.0057046006834293
-0.0211043715998288,0.00355489432108132,-0.000545088494570658,0.00526515393644183
-0.00900472768106808,-0.0643977452340203,-0.0102410523695678,0.00342713619106322
0.00749423408334526,-0.0778892549241002,-0.019564840606444,0.000400721521406923
0.0227507605542577,-0.0496543548943751,-0.0225757149204053,-0.00257358219659134
0.0382225860639236,-0.0183233808719837,-0.022464509933598,-0.00401448029092484
0.0546503086423735,-0.000974386911710649,-0.0229068006376515,-0.00427464879969871
0.0546058644960554,-0.0119932852947394,-0.0144264521729687,-0.00430897027874957
0.0224596165012648,-0.048775770531752,0.00589835401077933,-0.00325364187323032
-0.0255584905155347,-0.0682864385394255,0.0191153806867432,-0.000358687586068701
-0.0525855289730679,-0.0513840155031727,0.0152478249162431,0.00299694833445449
-0.0426308856899323,-0.0234723492594235,0.00684534343113415,0.00484545172356998
-0.019466343700373,-0.00338063382577318,0.00513400598571419,0.0042286826217946
-0.0187443641759968,0.00846193075414898,0.0071247591828381,0.00164591223734914
-0.0498886983574801,0.016879802466145,0.00895401465842523,-0.00145162847079771
-0.0791655358192514,0.0216407961518102,0.0100075959111704,-0.00334219751498282
-0.0726162866056334,0.0170552514211658,0.0082892407014878,-0.00318643224962047
-0.0406973144394485,-0.000191347810396475,0.00513035196631668,-0.00185712518825052
-0.00611983209009442,-0.0264936516621075,0.00172605555416457,-0.000558701777150281
0.0240518763771939,-0.0431288352267043,-0.00768720363784283,0.000466877694272754
0.0455548669373023,-0.0398981631761825,-0.0224633144665043,0.0014318339015944
0.051880093676332,-0.0401614066716601,-0.0289716621933562,0.00238749186648112
0.0445026607621321,-0.058079004088683,-0.0223239424358425,0.00355647560183271
0.0354140367895466,-0.0691732728551739,-0.0134451513896162,0.00515069740262455
0.033874233315585,-0.0454300243288122,-0.0124042608314887,0.00600914468567349
0.0377193373149492,0.000513208491395009,-0.0135390907277567,0.00418019502647195
0.0341069693168582,0.0293060814171487,-0.0102278980144739,-9.13674301738047e-05
0.0129475580858495,0.0427110690368414,-0.00845551934610666,-0.00438554742463531
-0.0167223974983191,0.0655767397527404,-0.00951868024422015,-0.00677018258884348
-0.0353146252301314,0.082074228278056,-0.00874539935276576,-0.00660402775968798
-0.0339313333285462,0.0626213705189015,-0.00417939747384048,-0.0045816952621715
-0.0195403390481326,0.0199535229380007,0.00220595785171636,-0.00227113344552945
-0.00936580342343144,-0.0102888818044659,0.00435664845839947,-0.000603988965731544
-0.0143297297087221,-0.0220410049702485,0.00311045794452259,0.000311252764256345
-0.0238572200805063,-0.0287117237513336,0.00543664939229634,0.000574064866366348
-0.0229098895429461,-0.036820747301143,0.0120516707736683,0.000487767551440138
-0.0129999366724213,-0.0491433856187518,0.0178148266667741,0.000769418763047326
-0.00483525776869519,-0.0595272510415412,0.0168719596753072,0.00222805947322648
-0.00418884067473354,-0.0539448897179454,0.00846212301898827,0.00431372199892059
-0.00701430432862752,-0.0377116391639711,-6.40273289680658e-05,0.00497834424464539
-0.00471814254016022,-0.0310892309247592,-0.00165516565964316,0.00330433574366611
0.00286356640463457,-0.0319823199791876,-0.000599909951533415,0.000689985864842996
0.00629132382185416,-0.0218813780803045,-0.00262575231302177,-0.00142450594934646
0.0023575759751443,-6.40283206889136e-05,-0.004629147052968,-0.00278951803732701
-0.000927326026976882,0.0219612170277406,-0.00341518012027911,-0.00308898144575313
0.00290369686075375,0.0349693906868404,0.00166299452298805,-0.00198595999453143
0.0114287698546671,0.0285944006104993,0.00783897983634996,-0.000534331147987107
0.0172631805848322,0.00682879869118407,0.0073370606583068,-0.000363805153788193
0.0148755708657978,-0.00223814491924337,7.28112088128965e-05,-0.00145386953595356
0.00879995346703987,0.0082880132332568,-0.00643828859650509,-0.00209830901168825
0.00633257906611404,0.00757313501405391,-0.0097428810990766,-0.000947217029346967
0.0026389706273643,-0.015956866140629,-0.00969451028484306,0.00135799997155522
-0.00668452509671899,-0.0345169732120546,-0.0064399269616352,0.0023281879368006
-0.0163215772806724,-0.0208257586371985,-0.00208179190609092,0.000441248810642238
-0.0254076064146396,0.0154131172306081,0.00249474580313674,-0.00236265910456284
-0.0380800849770244,0.0314604607248801,0.00460959050328149,-0.00308500643643002
-0.0428718559183473,-0.000228273650089023,0.00320841819278122,-0.00109341593175282
-0.0270482745563672,-0.0410127423638518,0.0036640250277475,0.00192929096569487
-0.00856211704616078,-0.0389789583826167,0.00616528429108946,0.00334309024057752
-0.00496645725816334,-0.00886304165914455,0.00701425089286504,0.00182406148639614
-0.00766263050198586,0.020324082679719,0.00485435693436892,-0.000971088891000465
-0.0110335754568346,0.0599559837510212,-0.000858618154836956,-0.00266204834997741
-0.01976903431105,0.112575100043154,-0.00587386068793802,-0.00256270802881415
-0.0230829586323813,0.13958292934717,-0.00487075625226008,-0.00142769331802679
-0.0080850542129804,0.109818036072809,-0.000464150528120438,-0.00024186149712522
0.0113932749395578,0.0438421230043927,0.00386921182798598,0.000319411672595806
0.02185801860699,-0.0153031669920961,0.0120215646190601,8.50751490584925e-05
0.0246103176877529,-0.0367573978716542,0.020839437017552,-0.000289386001237824
0.0171142412562745,-0.0162802416987356,0.0189285251088313,-0.000158999750531463
-0.000357906413384006,0.00473860249666035,0.0097170729725651,0.000631181532985318
-0.0141733188984545,-0.010778274699407,0.00610853530147767,0.00170162291565328
-0.00718422358882235,-0.0640865259937557,0.00991151958488757,0.00214714860202136
0.0181241569518416,-0.130579428195901,0.0149039299580379,0.00171289042874875
0.03701603329853,-0.14077057971084,0.0148808500182901,0.000863767199337682
0.0335702725823167,-0.0673780919679544,0.0122261702472258,-9.78708123636029e-05
0.014515930801131,0.02740721443071,0.0114811791839893,-0.000710350604351401
-0.00425771653162957,0.0903278042807333,0.00578221077599875,-0.000741526054850646
-0.0133840925645215,0.10329260727732,-0.00285177907365977,-0.00102111942794986
-0.0116504657250168,0.0752963776587739,-0.00199583091561332,-0.00205353249214709
-0.00204759955224269,0.0417574079879701,0.00177776696545549,-0.00236416741271426
0.00548977778169707,0.0235541944051786,-0.00412715884162588,6.20834434104569e-05
0.00458056275193834,0.0144034208171815,-0.0137108756089711,0.0042837614632455
0.00102445698602418,0.00317797281108082,-0.0179721277327952,0.00659716647432293
0.00105570778549701,-0.0107185710106236,-0.0153759607834792,0.00511112447458292
0.00598710851797916,-0.0204988344108585,-0.00699132454341214,0.00154735860538106
0.0151053973979286,-0.0221909691279618,0.00255586137347063,-0.00138471266552271
0.0217634626441705,-0.0190907777327975,0.00810899339280639,-0.0024899206699007
0.0164026880201776,-0.0167839243912271,0.00858714003605729,-0.00231309721122552
-0.00231047241818582,-0.016488446938434,0.00843374517913408,-0.00179142141591195
-0.0193803570604056,-0.0190371025533556,0.0112412243782618,-0.00103675116362535
-0.016416742890998,-0.0215098459469574,0.0161562282553626,-5.99655880046694e-05
0.00148362683430585,-0.0120570442718863,0.014470928690837,0.00060703201386893
0.0169087565334819,0.00991082724069309,0.00140770121967745,0.00059180532080525
0.0249452364684011,0.0260051682539746,-0.00620467836671762,-0.000241031558255856
0.0270211401015797,0.0267287899937715,0.00154414961607356,-0.00135864597312663
0.0252884908530494,0.0141987799322649,0.00940526956966705,-0.00201896367252184
0.0231023949419103,-0.00306972528171412,0.00749764873829619,-0.00220786522051984
0.0220587613844524,-0.00519282562961966,0.0022935198675525,-0.00180303027642966
0.019054429781041,0.00189702720119688,0.00191727223894507,-0.00100937861239049
0.0110600878459596,-0.00030128153266612,0.0043885026688472,-0.000507427622348253
0.00180498122760042,-0.00329154295288871,0.00184249848623941,-0.000235055674352345
-0.0033211031905424,0.00298085150583807,-0.00323768493265455,-0.000130999267858095
-0.00198360558326002,0.00982110702027728,-0.00575103278215132,0.000325079944657088
0.00226980779829353,-0.000222703424238975,-0.00440181143898918,0.00214228366109729
0.00217033544230254,-0.027555716666408,0.00430605098814578,0.00477330352029825
-0.00116527341065826,-0.0471086635171691,0.0149359098144669,0.0066846448198322
-0.00236915263221637,-0.0417113783890498,0.0127113038165143,0.00643406935131511
-0.00491993166246142,-0.0290476169544844,-0.00225159275772971,0.00284775429668617
-0.00994715630248988,-0.0299276992228368,-0.0103822810471885,-0.00305489043206313
-0.0129394781671897,-0.0341738895516406,-0.00547007158123899,-0.00756617820211061
-0.0139793515506811,-0.0241359289511045,-0.00178609537267089,-0.00836342094427266
-0.0123678581264346,-0.00203466786930999,-0.00279914577081612,-0.00656137822189471
-0.00621886359576297,0.0201936968661503,-0.00331185546445728,-0.00420145754455122
0.00180667181580502,0.0363748850669588,-0.00453651474519316,-0.00230193521070281
0.00820919473991602,0.0383358540998478,-0.00650069802899533,-0.000942825777208522
0.0103253997716843,0.0223808690101307,-0.00713486047634674,2.72850157518861e-05
0.00814395929426733,0.00525966729467223,-0.00628376505627534,0.000692001075643157
0.00392106563718899,7.54675464756348e-05,-0.00500320827559255,0.00117148937428554
-0.00166182405692233,-0.00651138065220218,-0.0032493422373813,0.00141375597578214
-0.00688344613005762,-0.0293752015222312,-0.000285799168803978,0.00112398751975057
-0.0093075446436863,-0.0476902932929569,0.00574552394871682,0.000248287005977182
-0.0086040450982917,-0.0354577906682845,0.0140752648997907,-0.000968953449773983
-0.00633292912250129,-0.0153625828224271,0.0227229605675671,-0.00203082304371819
-0.00425484526784892,-0.014211881940231,0.0300567611889744,-0.0024123184664405
-0.0059043187842972,-0.0166984333604616,0.0199804706955506,-0.00173022340655113
-0.0139854910511484,-0.00848066258162111,-0.0109856464964347,-0.000178860143167252
-0.024664161596553,0.00679364669305498,-0.0319026508269233,0.00126915154826248
-0.0322599615778391,0.0292935354766164,-0.0268459218386432,0.00173009910451005
-0.0313071029388598,0.0464892241495854,-0.0122788917259817,0.000938975666274927
-0.0247523499934655,0.044757529625579,-0.00331313596440445,-0.000325270553728718
-0.0249448537629096,0.0417205052007171,-5.42840015484297e-05,-0.000509872013478487
-0.02809510069485,0.0365227252199827,0.00522956371807993,0.00158793887219396
-0.0185017399922751,-0.0118489968543613,0.0143385892793668,0.0055024014188253
0.0030554368954635,-0.0860253820340186,0.01598628695161,0.00864995473430243
0.0163467310059424,-0.108149031127473,0.00699868874691428,0.00848073126881768
0.00719271866175764,-0.0684080750529939,-0.000674926448472564,0.00481305392444703
-0.0122224525183986,-0.01804400030963,-0.00551882160943094,-0.000546425574810929
-0.0215061285410172,0.00939021399825787,-0.0113379159959035,-0.00544747170082233
-0.0209037276034416,0.00777759652412081,-0.00856827092008549,-0.00836777548819596
-0.0197887006615897,0.00582887081255815,0.00645134439221521,-0.00841539015299746
-0.0119680320935533,0.0353802577191954,0.0147439235259086,-0.00571995683338023
0.00282613438353925,0.0720455891193749,0.00640822625878274,-0.00205590323785341
0.00849946048695332,0.0754902043689275,-0.00652331060345525,0.00051032942469132
0.000379230645011353,0.0602541745539939,-0.0170761076773365,0.00145295646218405
-0.0112813377224388,0.060160557125081,-0.0259790316498065,0.00192237843886812
-0.02098561002989,0.0670255404596517,-0.0306553536517243,0.00284674108519957
-0.0261982585309631,0.0546820817704053,-0.0295980502559437,0.00375061694567963
-0.0258829943385707,0.0362870437553997,-0.0263916576172742,0.00408442231018797
-0.0210784151259869,0.0268991247532241,-0.0195838188331728,0.00401947430622464
-0.00962206852807201,0.00576889826666327,-0.00810947426667279,0.00372931666848337
-0.00266954030328101,-0.0238183483540562,0.00186801798048626,0.00325321968801343
-0.00724539001050541,-0.0334333611062031,0.00617368976274768,0.00286548373660528
-0.0058167116248811,-0.00294481928793212,0.00430339983890828,0.00256660678040002
0.0063407485519099,0.0492689349370586,0.00095489931093057,0.0022323341323202
0.0101245026872415,0.0718429688750276,0.00193122686844391,0.00196067866247853
0.000321414490179625,0.0784842549480594,0.00496642333156441,0.00160719137713373
-0.00402718849641864,0.104888137649646,0.000878750369164399,0.0010968783174969
0.00282372104941696,0.106362434662585,-0.00930716050831451,0.000239896281108595
0.00637127371215436,0.0512845295384386,-0.0129959980842911,-0.00154257897992626
0.00107603195774739,-0.0142319040928853,-0.00406258656624381,-0.00414161539157239
-0.00781965520564742,-0.0477765953813669,0.00892312603298948,-0.00559680791000503
-0.00995357192671511,-0.0511172761020125,0.00874387253962772,-0.00389108389846976
-0.00586758493194443,-0.038723953293358,-0.00380121753584425,-0.00103139201560891
-0.00428672271288364,-0.012696611595141,-0.0124465248026028,-0.00105378398207105
-0.00551509533945007,0.0294217056371683,-0.0123099095053704,-0.00406251753154729
-0.00945331852456583,0.0753602552260241,-0.00990333667499275,-0.00563493300827181
-0.0136921555921696,0.089900766008826,-0.00976988768058837,-0.00239729284575956
-0.017109350695548,0.0630553487448416,-0.0112704507345435,0.00285000743777112
-0.0194243808073268,0.0338259037948656,-0.0118975046810601,0.00495973962495862
-0.013454593122438,0.0285304173727062,-0.0119651103185948,0.00356718992608856
-0.00260476860157977,0.0359726119516257,-0.0129009781721907,0.00189870385304934
0.00361960982320093,0.0415438132891678,-0.00966801543128998,0.00156792581599739
0.00640511413859529,0.043602812300626,-0.000490543878622428,0.00208422833985591
0.0109693609722312,0.0453365948317399,0.00512963500138085,0.00289282572009729
0.0272767395107201,0.0474737238188309,0.00585150700462642,0.00359972963659327
0.051152009754164,0.0503650859273057,0.0094361116025416,0.00324694730201774
0.0583711774316773,0.0571178815028767,0.012638545312495,0.00118931193352884
0.0391515032163022,0.0589911648675191,0.00829061657700256,-0.00177421018108187
0.00510835910547008,0.0411754117956388,0.0014378854100244,-0.00435320992548326
-0.0196286141681904,-0.0084591225695986,0.00426800498458233,-0.00562919737997498
-0.0138119128272131,-0.0770673830322887,0.0125801281779058,-0.00528326736508595
0.0122066471397375,-0.101403823676536,0.0128847025510834,-0.00401605031099072
0.028641539250624,-0.0614867862842292,0.0063238889584383,-0.00307790164451241
0.0231125178701934,-0.0216709281954498,0.00401737525099656,-0.00293567785905789
0.00422479361239893,-0.0117744104189879,0.0107285026782457,-0.00279590662527445
-0.0124701995076009,-0.013989921523351,0.0208017110037308,-0.00225695631920042
-0.0159760092366523,-0.020832201886058,0.0252116890540366,-0.00175885689951269
-0.010595284438492,-0.0230971371359208,0.0224461670972224,-0.000884004752614045
-0.0073413770031165,-0.0101220040628077,0.0206921668440057,0.00126188855941084
-0.00827620533298007,0.0179449130573296,0.020092982457884,0.0040647816675736
-0.010898742761557,0.0428641106757012,0.0127414150517134,0.00569618784627368
-0.0166454429844936,0.0414519642131958,0.000879088462433106,0.00520206309174466
-0.0223681839700372,0.0172462686515184,-0.00514097445339998,0.00292340085325692
-0.0176416964290606,-0.00431212421648599,-0.00373331215838303,-0.00012979175927356
-0.00642289267595318,-0.00996702241680187,-0.00269611754681689,-0.00298575016404236
-0.000977722661774868,-0.00357499504939765,-0.00316627018177933,-0.0052138178211232
0.00664397422451845,0.00115045884292797,-0.00494344839142326,-0.00583317193047127
0.0327649357601499,-0.0252662805627529,-0.0139482609515087,-0.0037256726040224
0.0600512574707494,-0.063393400598509,-0.0274507210287279,0.000124365376549745
0.0494984957270034,-0.0501889412448215,-0.0310773427337813,0.00271396218927572
0.0096342846340793,-0.0159641354359709,-0.0186918395298412,0.00220408295077223
-0.0148112717120684,-0.0376961199257599,-0.00669806416044696,0.000315630229577482
-0.0178983804061274,-0.0803110061784073,-0.00480245322915046,-0.000230635368215304
-0.022381679214346,-0.0568760119212163,-0.00292737264168993,0.00129121091655032
-0.0271748408212488,0.0191751642646781,-0.000839737338405977,0.00386927077571053
-0.0211596812154098,0.0840315215758626,-0.00265467282538392,0.0056133472240576
-0.00680343878286725,0.113643226649266,-3.97667827830156e-05,0.0051478640400799
0.0123356281225558,0.099036557509539,0.00840941772277356,0.00298713074332497
0.0332128817063857,0.0525240468409733,0.00875568206426742,0.000429649829056105
0.0465643250104678,0.00722602882790038,-0.000703298477130482,-0.00197716085110047
0.0418076154294373,-0.0212286740024178,-0.00646744522415185,-0.00344371947728688
0.0177363778089339,-0.0342187571275338,-0.00635153163921712,-0.00290293849654065
-0.0117923766015048,-0.0340373071925326,-0.00774443222641535,-0.00108910303427108
-0.0255001041460484,-0.0265603630611046,-0.0118163528659245,-8.30042509372521e-05
-0.0195083588417047,-0.0205791693666877,-0.0154250674543142,-0.000356471685715903
-0.0106993907307783,-0.0181791288986246,-0.0176351158931103,-0.000653728905401125
-0.00925565417277385,-0.016498190013732,-0.0199450789121094,-0.000551927290338964
-0.0119330303653345,-0.01642613897361,-0.0222660271740218,-0.000636974949215745
-0.0138927310566337,-0.0231053805721414,-0.0222633703350192,-0.000880365804858697
-0.0149940382138756,-0.0329757290596629,-0.0203673236318715,-0.000440896829901336
-0.0105702198008408,-0.0340526871541473,-0.0181580183241407,0.000721208461234233
0.00320043944125964,-0.0268990440094499,-0.0154876086767379,0.00176291215542457
0.0130780948771564,-0.0180618093036766,-0.0139122276409441,0.00242658144609903
0.011425388821864,-0.00552719337307542,-0.0144094636660326,0.00265315205526028
0.00489972215942367,0.0108362001216776,-0.0170998062282893,0.00215806794998002
-0.00585015942406724,0.0265449718180454,-0.0211637320293542,0.00076284581014011
-0.0167843068414563,0.0358969226936712,-0.0223642532401012,-0.000656090120640079
-0.0183067085287914,0.0372109491314317,-0.017101271499124,-0.000477842371448348
-0.0143628732222973,0.0454703903346185,-0.00587034553092391,0.000830579770961448
-0.0121251652074512,0.0496512161779533,0.00360374688663881,0.00206927161854724
-0.0118394041020144,0.0234278796810119,0.00114979609128062,0.00419120837899649
-0.0129533170153881,-0.00208443138667553,-0.00666375403071978,0.00674168797695861
-0.0136043756045948,0.00115270792639689,-0.00739620049519205,0.00671757707129964
-0.0126919969421061,0.0127421493644366,-0.00589331814369721,0.0029838885643082
-0.00847049465582174,0.0145164683102446,-0.00675638644666969,-0.00282061672344555
-0.0016958069397913,0.000958937146638757,-0.00400765797718541,-0.00793109621325058
0.000724606441017834,-0.0203627664804286,0.0022650709504762,-0.00992834535215575
-0.00189680924711671,-0.0381761260681251,0.00497606617544266,-0.00820340923266764
-0.00698687673588636,-0.0696608546862562,0.00385128051035395,-0.00408757753942218
-0.0162154092957009,-0.107622378340747,0.00455149686599697,0.000398238482230346
-0.0184911762523205,-0.0994643465328919,0.00862373545838774,0.00397380138235258
0.00311993687266147,-0.0591456575661656,0.0104476092536532,0.00615289704283607
0.0372215878482346,-0.044229787076972,0.00982155749012776,0.00655930529212941
0.0487531389279615,-0.0401914766777301,0.00916612448112119,0.004711016691872
0.0282601998436236,-0.0163418937893343,0.00465184743329854,0.000782072564788101
0.00256482129106039,0.015886856321502,-0.0030168054912715,-0.00357886396842096
-0.0118184671896139,0.0358455615875209,-0.00750364210640718,-0.0063672214293396
-0.0197697164188105,0.0313273942415773,-0.00650787093918623,-0.00675787440663547
-0.020919701973962,0.0126352842691472,-0.00321632785417647,-0.00516878303834047
-0.0108464406005137,0.000122554581101005,0.00259398341081901,-0.00254925967292868
0.00521919601601707,-0.00372714925657972,0.00945135492279306,0.000334929571959534
0.0157269461352048,-0.0143838859037293,0.0111447194885116,0.00287341925409698
0.0140766754526575,-0.041064995894808,0.00780542922877516,0.00423599045795576
0.00513182148782449,-0.0771719027058664,0.00460141597183769,0.00422916474423359
-0.00427827327939038,-0.0984761924336988,0.00551303697423499,0.00357608219744168
-0.00582719402338664,-0.0856101856429095,0.0135635298881616,0.00238946928273706
-0.00144201766159136,-0.0568912023092573,0.0242822785935688,0.00069399649058759
-0.00550647389042565,-0.0383951352682246,0.0225308601154675,-0.000752802029831063
-0.0128472754238047,-0.0411558735006745,0.0111754517513419,-0.00180467147734011
-0.0148299627031423,-0.0581027767286674,0.0101579257560454,-0.00230893905361477
-0.012295903516156,-0.0676749627709775,0.0155696796619853,-0.00189714877500114
-0.00268213482301786,-0.0592042970593194,0.0124278523873852,-0.00109146217671846
0.00827236156588202,-0.0389785029255938,0.00446016633968863,-0.000616522140862531
0.00746128611388187,-0.0188662136578435,0.00251955587544345,-0.00076971571536781
0.00395819764831867,0.000434623980456551,0.0041635995605593,-0.00101016109803554
0.0196670053398183,0.0198741786881484,-0.00203118948206624,-0.00028293182417587
0.043378600083483,0.0202949824263095,-0.0122411399492433,0.00125454255645144
0.0546334265137413,0.0024887940471055,-0.017175684139673,0.0019745711409729
0.0625674251287925,-0.00820018724092125,-0.0183761456386695,0.00111057067592738
0.071537795815808,-0.0198584241608849,-0.0127139771939256,-0.000404988609610545
0.060406677982217,-0.0464077583370662,-0.0014940289076457,-0.00173150994645951
0.0237763029824022,-0.0676393490542139,0.00508155621031439,-0.00260510240039269
-0.0133673062975532,-0.0574540916491249,0.00838535596757938,-0.00273973332586564
-0.0287625611711771,-0.0129344277739979,0.0136235910028003,-0.00248230141014003
-0.0242062160177566,0.0302338071111047,0.0148669955067756,-0.00303787406151154
-0.0198453204169657,0.0316327736310647,0.00928662881822218,-0.00440993012226524
-0.0244633807219727,0.00314401502719139,0.00491245714202757,-0.00439515777295334
-0.0276948561233267,-0.027928013547509,0.00750840883745398,-0.00149325270651419
-0.0231004884290746,-0.0564220485552812,0.0121401816212662,0.002709042633285
-0.0115549391189621,-0.0717822858032177,0.0101789933634187,0.00547666996700462
-0.0016863217745962,-0.0684586124088869,0.00438927040175673,0.00576621336023703
-0.000411920172589265,-0.0560326988520053,0.00269478467469188,0.00427551560674538
-0.0026760769873631,-0.045097964117835,0.00572577974559678,0.00187492773274854
-0.00345462295401513,-0.0402323056764415,0.00983656725462389,-0.000649962476762434
0.000752154862071731,-0.0254115555714358,0.0124377167518103,-0.00245321656232441
0.0137219292421892,0.0179614695236192,0.0141434478072855,-0.00334066254722929
0.0318607323865362,0.0641992662635687,0.0154814659717889,-0.00335651741477853
0.0405092865655273,0.0823415084594075,0.0147017980482529,-0.00229304216210932
0.0334179251443352,0.0938229174990105,0.0123124302247205,-0.000191072729897152
0.0238308375397131,0.109713799210065,0.00746998133588549,0.00238202343173879
0.020809098456197,0.0991915963299681,-0.00817461652121246,0.00409274075405414
0.0197129610655178,0.0559006091311542,-0.0327021663668014,0.00343609977653544
0.0136300335612056,0.0118355763509544,-0.0409485530658619,0.000213332003448146
0.00231256407589816,-0.0135007636987178,-0.0231941680558866,-0.0037046267324295
-0.00665146788270615,-0.0292620258334221,-0.00363709000573651,-0.00587930369326101
-0.0134921827874944,-0.0438219162995994,0.00496378543062594,-0.00554087593036481
-0.0218353034988621,-0.0524748179042363,0.0112527658472932,-0.00344022625046659
-0.0219009018664161,-0.0491384336245649,0.0149138701429059,-0.000812820761092329
-0.0130968506907557,-0.0383608109075297,0.0129112597751754,0.000731925541349002
-0.00961158386637022,-0.027374700907223,0.0107578229170449,0.000373430795260694
-0.0143556745399489,-0.00547281423178563,0.00895167141970591,-0.000579787594172978
-0.0233705018482221,0.034279325984304,0.00562772957868884,-0.000383602968845296
-0.0325894632681319,0.0681377380901351,-0.00228252192171725,0.000845459903849635
-0.0357172318542599,0.0705249449895041,-0.0115451531463014,0.00117663495995813
-0.0252828002149392,0.0480981908889002,-0.0119251319911228,-7.28123582672374e-05
-7.64461897270752e-05,0.0365055720095597,-0.0123828644865774,-3.97577351101757e-05
0.0233351653336769,0.0497732880600492,-0.0180978861780393,0.00309520674449455
0.0331297340383766,0.0553708303273667,-0.0176875069197959,0.00689952324099611
0.0342000055386157,0.0360552015037631,-0.0123044053398795,0.00838143663873232
0.0329083198809437,0.0106142113758417,-0.00700088521122784,0.0065540070865744
0.0312559217200643,-0.00217399832889301,-0.00292106730353646,0.00257195744751259
0.0269295068125728,0.00946811260281229,-0.002916628460594,-0.00122036624865346
0.0152855469026501,0.0397506541443801,-0.0050313672590941,-0.0032986609664644
-0.00147201253599891,0.0578425398465943,-0.008356085723537,-0.00370959167963029
-0.0155023032267306,0.0490307046949702,-0.0122146444863423,-0.00325210740145967
-0.0286650178253673,0.0376270527556545,-0.0120689907176038,-0.00237538879202395
-0.0408262864331855,0.0366384824294665,-0.00830787866218392,-0.000999174708972903
-0.0464041620488489,0.0421700857673546,-0.00481038112763677,0.000660892965308227
-0.0453578504569539,0.0627687238750885,-0.00326918661166319,0.0014485800164731
-0.0341293714646342,0.078086527915258,-0.00266945480869802,0.000125282846444184
-0.0100418811667736,0.0407928503108444,-0.0015161885515475,-0.00253049370085308
0.0195354484942769,-0.0298154263926182,-0.00274342953099599,-0.00434646237714453
0.0328318173156068,-0.0665684444146648,-0.00382511248827085,-0.00423649384375767
0.0145002318044165,-0.0491860816777785,-0.00292301736900048,-0.00213635935519753
-0.0118827600508797,0.00234401232217912,-0.0092021674842213,0.000899820813478192
-0.0214604521977452,0.0557782437654074,-0.0173181030764575,0.00274791950623187
-0.0200425306797108,0.0754009320399392,-0.0186172009424302,0.00298413258866521
-0.0192471757934712,0.0472331990331491,-0.0204369816047965,0.00270962037095012
-0.0219437097915161,0.000560019555577329,-0.0227590726819437,0.00212754668666496
-0.0233829552005003,-0.0286780352288153,-0.0162023176751361,0.00107937270366252
-0.0205265017928876,-0.0498213877976363,-0.00261549256770386,0.000130141136685855
-0.0182115943318713,-0.0941475647114484,0.00469010049190013,-0.000194029608078998
-0.0154686157240292,-0.144125648002437,0.00367620817028012,-0.000314350227145339
-0.00725548176973514,-0.115381354130595,0.00551657666537198,-0.000511725512492585
-0.00815709642958289,0.0214195557528971,0.0102876905818929,-0.000628049267315897
-0.0374330371977861,0.178535768995477,0.0129808971658334,-0.000954132968986214
-0.0811025552282044,0.273324537368256,0.0111763975097824,-0.00163669172997449
-0.0992755870778836,0.29148811615777,-0.000119708741166041,-0.00231685329753371
-0.075498169350794,0.247189618796521,-0.0100493298147357,-0.0027958405686347
-0.0338584296979124,0.164410109855573,-0.00415167113809295,-0.00258341058907552
-0.00623567407839622,0.0822282387656953,0.0101317753097878,-0.0010920351092306
0.00319622554286877,0.0333100365853472,0.0220423785054393,0.000964019337890026
0.0166488699488063,0.00151879678085201,0.0341709678140615,0.00263266434901819
0.0365375147770412,-0.0586144111811722,0.0503198727506161,0.00382377462985391
0.0542380884981073,-0.160164926433633,0.0615562631852748,0.00493968207210447
0.0769597777805839,-0.25097665498178,0.0554412959914718,0.00579071305526871
0.0931909985959442,-0.268993555759762,0.0310945961470157,0.00466502367358193
0.0840445589522795,-0.21262584361222,-0.00414755612499808,0.000472684588545018
0.0468278441898824,-0.12171429480033,-0.0360202756776872,-0.00554627146270759
-0.0100246450600007,-0.0563876274125308,-0.0518336815179219,-0.0106236477301615
-0.0593718038882879,-0.0506555573048807,-0.0481159334312998,-0.0118558083413033
-0.0761913581442252,-0.0744242432858955,-0.0227933652776622,-0.00869851588973343
-0.0650348568443697,-0.0774991963260005,0.008839588932043,-0.00343839453400554
-0.0477677480389721,-0.0340010128773406,0.0243648921875529,0.00151886215360568
-0.0360680852563081,0.0489973546744127,0.0239233590215869,0.00473175596730753
-0.0238854647625733,0.129647780943948,0.0182456708030602,0.00567684538213557
-0.00178773024375029,0.163182403429023,0.0140948146459099,0.00498676932802855
0.0265607288630862,0.150040900049559,0.0127711399770754,0.00365887432203668
0.0457639287542097,0.114158133949919,0.0140991347906249,0.00283817765789694
0.0529102365507612,0.0908921328056599,0.0142553040751988,0.00364433306604432
0.0572019422096492,0.106181393742931,0.00757361970238908,0.00564343783581289
0.0571297653822537,0.115498291703542,0.00309003850573321,0.00647773209642385
0.0443886902077708,0.0695588936315607,0.00442766072418144,0.00466483530567028
0.0209328896887139,-0.00878704833267258,0.000849942091554798,0.00144595158317976
0.00105542046779307,-0.0788388599404709,-0.000101800197138482,-0.00124471990735238
-0.00326641225298176,-0.11124660847281,0.00457416309915823,-0.00271966814728862
0.0077587186303276,-0.113369358335363,0.00545697823739037,-0.00273562761254129
0.0192261520605104,-0.107410073582899,0.00485881244721814,-0.00110504935926584
0.0118504237991022,-0.0894765139481548,0.00587041047813056,0.00106802087525029
-0.00878748228205791,-0.081115806123449,0.0125327176322239,0.00212803629131475
-0.0175657131131615,-0.0892527821743205,0.0202388856811409,0.00157135383132408
-0.00652449264017637,-0.0692543522717277,0.0140083021533373,0.0008310245345123
0.00498171716273373,-0.011044243047738,-0.00300126604856701,0.00267562910894665
-0.00013832681190807,0.0352301403348765,-0.01591515373386,0.00753864837543396
-0.0136713161495498,0.0399781659017191,-0.0203791932727502,0.0112516389504954
-0.0287210765292199,0.0257936462548561,-0.0153297511565263,0.00976813536362462
-0.0437068909644451,0.00913472431041887,-0.000347127646189325,0.00525835311447323
-0.0424095146086338,0.00359738884415493,0.00845610682105402,0.00258654167396821
-0.0235524530199983,0.0378753654153478,-0.00234439603050392,0.00132554187667218
-0.00698088005251638,0.088275154847999,-0.0174025535357589,-0.00220590613420176
0.00226171322344786,0.105300186907574,-0.0265480669392125,-0.00777979429021404
0.0078322113023412,0.092863616318674,-0.0337657125807192,-0.0124350959621267
0.00933784192942318,0.0695450862670898,-0.0314872596654905,-0.014531788472728
0.0109089887706167,0.041241126059191,-0.016056364255467,-0.0126226851396846
0.0176120032845005,0.0151145246639921,0.00180455860202415,-0.00643694182301987
0.027609049374408,-0.00877209292676596,0.0107624525436527,0.000712544606376746
0.0309993866649204,-0.0233304923258008,0.0109967836941603,0.00525527942041333
0.0195265187463682,-0.0179790168406672,0.00853279432238464,0.0068154661614453
-0.00216541236108582,-0.000683662185887177,0.0030857861829347,0.00705030827225221
-0.0199855037802891,0.0149229410261682,-0.00379551877647921,0.00691667877772548
-0.0216152260068459,0.0217669957181073,-0.0096713358413336,0.00549332604942435
-0.0157692485797999,0.0229081590744066,-0.0149647546262561,0.0020909337559737
-0.0230983506406869,0.0219356424058494,-0.0176258491023842,-0.00152031046896491
-0.0418852275377265,0.00582937662906326,-0.0162817161472285,-0.00298150705960218
-0.0527175820771216,-0.0323375230339988,-0.00841007036125984,-0.00221357193864827
-0.0426555987258036,-0.0757783978634683,0.00815071858943744,-0.000540850777762317
-0.0216233337699808,-0.103130233401857,0.0197405324260918,0.00141676083398625
-0.0104234510551264,-0.094995241373024,0.0121313994293638,0.00330135658928753
-0.0106323142122904,-0.0615673524938382,-0.00145955793854215,0.00424502095537167
-0.00892911593895095,-0.0373026878480812,-0.00417288597648991,0.0031747592853169
0.00014843763007218,-0.0270655587730147,-0.00168260631768481,-0.000457036093474026
0.0114278228439014,-0.0177746660857042,-0.0031109476296976,-0.00598370972390823
0.0218169243293469,0.00801059972460515,-0.00301771360780108,-0.0120999693841506
0.0328903743444664,0.0632425923043078,0.00281899514557705,-0.0167819329622018
0.0402129866016268,0.112733639127754,0.00838370936988297,-0.0170195075640122
0.0373623911960665,0.118743758303893,0.0114255271910894,-0.0115517395391916
0.0286099279137147,0.0986465158911962,0.00991511421175165,-0.003173644037106
0.0229998212699155,0.0713876429766319,0.00128686767521304,0.00305203578457904
0.0278055261424699,0.0271072753748536,-0.00681885726660407,0.00407667530102642
0.0378866556858777,-0.0294138331268757,-0.0122449202667275,0.000722833363426617
0.0361287989607357,-0.0691259673539506,-0.0168732378432471,-0.00421105038432155
0.0220046482055037,-0.0846852992461379,-0.0179782862214208,-0.00781811840445647
0.00958890093307372,-0.0927020052293384,-0.0175205291007892,-0.00870226301490571
0.00439559032231385,-0.104562997159097,-0.0153502916462686,-0.0072047495379545
0.00538401978037756,-0.111397493490072,-0.00988565053452231,-0.00418034979162669
0.0096126616767929,-0.098288504915894,-0.00191390735815951,-0.000657191428515289
0.0160010781576776,-0.0690480215845213,0.0055417427034795,0.00261372665687233
0.0236937576095604,-0.0249660831788256,0.00879039666366645,0.00556599254498207
0.0307094913624652,0.0265445864676902,0.00830694508478233,0.00896142081500057
0.038792451248086,0.055246310113353,0.00569886444461369,0.0129445880312693
0.0487606304896265,0.054391712679884,0.00605609401465076,0.0147230236947418
0.0601880518064477,0.0533801022123196,0.0139112304759774,0.0114915715702593
0.0729618296712685,0.0574161456730745,0.0200249713110306,0.00494404311627338
0.0880515667186035,0.0414863506040667,0.0123920510146674,-0.00105190908472302
0.0926713196389542,0.0157444251606666,-0.00338513441625714,-0.00463795496892811
0.067335757802079,0.0173507889715499,-0.0113220511626451,-0.00569719311340078
0.0175791352415239,0.0475536251097823,-0.00661981827858959,-0.00466174342066848
-0.0302666515282207,0.0755218853179472,0.000936988691741951,-0.00305842553914037
-0.061069109702889,0.0756574139904205,0.00512584706433332,-0.00306304182708892
-0.0780155927315916,0.0475517249700458,0.00854286781411425,-0.00473558015463412
-0.0744962293035974,-0.00551852364047496,0.0105802856137997,-0.0051859154245918
-0.0442155064115936,-0.0897213706355142,0.0110505451147221,-0.00239117403748356
-0.0108606668562211,-0.149425453709001,0.0105300682774332,0.0016297730791698
-0.00411739652916933,-0.128846015537495,0.00871136745373746,0.00337624954898846
-0.013996558152283,-0.0787992529496121,0.00988317878613565,0.00229586414131935
-0.00437681184588758,-0.0471679226509047,0.0102920798644707,0.000546039852325654
0.0231341242082292,-0.0225929857410695,0.00446353974749816,-0.000474800586354832
0.0326285151385584,0.00067477469668091,-0.00132471900043846,-0.000951992588633986
0.0212419997451598,0.0193744018454086,-0.00448118175591228,-0.000481633874105001
0.0208043131759152,0.0365895673894788,-0.0065320645624081,0.00232457913843206
0.0394057844745462,0.0621643098154343,-0.00282606264121425,0.00746650732855601
0.0494137338172562,0.105423002581579,0.00474078014873016,0.0123141005128841
0.0321366508401949,0.132958219440038,0.00725715225154826,0.0137423175665473
0.00875755575197344,0.0965556668174598,0.00698613512773577,0.0111747717983795
0.00874429917572605,0.0351974941710394,0.010207296009344,0.0066838861084228
0.014246085186575,0.0187794763009134,0.013292141257331,0.00263712518417933
-0.00629203554159103,0.0310673608625452,0.0105849745589977,7.04118062911912e-05
-0.0336481254015261,0.0207310608440136,0.0035741070863065,-0.00126041333475532
-0.0362644006909683,-0.00559731809307613,0.00231714884829355,-0.00157614569793574
-0.0220297926234318,-0.0061885124447734,0.0114232601297375,-0.000389142530259611
-0.0143558355309134,0.0183122033133276,0.0188687495143038,0.00180314153016915
-0.0124014927085501,0.030586531851948,0.0179888649067588,0.00283070796621424
-0.00665512766683742,0.0128711942769282,0.00966188278135111,0.00153480873710935
-0.00208831821653667,-0.0390674153874989,-0.00397457639308015,-0.000367830139742707
0.00516368420781406,-0.112000818861699,-0.00733245795429624,-0.000900971436294676
0.01252160125347,-0.137675344362563,0.00207033276347423,-0.00101268389275277
0.00065553989892966,-0.0827682439702613,0.00685456410803148,-0.00265804248776262
-0.0204602837892026,-0.0177960727925277,0.00392090130794795,-0.0057140612418846
-0.0320272245015031,0.00376838937074728,0.00428758367579091,-0.00857116713576531
-0.0405218785138422,0.0106668025026321,0.00896965480820061,-0.00945794342931487
-0.0496019217907186,0.0185032819794118,0.00984297068663671,-0.00749296572823592
-0.047909151507571,-0.00128804450764693,0.00949485731690142,-0.00366019576954849
-0.0340924813016413,-0.0298060124224262,0.00794447503800151,-0.000151228481456326
-0.0250834968625789,-0.0266842157577562,8.01089911729672e-05,0.00159451562804237
-0.0255489592848198,-0.00711285187757955,-0.00520933974263815,0.00202159302202896
-0.0246741102100792,0.000348720298759313,-0.00169340379259567,0.002186730460251
-0.0182172036096504,-0.00494213264488471,0.00502184227355394,0.00245310826032242
-0.00849456198779192,-0.0103208186125086,0.013244496684495,0.00301194792510464
-0.000926370724043168,-0.00456875303947262,0.022693464749077,0.00411577244363326
0.00790562236002057,0.0235264985262028,0.0264189041301608,0.00542421696590604
0.0290473530157111,0.0579069752306678,0.0192821323485837,0.00508398462221477
0.0528636662550476,0.0626408277400437,0.00514099703617386,0.000992002212834137
0.0630153916980872,0.0269088271582711,-0.00388590206581562,-0.00554903281735969
0.0624758116189668,-0.0318187396271732,-0.000106107793693791,-0.0106606286474741
0.0508738550077869,-0.100317931372956,0.010176856369566,-0.012061913303053
0.0285163640111749,-0.168734080318618,0.0172612556702985,-0.0103203824262484
-0.000848618971235462,-0.184831243522469,0.0143451775884838,-0.00740204033911462
-0.0455155181169614,-0.129275706902532,0.00465457900458971,-0.00444594722826197
-0.0909182323333301,-0.070636681125415,0.00238823029658638,-0.00156717366456564
-0.107301198057544,-0.0533112355293499,0.00841742525748963,0.000652768616045501
-0.0961926026744595,-0.0467379752200072,0.0113883256877691,0.00184331395677566
-0.0845890058210935,-0.0139900017650361,0.00739753566961161,0.00326526321639677
-0.082026046009131,0.0282772639822897,-0.000796725770389818,0.00546717013547631
-0.0671976725706341,0.0334319096053447,-0.00422833739987312,0.00626631363421646
-0.0345298321520563,0.0235876567845849,0.00525320151452666,0.00418056941206076
-0.00999865458510127,0.0718695577646222,0.0181190693875911,0.000726168383993621
0.00159694272305015,0.121877253385076,0.0245908223159031,-0.00215540931966785
0.0357398341616609,0.0406917583778664,0.0332843830675833,-0.00381968074544196
0.103757288332259,-0.0952351237640143,0.0423136842315062,-0.0037773271808459
0.148450975389962,-0.111554939235844,0.0339835427257919,-0.00179314042704364
0.123233145665071,-0.0468953958511399,0.00586151245022682,0.000936620671151929
0.0599923109523297,-0.00802092877253741,-0.0319692885705393,0.00278783321118813
-0.00520492503564943,0.00499876563848185,-0.071881140212942,0.00273220684830881
-0.0731463869529679,0.00342016654951621,-0.0921645633174156,0.000845950163927792
-0.135864525669611,-0.00775039043577321,-0.077916155236237,-0.000810925257085856
-0.168261856002373,-0.00659824759412034,-0.0469950335120874,0.000218567558158241
-0.163467800433119,0.0159405415184564,-0.0199999243851312,0.0039958886643754
-0.132253008776524,0.0485052714920408,-0.00498423889392197,0.00839403506241431
-0.0761973832489064,0.0838478211467937,0.00440824400237649,0.0112485930074109
-0.00455959094593628,0.122168252653632,0.0140032294712409,0.0108131020439103
0.0658060982863728,0.136527955670372,0.0175786961940529,0.00562859676398164
0.112389460309249,0.0919186185644698,0.0178845535750749,-0.00257608807212066
0.117961844316673,0.0144992047825488,0.0191763647347726,-0.0081051149748216
0.0924996813512385,-0.0356930096961998,0.0180243286237208,-0.00739191083250248
0.0445444345534719,-0.0482386430433065,0.0157653729104764,-0.00288991943737917
-0.0048291464626966,-0.0393177123982787,0.011365629846631,0.00133089399768027
-0.0286839623909286,-0.0143388954367287,-0.00183949315639666,0.00371317135387825
-0.025327374025728,0.0145749827802834,-0.0201192781504839,0.00389359691238395
0.00463190114876774,0.0358693942041884,-0.0274362952014214,0.00167877926806474
0.0293219949242674,0.0495041084533032,-0.021170985483504,-0.00144032161612734
0.00947292799800849,0.0540042830330025,-0.0146173374810451,-0.00259812976149773
-0.0375648340413543,0.0505323609742137,-0.0154108793075981,-0.00051267928666199
-0.0642489616998218,0.0544875539524606,-0.0239112608485504,0.00306131357789872
-0.0390646872229658,0.0669676964896555,-0.0338906614254001,0.00529587267677667
0.0109109658242228,0.0716296017952663,-0.036463308041028,0.00522970128363829
0.0317301213388922,0.067751895408787,-0.0328466691215114,0.00370202413961499
0.0182830269394367,0.0605606400954829,-0.0289150144011646,0.00142758611597642
0.00285933915551365,0.0495524772634467,-0.0242582021779228,-0.000703623021557881
-0.00122655235719361,0.0367027353269185,-0.0170508373111132,-0.00121794145520761
-0.00450698008041733,0.0227039082981047,-0.00790743903601011,0.000647203117646146
-0.00822997516447075,0.0126389343622397,0.000122960910241467,0.00392255019724844
-0.011723235028398,0.0217214082065782,0.00267331757554175,0.00599600587383484
-0.0177917227974433,0.0406297926043881,0.000251448699904484,0.0047262280485483
-0.00875514630874757,0.0362033025039851,-0.00302683626181216,0.000284876470627807
0.0279967498568505,0.0065914098834032,-0.00271668002126145,-0.00571394535880303
0.06579178246395,-0.0279678116706626,0.00367365854578865,-0.0106300503928341
0.0665209272753728,-0.0530806313298712,0.010992849152973,-0.0115492761451628
0.0351604423270195,-0.0584343737747155,0.0114715545073808,-0.00849802433450658
0.0113009253199245,-0.0557564122926477,0.00685779963362592,-0.00458599909851732
0.0100066091944445,-0.0542723001004468,0.002007812864028,-0.00256007834770818
0.0171977187928469,-0.0362313057316896,-0.00257296433863354,-0.00310620681864467
0.0240802068034948,-0.0116614390302952,-0.00468262157374935,-0.00487334675985532
0.0287893668281034,-0.0095578778961081,-0.00427038554369357,-0.00585621298547691
0.0228922049409664,-0.0301712481990385,-0.00218617610286932,-0.00545018671864855
0.00844232983927478,-0.0598630291328171,0.000180312196527177,-0.00428777495547974
0.00342247132424881,-0.0733379240752179,0.00264851982529571,-0.00312307142114261
0.0108383222151675,-0.0364465852227335,0.0107712019339894,-0.0020582163575856
