-0.00488090947808315,0.00850723171422579,-0.00654750965949568,-0.000166803826808385
-0.00557678208998252,-0.00374223431751165,-0.00281550044626991,0.000407168386148151
-0.00467100042390865,-0.00879986281453822,-0.00239772459681016,0.000405518155771937
-0.00289183696798991,-0.010382993220494,-0.00214534511740857,-0.000255699074617636
-0.00368650978453953,-0.00978763216362211,9.24299190464776e-05,-0.000957337011626606
-0.00400826777501115,-0.00875044614109949,0.00114077767113709,-0.00109194775707093
-0.000496812894789482,-0.00970103021628459,-0.000409887643072486,-0.000765187261748852
0.00224203529977147,-0.0114460091754632,-0.00216765584617181,-0.000328433124794067
-0.00017773498845743,-0.0105333813586157,-0.00390235608348165,-0.000133708373280969
-0.00357546292503686,-0.00735071946729933,-0.00701777132561758,-0.000182261425859566
-0.00428602147468463,-0.00387858051567615,-0.0101707558815503,2.84469963218424e-05
-0.00544101764274913,-0.00137028465816756,-0.0126276764726196,0.000786684016241621
-0.00862570975322511,-0.000742482069528141,-0.0146247924556839,0.00175595308755961
-0.0113199150375955,0.00275603917891313,-0.0159711366514754,0.00235258319204777
-0.0123445238507914,0.0144679609851205,-0.0164479426868533,0.00219234907310042
-0.0125337877084678,0.0292249520899087,-0.0166783902670822,0.0012561693664229
-0.0112034839406352,0.0366860561489709,-0.0176003124199185,0.000167977427676265
-0.00804783085775093,0.0304127335643598,-0.0158361246091478,-0.000440655544212243
-0.0021441186510922,0.0145508097570869,-0.0102121760322224,-0.000401799741754764
0.00872663171615854,-0.00166357941981944,-0.00430599540531662,0.000156376614230721
0.0178770383553124,-0.0135901143907448,0.000429942671586428,0.000940945844024895
0.0181185144861677,-0.0189045634562183,0.00515086223944528,0.0017540284300123
0.0136459635859482,-0.019715111934492,0.0103391865195939,0.00230060945922042
0.0107973884871589,-0.0198574397426709,0.0141305776057194,0.00232941417291327
0.00909181029869716,-0.0179262753044167,0.0153204716677699,0.00181952232766403
0.00467496732240728,-0.0134663114136853,0.0154413255924743,0.0011652419011204
-0.000269151643098049,-0.00844106875926226,0.0141610215572124,0.000908020068319944
-0.00236370522942933,-0.0042669519288906,0.0102719971439192,0.000852475367862739
-0.00351505481973869,-0.00382933555436099,0.00680135257766482,0.000468562303255104
-0.00486616832563971,-0.00397040401212837,0.00485309577360821,-0.000167015546910843
-0.00551241443676032,-0.000592011983769427,0.00167441417023137,-0.000519490008630701
-0.00495446941953462,0.00600072289752172,-0.00432652324394012,-0.000480415425328378
-0.00294199571162056,0.0173734272803741,-0.0115844904828635,-0.000370614795705641
-0.00095035816992303,0.0280437022767536,-0.0146084003520966,-0.000483305515467283
-0.00100207492017143,0.0292363106684481,-0.0109971522347392,-0.000911085177532324
-0.00293405375362588,0.0209946846055956,-0.00524214236082691,-0.00123527847385382
-0.00491412212879113,0.00656845330796819,-0.000817118613211838,-0.000887541862116054
-0.0058151253514024,-0.00890751797065163,0.0023798224961008,-5.35084471013081e-05
-0.00605783776855518,-0.0169816133933154,0.00472331455654718,0.000583048825749349
-0.00477920758715424,-0.0145996181984787,0.00585705133425227,0.000977397807241167
-0.00176169465303948,-0.00793117810505711,0.00626264362383895,0.00135053733115711
-0.00136932833760201,-0.00334679776750762,0.00638151397104584,0.00155410731246131
-0.00648654981806834,-7.12208353442711e-05,0.00612557904086665,0.00150498259427774
-0.0100362470499867,0.0026840650537533,0.00656709215556945,0.00127531372763399
-0.00476520132269668,0.00241306633916207,0.00671672546681438,0.00100184018317986
0.00637056969700281,0.00143607106845526,0.00457607136069306,0.000692988000775559
0.0171614751344181,0.0026423765003762,0.00241720787374206,0.000178608769384585
0.021549571589203,0.0035804301171228,0.00135987138318362,-0.000501720606043601
0.0168929662281725,0.00170718468428424,0.000519073347505481,-0.0011218000059985
0.0075714386154259,-0.00140068088009004,0.00101743413221287,-0.00144398348457742
-0.00176948322198715,-0.00328644996010633,0.00296517889434712,-0.000977425409987724
-0.00758057086185507,-0.00517424258324961,0.00450871863444796,0.000349469991312116
-0.00808664819464768,-0.00600279895083997,0.00426205578381192,0.00156281211270962
-0.00596324250183652,-0.00327469617533874,0.00511250541140867,0.00174725344458428
-0.00391393254335451,0.000133823608281783,0.00691809357703633,0.000976865022821367
-0.00381408301820603,0.000888221405565783,0.00609557256480299,-0.00017405949102139
-0.00452237436438347,0.00108032331367689,0.0031432107447355,-0.00128853981569539
-0.00465956499266017,0.00286750595027016,0.00129681739287868,-0.00202794704118467
-0.00485474573489396,0.00262580827357824,0.0014313022190987,-0.00218572710775413
-0.00456392847674996,-0.000849012244936731,0.00215210393766848,-0.00183822733490783
-0.0033615816238649,-0.00287304996908101,0.0039208133357179,-0.00120275804277164
-0.00149093261186036,-0.00247752775308331,0.00404656754194485,-0.000664440907416952
0.000683536234191652,-0.00213129884352665,0.00255091623390445,-0.000516990277482492
0.00337072088135783,-0.00232445591212961,0.00416184590027113,-0.000722567230575071
0.00480785254720747,-0.00257123626498794,0.00652751208292446,-0.00108892563307931
0.00393244227801958,-0.00289365908948654,0.00638052524167138,-0.00125799914432703
0.0040463389061283,-0.00132571974671183,0.00330231304651631,-0.0011232835461346
0.00537234602564373,0.00319729381678454,-0.00193746070760971,-0.00104054507109072
0.00450338222931275,0.00828275929427567,-0.00632201070340371,-0.0011917463432518
0.0014873844954155,0.0111504281011779,-0.00747162412767743,-0.00140609152540009
-0.000974987520139331,0.00457599852829486,-0.003429906131845,-0.00147865252348517
-0.0025313370191353,-0.00985162535206897,0.00308846452801826,-0.000966087673204012
-0.00286617253460003,-0.0160279433376043,0.00407418456618088,0.000490746337432881
-0.000828293471722945,-0.0130827024504313,-0.000913258926285791,0.00199833868115115
0.00256432073356463,-0.0108089751728296,-0.00428614788749975,0.00224307431402576
0.00795026719700661,-0.00875412130056397,-0.00514349865157781,0.00132295010445309
0.0151452454339913,-0.00636848297956076,-0.00559534851188631,0.000158722562524338
0.0244134320373249,-0.00589086191080467,-0.00509375093599401,-0.000768571494226235
0.0352222749297475,-0.010516839635276,-0.00409469051549822,-0.00112301500922029
0.0413508213201016,-0.0199811054552228,-0.00264110355213626,-0.000743448811052623
0.0389248757776372,-0.0277716681030269,-0.00036471459449112,0.000102455426512049
0.0304082054541375,-0.0310288318220268,0.00192427134891287,0.00112862676181259
0.0219835994210611,-0.0324912172822485,0.00390145745321748,0.00192058123254345
0.016500199502422,-0.0264808194908086,0.00583050383920271,0.00214589479345795
0.011081155969301,-0.00427437230730537,0.0066576999862855,0.00188806150860072
0.0012248167155637,0.0199683225884478,0.00706882358987583,0.00121587534883324
-0.0134178325021294,0.0262627032264032,0.00762437209791869,-3.97275008369503e-05
-0.0268350195227593,0.0183404912474873,0.00468412107864416,-0.00194030480647754
-0.0353879280010952,0.00865071852583201,-0.00362711667781591,-0.0039293330592612
-0.0337376487123637,0.000237635398501999,-0.0114415881409214,-0.00507138576808868
-0.0180594074623794,-0.00705255682579101,-0.012269076706799,-0.00469865950202103
0.00114794006308395,-0.00794904925680165,-0.00756235588669469,-0.00275159622943535
0.0108404216062935,-0.000668879994434192,-0.00299575929969654,-0.000147303578932236
0.0107540383248307,0.0056443865559848,-0.00194907137403407,0.00186436201679442
0.00983827049289994,0.00568859426917246,-0.00382921487665356,0.00298911906353482
0.00927663870395515,-0.000670884493693333,-0.00523711452655333,0.0035666186091215
0.00539502995295496,-0.0121446445510081,-0.0049767040987386,0.00359625097347035
0.00073315365412294,-0.0206281356867702,-0.00565865745645857,0.00290083769643219
-0.00145284699291184,-0.0213665295064388,-0.00597781216248217,0.00187611844256802
0.000594042405117647,-0.0188634376309188,-0.000287009021908272,0.00129248310642244
0.00560614957860279,-0.0159103286151389,0.00757928190877984,0.00128715788594006
0.0106528839919215,-0.00880502815671837,0.00734022673981504,0.0013224084828862
0.015092872595954,0.00373734890627665,0.000843107706570322,0.00103460996058883
0.0201341993863902,0.0145564650501096,-0.00504442220717525,0.000395432685371248
0.0242888323829691,0.0158102537722633,-0.0075400116571311,-0.000470497582355578
0.0213674064179557,0.0125780970752221,-0.00681922211341294,-0.00109871185522177
0.010833149853452,0.0155143464796643,-0.00754864854899186,-0.00137639434644785
-0.00199485957180331,0.0220949378833448,-0.0102591288494127,-0.00176662188708869
-0.012764770276789,0.0242013280600532,-0.0110245450327882,-0.00228333089753844
-0.0199538502563529,0.0202330556060032,-0.00913070059238047,-0.00243470077822101
-0.0227472034875697,0.0134278925967385,-0.00376413126706325,-0.00220415146573251
-0.0202395717285607,0.00871570113634792,0.00339667298112638,-0.00232125149433117
-0.0163919419887452,0.00662217783482215,0.0054233235867568,-0.00267113355463996
-0.0142398601569727,0.00570716698032157,0.000640703045795651,-0.00204606095179239
-0.0131341367432085,0.0053688147370402,-0.00557205244913737,-0.000218013729329974
-0.0122514687866812,0.00582826347988699,-0.00993352629925755,0.00183069582439698
-0.00915617493614411,0.00806516478208473,-0.0126972153473385,0.00317390304519841
0.000675971457589021,0.0123634665007019,-0.0143050395420322,0.00333028519080992
0.0146576496292532,0.0159606586764758,-0.0147169043456092,0.00249831251757414
0.0207963781261294,0.0114921218111577,-0.0120713694831783,0.00137214710627481
0.0167764994764327,-0.000426265726725087,-0.00489254093340053,0.000674328146215886
0.0101774874231164,-0.00996789216100088,0.00175718742165415,0.000996180376253215
0.00666893484450756,-0.0127416675720918,0.00335953906713198,0.00190115660008568
0.00753144697433829,-0.0131111311887889,0.00594393957108548,0.00212350250376387
0.00703979346579461,-0.0150712090731421,0.0107631422442562,0.00134120905626691
0.00468688026862897,-0.0170607544872314,0.0126923497673449,0.000178718972265764
0.0053085851388019,-0.0173077356890557,0.0126354910479718,-0.000970890911691042
0.000640942859096346,-0.0166477796242216,0.0110318167959371,-0.00177357081248968
-0.0155605143962637,-0.0151147987291478,0.00810929575604043,-0.00193458901941151
-0.027879450926231,-0.015689322189172,0.00633008506211286,-0.00146064488948314
-0.0221256569543616,-0.0206272350441998,0.00481810283681444,-0.000691808656654569
-0.00832529014607859,-0.0249758821947646,0.00220126843463414,-0.000361598491227436
-0.000575256220300725,-0.0179137831749111,-0.000610087904165147,-0.000859797926765083
0.00298452691614644,0.0131719709639189,-0.00529514266864476,-0.00194136213182003
0.00928105720752965,0.0500537651574175,-0.0112401214496054,-0.00294852962133486
0.0190913570697956,0.0542005464403567,-0.0123643759883259,-0.00302306774604629
0.0272606091927837,0.0267267868231662,-0.0101080551280344,-0.00177610532169698
0.0289964393122463,-0.00423074334106287,-0.0104125168292678,7.82985831129495e-05
0.0252754232406562,-0.0226426407464801,-0.0128550626472034,0.00159308051176408
0.0228469348309455,-0.0278482917349632,-0.0150372321116211,0.00290044249913027
0.0246102299266392,-0.030583255909967,-0.0139967599316281,0.00417878252349848
0.0230244243483288,-0.0358101553637842,-0.00917426329621075,0.00444250030560748
0.0130814658486178,-0.034380527068199,-0.00600447579629521,0.00278245938572688
0.00468148787651064,-0.0244613200654213,-0.00736849735578134,3.27226024977728e-05
0.00575326276702236,-0.0160023825738381,-0.00922883012903952,-0.00178546378834937
0.0109455673252168,-0.00966142580143729,-0.00980180317629009,-0.00167569744517544
0.0139363903250895,-0.00350231347787895,-0.00894805691937712,-0.00051780055117153
0.00985579152783244,-0.00236155645494468,-0.00488479976880798,0.000658377580980779
-0.0016001816243342,-0.00272718915114051,-0.000397852440196515,0.00194384505571954
-0.0133096584493181,0.0016626648254593,0.000684717369758715,0.00314111186304641
-0.0194406689021891,0.00686813230945493,-0.0011291547533751,0.00335337977860722
-0.019069430711491,0.0146903309874151,-0.0055549606839121,0.00237604776610208
-0.014977711702819,0.0341992407130286,-0.0124972260639545,0.000658530660459952
-0.00522744817922041,0.0582538432661964,-0.0162889157365357,-0.00135491500366726
0.0136371992773649,0.0629178965527831,-0.0138395218541706,-0.00315946715106223
0.0309229914596965,0.037532807169415,-0.00888075946164029,-0.00410788895056739
0.0321196580898434,0.0047760431119068,-0.0035163997233418,-0.00410169205651826
0.0171943810706416,-0.0112685235487378,-0.00201993563758338,-0.00351416441127464
0.00122376282000726,-0.0148097324728126,-0.00467313469822318,-0.00242033546850688
-0.00398065602783174,-0.0182298944357358,-0.00577671686487429,-0.00113235124126155
-0.00349454823189178,-0.0195683429656659,-0.00852014479258153,-0.000275960010378767
-0.00768756578002639,-0.0123515752411713,-0.0162644862970742,-7.9356070934046e-05
-0.0174162602805702,-0.00298659479423686,-0.0260380168559982,-0.000173104115757215
-0.0232492078807636,0.00194202981030537,-0.0349388332406056,0.00011428398613707
-0.0185061785183802,0.00735242762569242,-0.0386221135146674,0.000675334774335436
-0.00814085881143391,0.0124254404125492,-0.0325903482957101,0.000868149968274957
0.0004833896643026,0.0134919243895425,-0.0191045809015276,0.00109415038373264
0.00544435089126084,0.0213196234011364,-0.00856090039932184,0.00186742595646791
0.00836635499424341,0.0434645280305522,-0.00659859732364945,0.00206452683440866
0.0105008383246184,0.0614321313444793,-0.00665812076791569,0.000719948607223142
0.00942349722777606,0.0569909682594831,-0.00424254239676311,-0.000900094754888868
0.00504244651048158,0.0394350166794202,-0.002021174184519,-0.00116220093140244
0.000105397352275744,0.0227806794444605,-0.000889994213575888,-0.000375584947130379
-0.00531071990436876,0.00851643096801916,0.000832448433300772,0.000197051978576673
-0.0106524052091857,-0.00463500491837531,0.00466163398035312,-0.000211566401214938
-0.0137827010786217,-0.0143258554274692,0.00924341915419065,-0.00141233792157708
-0.0135968693634432,-0.0219104045035173,0.0116389928601206,-0.00206722842071795
-0.0117743194558431,-0.0307900408882171,0.0127309787726819,-0.0013691633886172
-0.00854463195547692,-0.0373660130088467,0.015299721980717,8.32663598223512e-05
-0.00267163864304979,-0.0372083153855812,0.018638050091188,0.00135081794949621
0.00225219681011546,-0.032909793441728,0.0217245603564055,0.00187065107103302
0.00438914345887189,-0.0293385301699386,0.0244731234148311,0.0016626958242211
0.00579922999200749,-0.0279796622838125,0.0272127466088855,0.00103675378294991
0.00694269971153752,-0.0279345803292318,0.0292624349273129,0.000331892569647836
0.00668391950368734,-0.0292703558990264,0.0287478267461541,-0.000139119383951337
0.00518643538568405,-0.0323782016874605,0.0264702828828529,-0.000132358599217513
0.00619615970115961,-0.0284001872293817,0.0237121447006059,0.000383339810050053
0.0124657425481739,-0.0108505643136975,0.0205340708457374,0.000942928393071926
0.0186874599091628,0.00659394593269134,0.0166816354682084,0.00110571772420346
0.0158184558495624,0.00700213595119282,0.0130604300770785,0.0010811001990942
0.00532651059937614,-0.00883587554023831,0.00576484178482887,0.000889636127653296
-0.00643915031715439,-0.0214695445266492,-0.0104995898426023,-4.23902720901742e-05
-0.0189631002978828,-0.0100177220641475,-0.0269350146585869,-0.00167611272788453
-0.0252089743598549,0.022468696699314,-0.0313233576155613,-0.00306042377956608
-0.0155968694052953,0.038951129990538,-0.0203184108805995,-0.00333140024428094
0.00258264575831224,0.0164468465398109,0.000937295912160137,-0.00209526084281261
0.0171923040275713,-0.0122421260445664,0.0174464825862644,0.000305575216677057
0.0236366703587086,-0.0132520240110801,0.0211512160355669,0.0027416045082868
0.0203273609131128,0.000440819063947377,0.0199559103797466,0.00414686129656394
0.0112694308193036,-0.00146977027322466,0.0226275357421961,0.00436084024158539
0.00247277831924623,-0.0211604327837789,0.0280286494578203,0.00385398606343316
-0.00525062332024711,-0.0313929579006163,0.0295447610107764,0.00289936858463638
-0.0133433803619613,-0.00749292907332624,0.024706506259397,0.00178666790866933
-0.0255911148674542,0.0419570296878777,0.0168916858163817,0.000776502349356623
-0.0493196983399088,0.0804242790587437,0.0105499356797826,-9.17807360096079e-05
-0.0724370403052572,0.0822682142503736,0.0061708361942941,-0.000464933825969337
-0.0663180363826464,0.0533044987176243,0.00215933879891122,-0.000349714440778757
-0.0270692105506995,0.0154772180989489,0.000851925897538321,-0.000547601226888614
0.0186467210247062,-0.0117344031139654,0.0038056722485749,-0.00126706795772206
0.0453109647485911,-0.0172908277671839,0.00743474854133507,-0.00189057727114232
0.0496513230863942,-0.00866001840425785,0.00916019714592639,-0.00190173044439037
0.0370549763949801,0.000918691159524063,0.0090045215628626,-0.00125376857421678
0.0148587811327136,0.00870826354991791,0.00759337990394886,-0.000319012802957236
-0.00414219644579548,0.0164158670447223,0.0054991136711978,0.000494838239712331
-0.0129913881123348,0.0243069102527496,0.00293498809990643,0.00100317895693196
-0.0156191194853919,0.0302269200807984,-1.62221096719432e-05,0.00123636005841705
-0.0168532609331233,0.0338444342460677,-0.00202164047999235,0.00111434860818326
-0.0178558682385881,0.0377086950726684,-0.00254321283103343,0.000540974920779271
-0.0193505615405003,0.047178060154916,-0.00423679645659729,-0.000135203121899395
-0.0213003242817561,0.0630827630349206,-0.0065321570054751,-0.000619202179403505
-0.02373304769255,0.0738928390411878,-0.00606252300408461,-0.00106850183979535
-0.02581857477039,0.0712628378990772,-0.00314247433796686,-0.00153555556694229
-0.0280260596577574,0.0590959578910522,0.00120406560231597,-0.00175108610452137
-0.0300178339643882,0.0451533440691878,0.00541712346554373,-0.00158792965516566
-0.0285526305918368,0.0361869401577187,0.00700935521580733,-0.00124102519830825
-0.0238650827973511,0.0323662238473601,0.00705828376036328,-0.000938479513191609
-0.0194655123996147,0.029500363318311,0.00731699117612201,-0.000900011444410087
-0.0170482764716871,0.0269059130478633,0.00730182325821605,-0.00113230866936573
-0.0161471454495918,0.0248385653161813,0.00808737142351899,-0.0013068653112357
-0.0156021901351339,0.0229520172587379,0.0102326477747609,-0.0012615696518574
-0.015429028991299,0.0200843990894546,0.0124609977122553,-0.00100057169794638
-0.0163546828787528,0.0159424924962495,0.014657956770617,-0.000589881375642534
-0.0178422405855443,0.0123202190445394,0.0159565703641046,-5.97179061571924e-05
-0.017446090617593,0.00936660270012625,0.0163698335475939,0.000577102381450999
-0.0121034118360683,0.00668692134595281,0.0165309250524891,0.000979937377107795
-0.00428087572689459,0.00483303220560402,0.0157730053065726,0.000947016961541384
-0.00112372543733747,0.00426661215203338,0.0155607698968007,0.000696753934585372
-0.00107030017337744,0.00333136369572861,0.0169072799613089,0.000480166123632844
0.00291333681681741,0.000724777614471348,0.018258786821329,0.000275941003314344
0.0095153867976996,-0.00216010572599412,0.0186031060394874,-2.8698589314534e-05
0.0136388431901014,-0.00368852931993216,0.018825836693144,-0.000489819458032989
0.0140887644801274,-0.00432527323985932,0.0194610643170414,-0.000975875564544415
0.0137747483484746,-0.00553228010773764,0.0203378805603559,-0.0011401582470529
0.0139579170931113,-0.00551712295901491,0.0216865458058697,-0.00105470517948793
0.0128121484806848,-0.00342587137798072,0.0225051887604534,-0.00106855596330384
0.00991708183445236,-0.00185429957456681,0.0214981743496769,-0.00116639932176688
0.00729861686041153,-0.00179136865736595,0.0199353784628611,-0.00112285291055561
0.0071048098162448,-0.001195723370452,0.0200320314329123,-0.00088531949138146
0.00718290636008919,0.00102518908606009,0.0202071824281592,-0.00061093106078667
0.00556701375348402,0.000700130028964812,0.0196074100524828,-0.00040747083544518
0.00538694330367798,-0.00447874505038286,0.0195123503081472,-0.000247748070525908
0.00673487989135719,-0.00900753477659676,0.0195247233001449,-3.02414695009674e-05
0.0071414723288989,-0.00981944490614872,0.0193890618314703,0.000310526091135934
0.00727191516020763,-0.00884707745241855,0.0186591092173552,0.000652693801807139
0.0067235742032386,-0.00679971756078434,0.0170375683964798,0.00098119972805958
0.00518311908021953,-0.00571729969427028,0.0151397188887654,0.00131535307711672
0.00459971218921355,-0.00614305756851232,0.0122359213859602,0.00149410037427845
0.0056061678214711,-0.00548990249207501,0.00920463806611322,0.00137921514970282
0.0088375783330352,-0.00400918475279821,0.00788557428691202,0.00105096594390047
0.0135176828269447,-0.00374150003843929,0.00749772261885831,0.000741307762757891
0.0169373303140025,-0.00310159905355376,0.00710770332187041,0.000445608716610809
0.01756577298448,-0.000939498070472932,0.00550785004151981,0.000212452137558709
0.015232353578018,0.000439927927283592,0.00279979412484961,3.29958319487675e-05
0.0121377206766639,0.00185655226035759,-0.00111050838540085,-0.000356407608701356
0.0094348477799023,0.00341589418244672,-0.00592838844871444,-0.000840502623694951
0.00677254483741331,0.00244855873880112,-0.00794899904411791,-0.00103459608748056
0.00552041235637604,-0.000869798664147578,-0.00539313856680992,-0.000676960947296184
0.00687027757461913,-0.00378497741707533,-0.000909125163277531,0.000236026264837663
0.0106205177727434,-0.00458065208142538,0.00417313019749536,0.00114393180738835
0.0142978405729609,-0.00515129934477229,0.00905501253461878,0.00137236435816417
0.0133468887173775,-0.00526374965099525,0.0101516734884638,0.000786722472024423
0.00888466643059573,-0.00333706852904077,0.00821205860191894,-0.0002773242960872
0.00719628966350835,-0.00303777712938943,0.00618114795084071,-0.00103917714162238
0.00833156190878655,-0.00741386972396101,0.00235354441967273,-0.000926743312665245
0.00812628528395889,-0.0126572422974298,-0.00370146620885277,-0.000207442891753336
0.0070288832145688,-0.0139593641253021,-0.0074578400372398,0.000579920796145508
0.00572653654155587,-0.0125118665002526,-0.00704806542499548,0.00127872791375201
0.00485734255056848,-0.0108299980943281,-0.00316256793581126,0.00189725428213547
0.00670217336355439,-0.00913708218566112,0.00238610366004593,0.00231341115944203
0.0088071201193281,-0.00768047325350479,0.00446217818626748,0.00248649795034952
0.0094850296248009,-0.00599539486329554,0.00286446754142318,0.00232503747990443
0.0104625643967224,-0.00383758096651567,0.00199949140019886,0.00166149732592173
0.0120616914002039,-0.00176397067294951,0.00288299595287746,0.000693753197984089
0.0122175128339646,0.000124463208197931,0.00229969738961438,-0.00031743656045134
0.0089153576507076,0.00155749482701907,-0.00131866577974437,-0.00129812465875626
0.00563482834876902,0.00192985155046018,-0.00645124333211137,-0.00204375150254286
0.00557202612799267,-0.000370828904441037,-0.0108790758531175,-0.00236392573140739
0.00558017176871274,-0.00317723599851612,-0.0133326567829909,-0.0022106650226462
0.00404304361088207,-0.00375675749881057,-0.0150644918211872,-0.0016322737536689
0.00265683631890402,-0.0046230812846703,-0.0147381507967988,-0.000978955662751498
0.00118461683631766,-0.00607413443634323,-0.0121620832786956,-0.000526676821730078
-0.00183637166201612,-0.00918370596437634,-0.00996396052916278,-4.01450984952448e-05
-0.00726682486543974,-0.0177070750369014,-0.0105803355256771,0.000595013707034724
-0.0113538412007154,-0.0289109495533271,-0.0146523721750712,0.00106932799624632
-0.00882941225401258,-0.0336558863559382,-0.0170906568027861,0.00122382837930997
-0.00198335362913526,-0.0292144088376301,-0.0148729545884201,0.00124439619416677
0.00321613592277568,-0.0207498246461203,-0.0121039899038842,0.0011894351132831
0.00410102586668877,-0.0137846785081453,-0.0117486802119531,0.000972468833604295
0.00597020867639097,-0.0116295410144162,-0.0115246520880724,0.000702617374206756
0.0118829615224952,-0.0126252521891848,-0.00975889858420841,0.000494143602870694
0.0165561804055253,-0.0120585053625394,-0.0066825314819811,0.000410734133831867
0.0192776092622411,-0.00797047322156546,-0.00260272871902188,0.0003368327763698
0.0203267749378118,-0.00469828603792422,0.0013690203642011,0.000180822662580145
0.0192371046960568,-0.00460420984246166,0.00245622251212985,0.000304575836001671
0.0178551478543938,-0.00746753783845271,6.3947823661597e-05,0.000680644788603328
0.0158727021264615,-0.014125960611044,-0.000237749793081185,0.000882702283253262
0.010836571380419,-0.0204055723098804,0.00147472619044933,0.000693961243310484
0.00231460918427756,-0.0205289070865552,-0.00140255285291585,3.26847756748259e-06
-0.00658486073872449,-0.0188928795464373,-0.00840935903776544,-0.000896473335552542
-0.0138267057479813,-0.0262931747688768,-0.0143622774550333,-0.00152893635583241
-0.0195808104191812,-0.0422861828791698,-0.0171345462890005,-0.00189419050942157
-0.0218857781885814,-0.0566004708172834,-0.0199889758339783,-0.00228156663997095
-0.0184103151801299,-0.0628990151871515,-0.0229223451471889,-0.00245712445108871
-0.0112002831132199,-0.0611684824889253,-0.0223043222348503,-0.00201414239815858
-0.00356026243690488,-0.0517071035958996,-0.0217426664393169,-0.00110592737483224
0.00360323679126771,-0.0310788345186981,-0.0248822319961448,-0.000142040806198517
0.00787182739472428,-0.00264840445482614,-0.027564258161109,0.000377111147505995
0.0076841652663403,0.0145550478605607,-0.0244961895790124,0.000414289306573757
0.00631785165248772,0.00861544761757535,-0.0166873193830437,0.000625249405153479
0.00399014227768463,-0.00506382598454365,-0.0102081835109482,0.00133032535974141
-0.00104171498953572,-0.0074621384652722,-0.00958096417978541,0.00202486359657413
-0.00627214918604929,-0.000351734508293549,-0.0131417247920319,0.00191925132540437
-0.009367951943335,0.00214798314837407,-0.0135875233188887,0.000981884068398176
-0.0102201658532012,-0.00445703413393926,-0.0101764383524879,-9.30895231101656e-05
-0.00919787324513037,-0.0127278696951942,-0.00879195780581918,-0.000835519866123415
-0.00719689014020107,-0.0203493101050525,-0.0100507148928323,-0.00106226075156619
-0.00446903056995194,-0.0246428474516012,-0.0119421483494049,-0.000933549375234739
-0.00168408312457697,-0.0179174147585247,-0.0144168408645211,-0.000877806164532534
-0.00151801003030198,-0.00376615862741134,-0.018026693577141,-0.001117925249997
-0.00438446241166221,0.00442906829142255,-0.020330126129226,-0.00154373021003584
-0.00648091906348795,0.00346182997917546,-0.0183734172093241,-0.00167713789210329
-0.00559967496197025,-0.000494383390527535,-0.0133922470474318,-0.00117134428743524
-0.00208875903071271,-0.00480494866495521,-0.00894873551824702,-0.000378140512708783
0.00253378487303402,-0.00750264935224571,-0.00711904612503339,0.000418410244235268
0.00484380719728023,-0.006631806576296,-0.0069677047263754,0.00101155606683644
0.00360244042280687,-0.00309797073182766,-0.0080163809762303,0.000984333444121076
0.00266624826571786,0.000542073172167756,-0.0121202875546915,0.000560455822982162
0.00350019975849991,-4.54406315122287e-05,-0.0169240434507595,0.000133974278382483
0.00361084936137689,-0.00448224953057744,-0.0178743956377074,-0.00031073253563502
0.00112821416093404,-0.00896663006478811,-0.0145676748627165,-0.000659810074166662
-0.00299450657717414,-0.0119299743274742,-0.0097516702610086,-0.000679119384595449
-0.00809614799461469,-0.0117808486761834,-0.00604368974531602,-0.000442886931179524
-0.0185893232681209,-0.0100486041118805,-0.00181434158966157,-3.80365479021187e-05
-0.033409066563448,-0.00921129985738656,0.00189975438439788,0.000345148068820286
-0.0375781713762148,-0.0122331486481989,-0.000102170487764945,0.000307114161962674
-0.0211940689186582,-0.0209578817030311,-0.00493870779392636,-0.000136129839699512
0.00121365091395086,-0.0258568195971432,-0.00750120119891682,-0.000683394648329804
0.0119100756690236,-0.0144166447677202,-0.00896868656690848,-0.00122608793129663
0.00957624046378605,0.0110826653392167,-0.010568488821148,-0.00164282275377351
0.00364454828727468,0.0300378912424407,-0.010856078395343,-0.0016460815538044
0.000929676124986597,0.0261351651457398,-0.00794848858058589,-0.00124916878464678
-0.00174294519572278,0.0108829886081758,-0.00514028422599397,-0.000659993544633993
-0.0028363361330078,0.0011740965864016,-0.00489266500720375,-7.88939083115571e-06
0.00117842311233258,-0.00230184388753541,-0.00530829300606955,0.00063504157678255
0.00301120675336171,-0.00155096635552042,-0.00649333780982534,0.00120390641533352
0.000216687138031596,0.00469560614857366,-0.00806975568567652,0.0014775864647561
-0.000756317858685195,0.0146622456620389,-0.0109950340122852,0.001193395208541
0.00304809001664353,0.0194962937405492,-0.0134490889429819,0.000326928568539642
0.0100980762402649,0.0101188945265917,-0.00984956057362169,-0.000472475663031658
0.0168350267340096,-0.0029453370335183,-0.00427432901854107,-0.000534261200124988
0.01952179168551,-0.000382849577391708,-0.00302982437243237,-0.000154610754281517
0.0167711576852304,0.0142169956223476,-0.00387346701707415,-1.46425664745057e-05
0.0103660992667941,0.0213501560206594,-0.00154537740080558,-0.000290147266319672
0.00322293360791849,0.0103455022516868,0.00485684625304418,-0.000397156057688302
-0.000694763693501486,-0.00886677573349837,0.00929092157430647,0.000247827324852916
0.00033700035398369,-0.0201316720038768,0.00832399556812551,0.00118584839436238
0.00279622202665622,-0.0206479861567551,0.00545216988898041,0.00136231493195683
0.00408520546038326,-0.0163112380152696,0.00284343508080487,0.000635690348662144
0.0032145233339684,-0.0138698310243664,-0.000418533959702518,-0.000175475229560026
-0.000861525495519046,-0.0115830374287265,-0.00251207513791787,-0.000515842339654192
-0.00348070338933684,-0.00515499981652809,-0.00252141687927721,-0.000331531185936391
0.00107781731307693,-0.00391401773364568,-0.00259207110379759,0.000113672803244765
0.0112140346908523,-0.00940635788430247,-0.00277351887957024,0.000258787768293774
0.0215088301213565,-0.00808039619539961,-0.00146033343739337,-0.000229021281268304
0.0290486404797732,-0.0020087277544556,0.0023061433558089,-0.00099458868892807
0.0368112559022003,-0.00219868547209744,0.00584783577864921,-0.00143761879047531
0.0478595431451043,-0.00552966495425246,0.00642876234633829,-0.00133198200731053
0.0563916254235041,-0.00853508487631904,0.00581535924571599,-0.000789339881624789
0.0559425325565964,-0.0108432204545796,0.00745671232684314,0.000225422554387165
0.0451221385698307,-0.00975345880354639,0.012056221129334,0.00154833538723625
0.0244486694176772,-0.00856519891770055,0.0137086961383165,0.0024499249079105
-0.000133900032071657,-0.00887520625772559,0.00827075167690295,0.0025235243607865
-0.0231259670674289,-0.00916032350306478,0.000530023356986049,0.00211019159821176
-0.0378734787111662,-0.0044760729000661,-0.00476955271796687,0.00170857188643262
-0.037881989516432,0.00817730388882553,-0.00438117033612065,0.00137236528180925
-0.0333473262847132,0.0188977536694606,0.00325427775197007,0.000944557001534705
-0.0415129554443081,0.024095304942211,0.0126483609814546,0.000436660663768173
-0.0580268238047949,0.0308351633390243,0.0159744395871126,-0.000109036646231441
-0.0566148037974011,0.037623055354612,0.0116550566514249,-0.000683998744480382
-0.0304000619759431,0.0355457401353554,0.00599543076667135,-0.001371243616823
0.000417012444054538,0.0206034476499088,0.00594230284808156,-0.00207420447231989
0.0216354202917606,-0.00117677941738412,0.0105524600391748,-0.00220787005498752
0.0313984338938034,-0.017759293176416,0.0155356920867414,-0.00139745311439592
0.0322684632064558,-0.0256955726609678,0.0191238664366173,-7.42714158172087e-05
0.0282243309456084,-0.0298674552646104,0.0187324509108007,0.00109450684978388
0.023263841831142,-0.0306583933768206,0.0160070647966423,0.001847876928686
0.019213953791918,-0.0285759548829657,0.0149773764703375,0.00210803031042678
0.0134809391521371,-0.0251111551847736,0.0133497279956446,0.00184602167082606
0.00350858883145793,-0.0195987652375721,0.00932351563996368,0.00134469763409735
-0.00819895724924638,-0.0116252591411624,0.0066251628673175,0.000834854672987998
-0.0208990003727664,0.00113554188725177,0.00727077057362312,0.000455584530732812
-0.0359510569976639,0.013704871415131,0.00875873695646775,0.000240124308501578
-0.0483213743242922,0.0141672786135802,0.0100919217230017,5.9547965429782e-05
-0.0496751227176772,0.00242197491650945,0.0123130134631794,-9.90635335568136e-05
-0.0382733561421851,-0.0119785469441775,0.0152987501189276,-0.000302797920633993
-0.0230011336339558,-0.0184236865401875,0.0175760950652048,-0.000624906062987954
-0.0133222082053847,-0.00836616848415079,0.0159754880288896,-0.00103590222929931
-0.00974647979962308,0.00892519242682397,0.0101574240709625,-0.00159147659037988
-0.0109117889332142,0.0174026071161961,0.00403691833582574,-0.00243721167128894
-0.0163495836583843,0.0164464066183568,0.00146682021184122,-0.00327289304812211
-0.0205619487404168,0.00963101614191484,0.00304460509223327,-0.00342377043915981
-0.02034089018235,0.00112614159703904,0.00522466692046854,-0.00248405746309182
-0.0176849975324869,-0.00285988015364464,0.00541870954489959,-0.000517321405692374
-0.0154413045175089,-0.000824998488838033,0.00389425379321746,0.00171446499300784
-0.0159333843116048,0.00544380849431236,0.00197001964934398,0.00299472743412939
-0.0168882075025025,0.0116291478597309,0.000417467160289581,0.00293069002631403
-0.0155273446824051,0.0156391328768548,-0.00211071722100729,0.00228607625640507
-0.0131397723609717,0.0195083792029327,-0.00668412943205475,0.00159556675992144
-0.0107192012674576,0.0205101927840085,-0.00975938655117264,0.000872386765028388
-0.00864733411170459,0.0146678401101885,-0.0061042959487549,6.12158748789704e-05
-0.00816237514032897,0.00754338398337284,0.000660427728483234,-0.000812894810210573
-0.00799937647858322,0.00438498179061889,0.0044198419053769,-0.00147543685443384
-0.00596586429012432,0.0028566075784369,0.00596823719763564,-0.00179571494752785
-0.00235460881691193,0.000961805441858837,0.00651875040988265,-0.00179414699386435
0.00231025915424746,-0.00306007173094275,0.00583872874836306,-0.00163790198105698
0.00582800387406385,-0.00666548391956978,0.00421860999784908,-0.00160996584867478
0.00625674475798826,-0.00354818583039078,0.00211217415416156,-0.00167541501795696
0.006061716755569,0.00322837782015007,-0.00093129213721709,-0.00161679743034657
0.0072423402015722,0.00694856175155623,-0.00435343695331359,-0.00121751552500001
0.00929123268930203,0.00731042427951166,-0.00567790060447087,-0.000493185772124484
0.0106485447347744,0.00619461079346795,-0.00556046146747919,0.000292028672796681
0.0112923240591965,0.00509956680961378,-0.00581281038468741,0.00103550094864039
0.0120606565927018,0.00467516643666125,-0.004540495355693,0.00169769655958407
0.011798078271839,0.00540121144958812,-0.000528629244166833,0.00214670931215548
0.0111186044967227,0.00746069927059456,0.00222068162373641,0.00226764427244695
0.0108542734757956,0.00914210334463346,0.0005164865777304,0.00206597203688555
0.00888643927773017,0.00841371994986796,-0.00440326811688936,0.00163025555353279
0.00535879731594493,0.00604793269258387,-0.00981073784714376,0.00109871518756611
0.00144375954429127,0.00542743319376751,-0.0124725892504861,0.000652622206231348
-0.000331871868996166,0.00715163397066887,-0.0116414840752249,1.97309204081715e-05
0.00407899456154513,0.00707207775077131,-0.00712081188884978,-0.00120527751387686
0.0113845055077236,0.00383646288307701,0.00117318652679354,-0.00255341949715458
0.015150575678412,0.00121824536411932,0.00937721285177572,-0.00303355123914171
0.0147004771198174,-0.00111418426018054,0.0140626409512638,-0.00229064127638106
0.0136514345234182,-0.00404125575927108,0.0161127781916279,-0.000873319874079325
0.0136564514828192,-0.00475974779112291,0.0160042509195949,0.000595307237530081
0.0133323145471749,-0.00321684635025912,0.0129407471835728,0.00166180885805898
0.0123347547491706,-0.00252640502960396,0.00762534354285071,0.00198191577256398
0.0100313987304289,-0.00432343000584492,0.00207807805795327,0.00175461217989278
0.00681982383552709,-0.00680769250607409,-0.00144315654870811,0.00147197270077033
0.00193761264608616,-0.00913948728316857,-0.00295935358390904,0.00129877669605541
-0.00689621761202536,-0.0115814712354892,-0.00473604200153742,0.001234668508774
-0.0147732392709797,-0.0146617391665382,-0.00793924862971913,0.00107522358531435
-0.0162765287912398,-0.0114548453777749,-0.0108695773211885,0.000345336144965918
-0.0122665344960078,0.00311943375521031,-0.011505360467153,-0.000906884137679132
-0.00591951220948501,0.0134256828706156,-0.00895648009981771,-0.00193481747726275
-0.0023205617656453,0.00771424394861663,-0.00447469622002426,-0.00186730637190938
-0.00322067261907165,-0.00553013068274134,-0.000848429389969142,-0.000594577022240071
-0.00455590996451563,-0.0138647453666864,0.00126476041794705,0.0010287469160442
-0.00392143647113866,-0.0140894371642012,0.00171655810909536,0.0019877286877196
-0.0025466955464986,-0.0126084539418834,0.000359499273148647,0.00176711911103399
-0.000379048571638152,-0.0115887149656773,-0.00126565881649737,0.000650005287847384
0.00253545162215696,-0.00882762476518063,-0.00276746011365486,-0.000689937124228468
0.00483945363142746,-0.00655470815729379,-0.00287662913623125,-0.00181431846088286
0.00584221212218216,-0.00698134818822184,-0.000220294998642485,-0.00243644863386268
0.00463574711134029,-0.00861964515955248,0.00192065082485685,-0.00197270165793559
0.00129997568128376,-0.00843863168219028,0.00289098728176704,-0.000254111170096525
-0.00100473488494942,-0.00456089136393897,0.0046330242257412,0.00173485192965622
0.00373386288233153,0.0029644079716057,0.00448117879984895,0.00273919290385412
0.0134332743258401,0.0151217395466775,0.00110073366998138,0.00232153352812996
0.0165148292538184,0.0275424411993643,-0.00293483065450209,0.00109916122637373
0.00914548626612367,0.0283303678147342,-0.00686974941242212,-0.000105470652717105
-0.00172482515477081,0.0172702072027854,-0.00998524256750199,-0.000694886295087999
-0.00893120626857676,0.0030035269746979,-0.0101514114426167,-0.000391806489347675
-0.0114712735838291,-0.0102510282982561,-0.00956060642140029,0.000226366124123764
-0.0119839782742891,-0.020205593472494,-0.0100711170738243,0.000386050201483348
-0.0111954829715137,-0.0256453331391441,-0.0109182233868886,-9.11788350688044e-05
-0.00971036104826062,-0.0254837668430633,-0.0126921861076911,-0.000729717778593353
-0.00895320399182984,-0.0217706158038819,-0.0136633561845944,-0.000885886114347703
-0.00806768344641977,-0.0187909532268477,-0.0114452267843869,-0.000787879470142292
-0.00601910933748726,-0.0169901931870304,-0.00730116982003044,-0.00124432184286024
-0.00508235537859374,-0.0135830295670409,-0.00449286056794275,-0.00238970534378617
-0.00638706253900443,-0.00250740605577183,-0.00410423569918817,-0.00332970701073576
-0.00639760007108117,0.0165886056753656,-0.00500492356522006,-0.00283988958599402
-0.002950240376453,0.0274874921481962,-0.00578272871410864,-0.000894544182036195
0.00155066563835717,0.0217885041013747,-0.00527435563901176,0.00105149073219301
0.00409621475502426,0.0116070239010897,-0.00324236962141174,0.00204165165397802
0.00488395573529651,0.00422523566132653,-0.00202291290827987,0.00227651237196529
0.00459777042266925,-0.00110422918705662,-0.00359463246917224,0.0019681944837545
0.00434182312752249,-0.00373138575957102,-0.00531094683200798,0.00129057691102459
0.00717082123472331,-0.000826028638166661,-0.00561039377561438,0.000628417666135678
0.0116131569562983,0.0107980222070449,-0.00630600928961736,5.64217589158689e-05
0.0151835270613807,0.0256125157151033,-0.00732508304174767,-0.000570302295240444
0.0188924003248471,0.0279798812979959,-0.00667969003568725,-0.000758991253171732
0.0225053067941755,0.0108062789857013,-0.00642821198169746,0.00018042769267546
0.0217894964340271,-0.00949759323266784,-0.0114879892398706,0.00156896817645338
0.0121831308191716,-0.00979450389862938,-0.0224543330958152,0.00205534397478746
-0.00188189787408872,0.0082701397118704,-0.0311688226449363,0.00155066133924688
-0.010240392698742,0.0202586810112627,-0.030224652993109,0.000856249314528089
-0.00865832007679858,0.016845602672627,-0.0258646710281032,0.000216750981256425
-0.00238530629562083,0.00818001505976558,-0.0225976404116732,-0.000562103370453598
-0.000754989612423082,0.00461588630502039,-0.0147525157267444,-0.00124505367275345
-0.00545717272283287,0.0112878703281867,-0.00483367143315133,-0.00165327359027811
-0.0112253352661152,0.0177034275644448,-0.00217800308474583,-0.00228343509909508
-0.0166037985849436,0.00758884304024646,-0.00599997682275502,-0.00355012878704976
-0.020722243426787,-0.01377356145824,-0.0101082255571971,-0.00503562222704382
-0.0187652329628586,-0.0267618891402152,-0.0121121897313072,-0.00549361382778401
-0.00970745059662573,-0.0254254544668679,-0.0111381481872445,-0.00385625747428093
0.000126118506316209,-0.0161594761718308,-0.00771213726280452,-0.00029151594832197
0.00492853733825186,-0.00499794748002407,-0.00454371445821176,0.00382863287856633
0.00432370734058542,0.00293987153471986,-0.00359102120984749,0.00656768091901475
0.00165140209522724,0.00707149141579187,-0.00371156981560493,0.00694671952135264
0.000429363693393204,0.00894409761610871,-0.00416243903091902,0.0056115747882805
0.00092408060567634,0.010161242333641,-0.00676839552080463,0.00357452343588261
0.000120053216039112,0.0156803722481888,-0.0113821534459229,0.00151202689794634
-0.00321616106147427,0.0271512257451794,-0.0160803937947681,-9.80270011757883e-05
-0.00660242912038207,0.0348667214157035,-0.0194837558964796,-0.00124633740495855
-0.00966506113296808,0.0281659420398632,-0.0186443619747356,-0.00216496639316049
-0.0138491377772163,0.0123155728398872,-0.0129736565985656,-0.00274233890040252
-0.0154049618292128,-0.00259042257409884,-0.00697565514957138,-0.0026044487421229
-0.013208684112045,-0.0148520637642173,-0.00342867084683893,-0.00174218809174048
-0.0120171961403364,-0.0239998447251402,-0.00132034389950468,-0.000936264593056282
-0.0106983430829466,-0.0287090368313745,-0.00135349196096376,-0.000867463299611521
-0.00756889652550224,-0.0266124796699451,-0.00352895245061063,-0.00122845163453231
-0.00553426089499224,-0.0188796040244423,-0.00446462908023429,-0.00134622075752141
-0.00590401843990185,-0.0122874688294018,-0.00357657085434961,-0.000809299899086344
-0.00410131990035725,-0.0084934663979102,-0.00268768614924185,0.000244042709296582
0.000555684234884818,-0.00613692352021902,-0.0026112386439472,0.00123350148852856
0.00053559492787289,-0.00466165667183116,-0.00289240635122372,0.00176081165030078
-0.00620860733005984,-0.00217035062780029,-0.00220790570620028,0.00190577203333435
-0.0160559162511084,0.00155646284659137,-0.000305203462478743,0.00205199437581482
-0.0240216498476958,0.00359774495097546,0.00147101753522973,0.00236932188855624
-0.0268125410939583,0.00135303679850637,0.00100122477640766,0.00261862855570952
-0.0264837491306765,0.002048997004768,-0.00329183950731611,0.00229952166118749
-0.0250408563911772,0.0151040058417266,-0.0100087454981247,0.00122481606505795
-0.0210521633146116,0.0297918850984263,-0.0140046930416705,-0.000300481280328257
-0.0153253751136498,0.0291409991392762,-0.0131100381467621,-0.00165432826557075
-0.0102067996252394,0.0145963815832358,-0.0093296041458296,-0.00191020221921548
-0.00573524138434925,-0.00181616839147734,-0.00438698952391266,-0.000692080139818917
-0.00188023826972281,-0.0122802191373513,0.000780095684739256,0.00142006596328042
0.00189578112076068,-0.0164591021158692,0.00574644424101536,0.00327319034479277
0.00367273887865543,-0.016301695001108,0.00714614907493878,0.00381776772803888
0.00185990405522033,-0.0125884228298051,0.00385790074529416,0.00279174901183019
-0.00166452034043198,-0.00717479719428365,-0.000254830628824514,0.000816046968566893
-0.0050066595170578,-0.00151711536597547,-0.00315516840065581,-0.00104099445813501
-0.00608060325381215,0.00436604360697183,-0.00438396164495778,-0.00244720878099087
-0.00600461735886382,0.00890058352830828,-0.00484031606649792,-0.00355544904151531
-0.00581179971411373,0.00755407816669332,-0.00482325057666172,-0.00407678718648189
-0.00194700581237049,-0.00210281420610092,-0.00346425620852822,-0.00378434357779615
0.00389558491880208,-0.0177661576736634,-0.000936842950854902,-0.00280994112341578
0.00356313171547934,-0.0310394678589719,0.00316273895092775,-0.00150761889027378
-0.000819530153666531,-0.0286505753667522,0.00728271191673866,-0.000196824286806467
-0.00221913931968732,-0.012980039365892,0.00775012372033827,0.00106719926099247
-0.0012276654381116,0.00191023042783901,0.00462498344582619,0.00208535649198089
0.000335031187228593,0.0132722856857813,0.00230664574586292,0.00233456538462109
-0.00172000975412725,0.0225094246108598,0.00129967517201103,0.00182119843036465
-0.00812191080828365,0.0257146846575948,-0.00160424959100459,0.00119032092939502
-0.0114852608700418,0.0211070946287273,-0.00396207814891068,0.000987833968802123
-0.0101574013721878,0.0120521623250784,-0.00239120974853674,0.00147703277971522
-0.00931517113587791,-0.000272299068823726,0.000936039248466704,0.00230174955004667
-0.0103810115873908,-0.0158897118791422,0.0043766648228764,0.0028705456489343
-0.00948180870776044,-0.028504399149509,0.00733450086059367,0.00295486622185065
-0.00314422464037229,-0.0305249111747609,0.00912418334627232,0.00241674122258735
0.00541951089555281,-0.022571001222235,0.0111788024996228,0.0012603700583301
0.0130136437294005,-0.0179674022736429,0.0139108270689311,-0.000439411316351791
0.0230524118740685,-0.0285986814034684,0.0164214859746622,-0.00239912042518379
0.0312959189047504,-0.0446178274443616,0.0164593973667088,-0.00390968001053407
0.031728898410759,-0.0511215282302186,0.0118713095528407,-0.00450827252055996
0.0322290898920842,-0.0469694301012301,0.00537999779864454,-0.00430845661914879
0.0368646991632158,-0.0364877698297063,0.00289810645607821,-0.00363513131271927
0.0396095499895737,-0.020366230396107,0.00568977209293486,-0.00267647019068613
0.0385765227088603,-0.00209579134182659,0.00899845100056159,-0.00146765853880776
0.0315153557250606,0.011854998655435,0.00890397168313885,-0.000377455607603811
0.0151814521603676,0.0170767387862615,0.00617035167502971,-5.78881269214676e-05
-0.0044377111767237,0.00639387089994557,0.00348027777775136,-0.000579707970334169
-0.0222536009271546,-0.00875791524120133,-0.00164019862495072,-0.000955195565699967
-0.0377284281773882,-0.000283769009013278,-0.0104660212123808,-0.000276085113036703
-0.0429786383077363,0.0286180564403575,-0.0139195367853753,0.00105223581753706
-0.0322675955186503,0.041171558913945,-0.00589473261526846,0.002186963756833
-0.0190270719365276,0.0205688625532767,0.00735658897748525,0.00287481416248669
-0.017109778877351,-0.00499769288840214,0.0164575549968311,0.00316048724201167
-0.0187607870957484,-0.00309983955092297,0.016477994253145,0.00292683538926402
-0.0131653320521563,0.0130282836484141,0.0117772382574691,0.0020351882628667
-0.00319723288103284,0.00770652240366951,0.0108601551178416,0.000561030257947174
0.00385036913236773,-0.0208743637926592,0.0152000273545226,-0.00118171013633696
0.00726135998035776,-0.0446099949274008,0.020687071978126,-0.00255880607352249
0.0132355154949194,-0.0465748563800271,0.0218381172700259,-0.00300897426024543
0.0236962004220385,-0.034486876169364,0.0188703441406035,-0.00270863459915984
0.0309317376885328,-0.0207982337527376,0.0162704738932944,-0.00206134100291388
0.0289564800754074,-0.0102852566162157,0.0132741326607809,-0.00113101291067096
0.0188545714710317,-0.00145058699206179,0.00939945899231146,-0.000254095384233618
0.00640203721066399,0.0075892027122301,0.00648051110563043,0.000244552955398232
-0.00151391935302162,0.0157849191249313,0.00411725062836557,0.000473855076044705
-0.00362035288825462,0.0271957769867113,0.00181855508624864,0.000453299213286537
-0.00203304510145623,0.0446365761019855,-2.12792579854272e-05,0.000217900767924376
0.00181600910766282,0.0563798820906426,-0.000572959349358288,-2.60647299587482e-05
0.0052184264389611,0.0514121873519068,-3.77418152178247e-05,-0.000191877944738166
0.0082365678310697,0.0354856127988653,0.00156238950314633,-0.000402295414894326
0.0120074857336417,0.0189670255004531,0.00558249517552728,-0.000663968613425221
0.0129863166295703,0.00595400931438171,0.0123039960384244,-0.000867878831100277
0.0106544272652643,-0.00384549233186999,0.0214834581371183,-0.000940491112057302
0.0087061888741283,-0.0135561209000843,0.0293059183272174,-0.00084103662776313
0.00749288679156632,-0.0198658125168749,0.0313002015995175,-0.000615058636485002
0.00345939460749279,-0.0168487895300617,0.0296279104474978,-0.000296991520848834
-0.00632891750039088,-0.00822554301671609,0.0276393397122759,1.67836119387358e-05
-0.0205779641048296,0.000554601711349627,0.0249026386965321,0.000328417036740458
-0.0328500350220655,0.00441232280308165,0.0211064370008791,0.000734748103168621
-0.0356102558904811,-0.00126140261883268,0.01660709724481,0.000976013121431368
-0.0278206809218065,-0.00706100967767955,0.01150557482954,0.000738813693558594
-0.0152617973961281,0.00699626286040091,0.00698287790182399,0.000149344320966841
-0.0040752092297894,0.0376894015347782,0.00501277798112586,-0.000342476681549
0.00383425487244584,0.0539686365204547,0.00637043335374771,-0.000429177399100337
0.0113310821291039,0.047530348907793,0.00684011494828276,-0.000243363877971098
0.0202182783779662,0.0377210592823069,0.0031283596404203,3.24547241492299e-05
0.0275097177118809,0.0303230436640222,-0.000448136632435965,0.000148346609275651
0.0334837455008029,0.0212954478876396,0.00237573112210219,-9.15634683885352e-05
0.0408270901060507,0.00818983383832139,0.0121664985840498,-0.000423679676292332
0.0464271590302606,-0.0102181572713039,0.022962878145556,-0.000548660345918344
0.0447620440008256,-0.0276274100615006,0.0307043534297417,-0.000373140047886245
0.0332410638269397,-0.039656290354938,0.0356155721051697,8.40992213358757e-05
0.0143980656268024,-0.0430922775859892,0.0349091276321727,0.000588008654298545
-0.00452709309168162,-0.0315767117752972,0.0269937373776212,0.000713953470416853
-0.0154861867057534,-0.00994500940346479,0.0187831077402329,0.000310773328002729
-0.0140301757489686,0.00918157500258993,0.0163293176845467,-0.000297443781827993
-0.00431709669326738,0.0227156420555794,0.0178405932464081,-0.00071154543770844
0.00381954186446303,0.0324120350864394,0.020202571008944,-0.00108733867338347
0.00902703114318288,0.034015232802637,0.0214985280182342,-0.00174287536796357
0.0184298985850749,0.0234464082375791,0.0205799799120009,-0.0017137634738402
0.0301051399388258,0.00421099383494653,0.0202347750730498,-0.000165070004106346
0.0361487554225834,-0.0107712035367009,0.0214863234237091,0.00158449002259849
0.0359497100479088,-0.0145839875265715,0.0179054872567911,0.00202250615314174
0.0322467269045276,-0.0136507080588551,0.00730275656754172,0.00130450727752484
0.0281999059954043,-0.00992732351169379,-0.00402160765821228,0.000373474493477195
0.0229328811364309,-0.00313553218869784,-0.0130242957875274,-0.000308054506394172
0.0140712712950041,0.0040817596145903,-0.0218015160641226,-0.00065962383529597
0.00553972144944672,0.00921358729273535,-0.0275867676162987,-0.000725263134023377
-0.00045293559674105,0.00855890327384973,-0.0247764976041484,-0.000655518041256258
-0.00918529592715724,0.00616465002460852,-0.0172894734003949,-0.000230164288502933
-0.0231139094411686,0.0102124478314851,-0.0147887150147523,0.000589943816401817
-0.0337601128654588,0.0209846792166526,-0.0191709780672211,0.00120524103661033
-0.0357436239126779,0.0383991999528098,-0.0249953987563639,0.000978650202395561
-0.0322488009098747,0.0588723507881035,-0.0259002030956275,-0.00018234150289412
-0.0244362908586554,0.0652631205886271,-0.018029567230211,-0.0016746875836815
-0.0146578821078019,0.0520637520187473,-0.0057714460747173,-0.00258086369816517
-0.00829780670156097,0.0379009116137203,0.000520660682687829,-0.00242066728793847
-0.00398567637785703,0.0328669823389045,-0.0011076943238428,-0.00160700237106478
0.00293273002484078,0.0297091763113648,-0.00272540464791427,-0.000683404640064456
0.00989193195802612,0.0238339500690552,-0.00251924920447927,0.00028332696508504
0.0142814549308686,0.013728073407581,-0.00306064693844986,0.00127483989461107
0.01819678506791,0.00234571385518063,-0.00426608791068904,0.00204966196596562
0.0184306621745166,-0.0030511943863925,-0.0060948825286875,0.0023223550467321
0.0126782931861358,-0.00046653151462955,-0.00733421608066995,0.00206148175559935
0.00669689294938768,0.00588944369449988,-0.00754222319660897,0.00133969055535778
0.00596837237514394,0.00989485111438628,-0.00770460738804967,0.000264459790365632
0.00873666985860285,0.00916956848833381,-0.00830500078888368,-0.00060152819036352
0.00849097304697799,0.00538084490655413,-0.0120617152418755,-0.000800653893118746
0.00424387079639106,0.0015045158892118,-0.0199980487652544,-0.000610526500018425
-0.000195757462529467,-0.00183924403916219,-0.0275054020846509,-0.000263941743525793
0.0020795929376215,-0.0056450357004968,-0.0268028123704771,0.000402543115993937
0.0193729141637657,-0.00641467337576478,-0.0138501298070044,0.00103360126576269
0.0464759148276832,-0.00318823808473281,0.00443108665364497,0.000944673429316544
0.0693587431294637,0.00212967086018377,0.0153170381650458,0.000388529729398033
0.0812403823154274,0.00855237488519094,0.0130311680441468,0.000217121375100808
0.0824543213625546,0.0101815961028137,0.00694027436028657,0.000834730661364274
0.0792803749375245,0.00449726552929687,0.00567941412776884,0.00197527896633838
0.0748639525876784,-0.00321489344631087,0.00547303519529974,0.00289566354300576
0.0636293405679678,-0.00327767956115382,0.0040684192958096,0.00308179874306782
0.0424515648763607,0.00702291065652585,0.00267547541918047,0.00268925490318849
0.00733915467507193,0.0153699365248859,-0.00123474469060337,0.00224144939610964
-0.0432059852690711,0.00719885038908669,-0.00737462587772808,0.00240235590140537
-0.0864220319994255,-0.010365131976489,-0.0145146480101825,0.00291879299398588
-0.105565999003426,-0.00651634707645678,-0.0255994551949398,0.00198157389622308
-0.114372282863412,0.0284159425340109,-0.0408348514437131,-0.0014525763995597
-0.113008612387292,0.0665878929628179,-0.0558219375063765,-0.00568672428103977
-0.0805507639798078,0.0838203263682422,-0.0597900028759932,-0.00808186769327531
-0.0235424826519355,0.0809852549072526,-0.0443469712436719,-0.00762841466878579
0.0269006548327378,0.0621130760091596,-0.0182495002763076,-0.00477226926682284
0.0549654466223045,0.024532317059624,0.00452305094333456,-0.000177453779999205
0.059831702764935,-0.0194326439913023,0.0185439644989867,0.00533702209145603
0.0445613802458676,-0.0484271722325788,0.0236626898351821,0.0100875924048058
0.0191813091445193,-0.0545319046402473,0.023135958998433,0.0123270590606692
2.07899790959087e-05,-0.0455191083024172,0.020319871454036,0.011612107524438
-0.00400968065138636,-0.0363005871388488,0.0169891201444002,0.00838681482278342
0.00896523587857871,-0.029359556468966,0.0121612973659823,0.0037562190941349
0.0410851752060344,-0.0219666009020219,0.00536682220064193,-0.000764490082404005
0.0749859758243115,-0.0205930797636896,0.00368643100322263,-0.0039695909455741
0.0743188267700052,-0.0255431123491734,0.00967828386834381,-0.0050557895984301
0.033103431185513,-0.0273604330741077,0.0140205539006718,-0.00401644159870341
-0.0109452887335259,-0.0219841472173169,0.0091893795085802,-0.00205283013479508
-0.0339368272700018,-0.0118771974948326,-0.00165405277667667,-0.000712928515147373
-0.0472563267994768,-0.0012918504691579,-0.0114123888028481,-0.000422369595400209
-0.0576868392261775,0.00234918042130248,-0.0158166897016178,-0.000535608104201296
-0.060377632917291,-0.00433680560390753,-0.0129386049127241,-0.000658870277506013
-0.061259158257555,-0.0123894907395928,-0.00781580769728241,-0.00104365443211767
-0.0677978219232355,-0.0128223674774423,-0.00726530085375192,-0.00154663581405555
-0.0724207680961261,-0.0108108538074785,-0.00928392911669188,-0.00145717007629539
-0.0703078380913981,-0.0157577676225978,-0.00930044649952471,-0.000653587194301292
-0.0705089495428984,-0.0233902436870162,-0.00991970435149549,0.000372586100532738
-0.0746117956756129,-0.0229389175508696,-0.011208062058008,0.00121264336335679
-0.0728686663694569,-0.0148678271228028,-0.00730114925880333,0.0016317457941816
-0.0618854348608018,-0.00570377509838552,-0.00294936944510089,0.0015206134376984
-0.0463218631650471,-0.00095529825133589,-0.00396028346412189,0.00101982362203437
-0.0293246240011008,-0.00148949599333719,-0.00360440231547777,7.00382559375937e-05
-0.0131789102876939,-0.00346189980843138,0.00314456124026968,-0.00141785969373495
-0.00371451333032991,-0.00665178438017057,0.0110291373549234,-0.00275199746239716
-0.00554498145902635,-0.0116462435128311,0.0159353016409202,-0.00310637034081813
-0.012204415919908,-0.016128166873132,0.0191877395339544,-0.00250196322967782
-0.0127475458638423,-0.0198485045658643,0.02080083577453,-0.00173990736390957
-0.00834926947484152,-0.0228558426869284,0.0219545481381151,-0.00136665478167269
-0.00538541147860416,-0.0261554494222393,0.0234210420895176,-0.0011273624897546
-0.00446034969169886,-0.0297478866903635,0.0222067040608349,-0.00066359127172517
-0.00728234025099376,-0.0309544020433546,0.018313454596031,0.000122036848226618
-0.0129720329544686,-0.031075139168228,0.012939593673887,0.000960061609332922
-0.016174129223616,-0.0348798970592485,0.00713753512335053,0.0010892508122235
-0.0139057042982552,-0.0422409833891216,0.00361126443154529,1.98321198218603e-05
-0.00916959140851638,-0.0435125489856493,0.0017162579675499,-0.00166118722540953
-0.0115263223222424,-0.0342589029103513,-0.000237377442663575,-0.00275279489551926
-0.0222723224923581,-0.0232695308051779,-0.00227176330219506,-0.00267479426668409
-0.0356275581964464,-0.0218542434324002,-0.00790292107111685,-0.00180875687406553
-0.0441720913281311,-0.030730764213,-0.0170269055647453,-0.00114185907937283
-0.0377731815179486,-0.0366065568828762,-0.0186352372386979,-0.00159517823757279
-0.0205151810104339,-0.0369540114398607,-0.00785117834759406,-0.00291918686673012
-0.00222748987333607,-0.0461777017914499,0.00734882937823397,-0.00390537444084906
0.0173938386373282,-0.0629613124578818,0.0171417120818306,-0.00388727925433808
0.0369069681054344,-0.0710210520571608,0.019802400081298,-0.00305869810099314
0.0526699543803962,-0.0668915982599877,0.025648773844647,-0.00185307780757196
0.0613689737077846,-0.0588515609548505,0.0368171758497469,-0.000666603146503503
0.0622133461638254,-0.0499436448887271,0.0408976282429949,0.000302280079246214
0.0617791256279677,-0.0411689614880372,0.0372171837458142,0.000980744273521912
0.0626144771926531,-0.0355317142315135,0.0362932206908946,0.00129018355141631
0.0578958102411092,-0.030822415957228,0.0382818432205077,0.00131700425200766
0.0438126239430273,-0.022962763599544,0.0362433545980686,0.00154879855251343
0.02541074493731,-0.0142238651443322,0.0285655227758119,0.00212145969463798
0.00495622842153198,-0.00281102980279505,0.013051989320725,0.0023398018795389
-0.0270830364222427,0.0181514001914232,-0.0140286498511489,0.00191711471193423
-0.0671251153936827,0.0481756326178032,-0.0460332949472986,0.00108131730289211
-0.0914232817586965,0.084375347283528,-0.0710468038663153,-0.000520929486908675
-0.0879663238570122,0.107319910184017,-0.0843770910630968,-0.00359597817705026
-0.0616711723117179,0.0902831027429794,-0.0845627102285311,-0.00782633927550646
-0.0288111744756034,0.0403048576057802,-0.0705632935982107,-0.0108374871669481
-0.00208440261410722,-0.0181319563238681,-0.0459683615888821,-0.00991687394031884
0.0189708400375809,-0.0723164677404906,-0.0183928141621592,-0.00489912517005205
0.026695947486351,-0.106633667062371,0.00427895501145055,0.00159983142929631
0.00777407658105317,-0.100694625167322,0.018513055070962,0.00670129090980465
-0.0349636267423846,-0.0509667638998695,0.0231458383694726,0.00931720582033735
-0.0771160457836378,0.0182834764465825,0.0189259269381895,0.00983123891551847
-0.094548462587064,0.0722683540975748,0.00919942793422799,0.00868498347607999
-0.0863459186788965,0.0911445203478308,0.00174679983954818,0.00570752951282844
-0.0606682276753181,0.0763020991394735,0.00366163872588244,0.00139245701152505
-0.0270835544677922,0.0404949070556377,0.0132731823333315,-0.00228764060109737
-0.0030134592024095,0.000315386507660637,0.0235923957103665,-0.00372873294734258
0.00395162548467455,-0.0251867486866984,0.0266717482283882,-0.00343501516862342
0.00861238439335293,-0.0301575824727198,0.0221245197777787,-0.003226852857724
0.0386480708989897,-0.0229805834952671,0.0119026038834148,-0.0036575955415751
0.111319513194361,-0.0117330452915235,-0.00466966384013411,-0.00314757181839532
0.182683283186783,-0.00451559224656473,-0.0197276413227701,-0.000709977449062748
0.197362628193666,-0.00263609480263432,-0.0259693854850612,0.00240686585924937
0.179759764617137,0.00185733718367677,-0.0247305983022828,0.00464956545628842
0.163932807927976,0.00609261880839409,-0.0169098198927304,0.00574325238634955
0.144372607559407,0.00271781265048703,-0.00538349761645011,0.00572099909847752
0.110662156855051,-0.0006740762583975,0.00403936377698773,0.00436099037473247
0.0515641823787049,0.00707487228833653,0.0100867100825732,0.00192829818031097
-0.0257885426433623,0.0304098886515665,0.0123844886377169,-0.000659358025802825
-0.0904829815692507,0.0606249520459695,0.0103498412976608,-0.00239279413527724
-0.118646849066366,0.0731910185479018,0.00764376894646625,-0.00280557162758284
-0.116866225800292,0.0625362122422928,0.00866581978672331,-0.00221561852144692
-0.112935602126459,0.0459528380115003,0.014056937276334,-0.000993492127835669
-0.114547702147587,0.032090441163663,0.019429364395582,0.00091782559185828
-0.100705409872073,0.0262820649221543,0.0208986653186454,0.00276719177608707
-0.0588173449044092,0.0153284249062776,0.0222208853451661,0.00313361846333777
-0.00931124157665909,-0.0177193611354523,0.0301770983580293,0.00187824672143984
0.0195035870252872,-0.0406415239973206,0.0410254134465112,0.000256798640360213
0.0342634860187997,-0.0247140037858064,0.0442235046203615,-0.00069815115537787
0.0582194864869549,0.00105532857992999,0.0390068260875659,-0.000855709203125392
0.0811630105777428,0.00843462416160629,0.0313577732304708,-0.000517883066681122
0.0797426600215192,0.0158002000933338,0.0225072766211053,0.000104802614902873
0.0629355468723772,0.0368530975487978,0.0119931652090465,0.000907832087508596
0.0518200071068734,0.0504555402239201,0.00635095596797721,0.00171744017376993
0.0433557433237667,0.0534839584384454,0.00731223984294993,0.00229822662103994
0.0280520762193231,0.0608557515647748,0.00518127596809898,0.00214496139555741
0.0196117459380915,0.0631997528504414,-0.000291333386037172,0.000773405530465499
0.0349591932140958,0.0449381355796973,0.00169574965224478,-0.00200172880114362
0.0606052891986834,0.0077043257193581,0.014871585138076,-0.0054245366010902
0.067055524349286,-0.0283323070243515,0.0316970854544488,-0.00751528676908637
0.0470275700617808,-0.0412047701636756,0.0436343737566183,-0.00695339570629166
0.0177704059771411,-0.0373843487110859,0.0502139040146691,-0.00386241855778836
-0.00893818465186195,-0.0319033883567578,0.0539656899013826,0.000970184913254827
-0.0310098959963353,-0.0252547297619754,0.0548562871041162,0.00620225900710906
-0.0411767536967953,-0.0167968549361072,0.0517460501118886,0.00986303114262374
-0.0378812482974029,-0.00601113372548068,0.0429325141902282,0.0105281690991416
-0.0188803439013822,0.00942435479203242,0.0292446228230844,0.00832191930966231
0.0208121047923427,0.0285357630148246,0.0133744485779519,0.00381266534091271
0.0539762898245567,0.0453257227283037,0.000750908548805402,-0.00201401415537134
0.0469516363306784,0.0574182767342487,-0.00392190946923527,-0.00703479190967331
0.0119751441191424,0.0652834323805333,-0.0019145002221633,-0.0094234831264419
-0.0201562227750911,0.0673846647504772,0.00154284494243814,-0.00913342702021358
-0.0350311286067098,0.0657724626010101,0.00132258869082558,-0.00762958192631608
-0.033344840765967,0.0663024653061848,0.00058711419649677,-0.00621793613562287
-0.0277564841560161,0.0765897007980658,0.00161895202554596,-0.00450092278517732
-0.0225752268141727,0.0920434755533513,-0.000445125863913064,-0.00180036634501983
-0.0114380967755023,0.0915879005939529,-0.00459824630796839,0.000807527979075073
0.00205928013890866,0.0703017356206504,-0.00670810960827087,0.00212928526479136
0.00966013616967336,0.0455077906459738,-0.00731816221542064,0.00220029692533613
0.0126394246353912,0.0227268825652938,-0.00302666923425737,0.00160248444029923
0.0178789470941031,0.0034570064793694,0.00632726495145597,0.00122395659422476
0.0277410511044834,-0.00331264308511334,0.014653871859298,0.00130273144502692
0.0449916778335182,-0.00383248071047129,0.0207229300014953,0.00123041107027607
0.0659647920005413,-0.00996335857467964,0.0235491984725274,0.000995687869558995
0.0797903987179757,-0.0196038768630583,0.0207839998016909,0.00105574617076465
0.0980733445797868,-0.0333270952512061,0.0128629509126281,0.001050823274966
0.124845436137106,-0.0497619899649103,0.00672966789147155,0.000190576304180154
0.127850399539067,-0.0444465902311153,0.00865221221198359,-0.00123780602327672
0.0987675693444514,-0.00339398255606653,0.0145896893108049,-0.00168305592252388
0.0623910363941856,0.0468014005108826,0.0160744807830488,-0.000263703182303456
0.0258456814806543,0.0756486541149653,0.007799753774379,0.00172315941092444
-0.0117151259768917,0.0916799330681884,-0.0108325386162623,0.00236474114490865
-0.0311109586094914,0.115596690269098,-0.0345749912274922,0.0013200561658643
-0.0165557588853129,0.124390872656839,-0.0483656403167741,-0.00072925378266281
0.0136434488370053,0.0892760438724927,-0.0417723748487729,-0.00310263604190188
0.031203774087158,0.0287200816487412,-0.0249701786464867,-0.00491205496256061
0.0381834678181683,-0.0375535788828866,-0.00610724431370177,-0.0053629095577194
0.0413580100867057,-0.0982491258417181,0.0163734029327412,-0.00418427022790308
0.0354433343335103,-0.123861143024486,0.0341088132162967,-0.0018208673326034
0.0286900337141333,-0.0943171698353672,0.0381229477213385,0.000849745524244224
0.0300778702625575,-0.0183969750157823,0.031282572850346,0.00338049822621158
0.0369304671958909,0.0514194527197253,0.0216272837863971,0.00590512664164431
0.0442412906527599,0.0591696215352836,0.0184456495293371,0.00866155624998079
0.0453791214821294,0.028394629808351,0.0233339729410135,0.0103791128608597
0.038886111120442,0.0186322628709046,0.0276477304939604,0.0089214388000096
0.0322281932456594,0.0544943635948303,0.0239937263428161,0.00481628571562527
0.0208062193624967,0.100777253087193,0.0129197764549771,0.000410661755572706
-0.0114324924583082,0.0909685824067142,0.00433279042068269,-0.00307194557101703
-0.0629169002274489,0.0308208402496701,0.0024426388721718,-0.00536519268159194
-0.101365993379409,-0.0195004691656133,-0.00156322755562881,-0.00638514864257708
-0.0918920872428918,-0.0358311270796159,-0.010771819846203,-0.0061115820276904
-0.0488890270141617,-0.035585599781088,-0.0178870648040222,-0.00475988493172845
-0.0130041457819037,-0.0364537140170222,-0.0150497778989371,-0.00275119903286327
-0.00142526442804929,-0.0334749216290108,0.000843801572801785,-0.00014931981912857
-0.0121207312536581,-0.0212714529198502,0.0196844433161019,0.00271257308898769
-0.0297544146814825,-0.00342564966267077,0.0266874675575388,0.00477953803641826
-0.0409415920299123,0.0141748565917787,0.0204437352945927,0.00539591351800313
-0.0436883231599634,0.0287906171032986,0.00550859887432906,0.00473383203835694
-0.0380394291837894,0.0427187396260718,-0.00281633092052379,0.00356249766579616
-0.0341363388679861,0.0461784605348695,0.0155874347710072,0.00281329799018495
-0.0458154380140544,0.0332395407330166,0.0459856395654405,0.00274510073241728
-0.0643609873027295,0.0178908639242714,0.0578709539649493,0.00303000783409658
-0.0766879528375772,0.0089566761033915,0.0484927412034337,0.00331809932969269
-0.0855029538147191,0.00255722178000702,0.0304816065379302,0.0031649975190573
-0.0847890901355621,-0.00213313671919719,0.0103367973544886,0.0021319134926651
-0.0624137315923343,-0.00112138250276521,-0.0120690199994037,-3.90916170411124e-05
-0.0203643692060611,0.00242131559872263,-0.0325325523728018,-0.00339012310047808
0.0252276904819533,0.00709027972367179,-0.043158741370555,-0.00691559663025098
0.055051345876115,0.0148088379996926,-0.0483547931069979,-0.00850542190783222
0.064811093353349,0.0208438097706094,-0.0577822357256515,-0.00708281632491121
0.0643626327263269,0.0305045139992813,-0.0680609258463916,-0.00386318515999175
0.0579296121018398,0.0444275580096933,-0.0665139394707361,-0.000892355867012978
0.0414951678249315,0.0407762997381556,-0.0488086375261206,0.000903434275062356
0.014076860065242,0.0145772243900647,-0.0220297276542102,0.0019250516490457
-0.021804446922628,-0.012158720399197,0.00478249821585199,0.00295913061704883
-0.053106757841208,-0.0219879590745895,0.0202969779846676,0.00447000315945562
-0.0620697308787411,-0.016982223487515,0.0143435147104652,0.00595507126588895
-0.0410155115988426,-0.00616179984989304,-0.00881849162933034,0.00637919885154518
0.00440995398720462,0.0055308640092775,-0.0293768946523373,0.00544819522847539
0.0463398783747213,0.011636630404751,-0.0336502242166859,0.00351843522081346
0.0612087369455191,0.00562846417068817,-0.028470081953872,0.000952917005841052
0.063301251126261,-0.0145472334455576,-0.0231761949239806,-0.00172673602649698
0.0696120434403608,-0.0394132903669794,-0.020047077090415,-0.00361489291331676
0.0728017141657405,-0.0554510199567101,-0.0258261269759521,-0.00433393580726857
0.071141374456057,-0.0571453278468355,-0.0428795796492969,-0.00505506209916165
0.0600020120269803,-0.0433061932540378,-0.0618549354829791,-0.00694526711310127
0.0260700057497573,-0.0182148338311039,-0.076692812404197,-0.00949986144322629
-0.0157551698160444,0.0124623495163934,-0.0859047187249469,-0.0112885748052183
-0.0448711660478937,0.0452314153901159,-0.0819543634504009,-0.0108888773555447
-0.0713176268911952,0.0574929915350058,-0.0582453018254259,-0.00737714924186493
-0.093205396235758,0.0185973298835335,-0.026606790118617,-0.000598211628163732
-0.0859517515290225,-0.0477218539121672,-0.00848120789022952,0.00831922027296779
-0.0556421993804373,-0.0864626352035195,-0.00762769277183258,0.0161008931113975
-0.0226123414435578,-0.0839689874872117,-0.0138778291023777,0.0184596250757372
-0.0014554074926772,-0.0711450867112965,-0.0270338488147954,0.0139751602069279
-0.000736592031849032,-0.0800639738424373,-0.0492228098896611,0.00552399091431971
0.0193086806813577,-0.0981793698769536,-0.0675670115681666,-0.00297743831305554
0.0893288614069608,-0.10164294879301,-0.0659327890029651,-0.00922555800950424
0.151076458088646,-0.0937207719477056,-0.0527363332064501,-0.0123296448028486
0.139493646352432,-0.0628070151504408,-0.0498403837968496,-0.0119880428592263
0.0785052048264712,0.0155216285418734,-0.055100283680672,-0.00878018573529854
0.0318806833846817,0.0985371128537231,-0.0554051479595484,-0.00427253063781366
0.013532548921865,0.103200332704528,-0.048409429274545,4.53521251700204e-05
0.00083291318559741,0.0501478841366228,-0.0400989305817247,0.0033753807029474
-0.0139899643404104,0.0315721619495458,-0.0372711011057288,0.00534653528777904
-0.0193546104024637,0.0541785729047219,-0.0377399893296868,0.00567203052460662
-0.0104632892204203,0.055258049682147,-0.0353372845932483,0.00423911893105528
-0.00747187614101104,0.0105628820238725,-0.0304365507598271,0.00185866460163163
-0.0223024431166434,-0.0474571325255278,-0.0285949042408925,5.20291577384493e-06
-0.041028680597196,-0.0842897341872908,-0.0311081839708019,-0.000744193333756591
-0.0578525715358076,-0.0962250100454443,-0.0334682464943721,-0.000708935002835619
-0.0716393039977524,-0.0916807959435175,-0.0349389320967591,-4.98296857239255e-05
-0.07153582706746,-0.0805157997606549,-0.0385693914455304,0.000987220285269523
-0.0488562365659115,-0.0734949583069504,-0.0417113122845199,0.00168689534583403
-0.00926764899628139,-0.0664307887810764,-0.0411183311278837,0.00163763490807811
0.0210112864921347,-0.0539962338843147,-0.0357128662745875,0.000914047062675767
0.0260126596386452,-0.0447297399923785,-0.0253418951096756,-0.000206553815182893
0.0170351861578569,-0.037346109008565,-0.0171188875458658,-0.00123822132265737
0.00649536174627042,-0.0251392471287488,-0.0184514166926737,-0.00198020789096655
0.000204865115921878,-0.0101390201443599,-0.0240675665383975,-0.00239540948385727
0.0044337175715673,0.00595642922377281,-0.026502560105607,-0.00217604622173341
0.0204822939552555,0.0237709297244482,-0.0285412487930148,-0.00137377821802873
0.0395043571636956,0.0410448909977195,-0.0301707523088863,-0.000571807501711374
0.0430983877606689,0.0482615602588557,-0.0278739478196365,-0.000201950151271974
0.0258707068254596,0.0431376079300504,-0.0251908373625338,-0.00020049172557131
0.00320772780896824,0.0352359584409365,-0.0260052597728925,-0.000192463165299864
-0.0104148353758,0.0296301160307417,-0.0312949628729575,-0.000345382327086963
-0.00786871668039516,0.0190737211038196,-0.0397503650649188,-0.00101663062231454
0.00267510066848793,-0.00281830161764093,-0.0465841783946766,-0.0017651375753313
0.00702410222370252,-0.0270588632467327,-0.0498377626196241,-0.00169388620494726
0.00086076867555486,-0.0470587809892422,-0.0528925697476364,-0.000428305409155599
-0.0134460555709668,-0.0593763730648761,-0.0566935954587665,0.00126974584945494
-0.0257688026652531,-0.0534547684833465,-0.0560277141252428,0.00225831882221594
-0.02418778037661,-0.0338983020911233,-0.0505766771879173,0.00226713546991074
-0.00624892093265315,-0.0221238879418095,-0.045049956968104,0.0019835730063654
0.0143335803100552,-0.023663223748545,-0.0403009354666373,0.00178561802526866
0.0190928586498391,-0.0263706712149582,-0.0374811333936369,0.00150495387961048
0.00787568207147407,-0.024246303249707,-0.0365813634968156,0.00111611349049395
-0.00595023959118586,-0.0118702458452825,-0.0375809373033513,0.000433520132615842
-0.0148066906624108,0.0105887990112367,-0.0413535665210465,-0.000801523872132238
-0.0167486449534721,0.022294028397994,-0.0434600245184678,-0.00237003372677336
-0.00874158268570743,0.0128806109010315,-0.0405384084720384,-0.00358464443243826
0.00716136911401134,-0.00177791875493891,-0.0341185574015528,-0.00370725388014662
0.0228780761368098,-0.0100361435558538,-0.027298497274246,-0.00270729669352958
0.0348002277705725,-0.0141236483823393,-0.0236213127074104,-0.00132965237139731
0.0512428455004845,-0.0149340989031573,-0.0234893166291972,-0.000177615361823007
0.0687484452465046,-0.0138243825991398,-0.0235240666405341,0.000626636716345325
0.0633650343643944,-0.0140025079408991,-0.0235453388798857,0.00122824455957661
0.033342329069824,-0.0171517632719388,-0.0242821312189636,0.00168676793010108
0.00100723146982724,-0.0235112523737753,-0.0240054077603152,0.00176652974550281
-0.0205984844823812,-0.0313359355452573,-0.0230940566503834,0.0015294658560412
-0.0331772455187817,-0.0420197546709739,-0.0214515172427747,0.00124106297940852
-0.048732305246381,-0.0540614876051851,-0.0188539704606159,0.00107797796517941
-0.0716343171116829,-0.0602700692290173,-0.0193705717910595,0.00123152230908326
-0.0825882063988208,-0.054412537545586,-0.0268336021742419,0.00145760780118237
-0.0676394030417942,-0.0386554666210404,-0.0371603137171536,0.00113425781780338
-0.0455677653362952,-0.0328008800939214,-0.0411567129317904,-0.000188506450242296
-0.0377605474443399,-0.0424739438977516,-0.0362966858879166,-0.00207761158155337
-0.0353180700269526,-0.0494746795064229,-0.0282267314503835,-0.00312140847510879
-0.0269898015661232,-0.0554719442317153,-0.0217739207705215,-0.00261486199559388
-0.0192473917719904,-0.061525440699216,-0.0165115296442589,-0.00146732417482028
-0.00924681378695524,-0.051858873918639,-0.00975009160439779,-0.000522118918441332
0.00611078478593165,-0.0276307363144427,-0.00589378204937833,0.000596343765026331
0.0115007058838188,0.00146356950586092,-0.0125231371940811,0.00213848269394274
0.0142580987776317,0.0334014078704667,-0.0236583835088842,0.00314981458913716
0.0315998921603869,0.05106448788677,-0.0267618467740162,0.00293335754448646
0.0447360992683774,0.0358272479385008,-0.0222877062681572,0.0018512314514324
0.0368110570098047,0.00942577864184161,-0.017268045773346,0.000601655330184512
0.0137073994138022,-0.00291858273521062,-0.0133267120513544,-0.000231366422150906
-0.0154164646225391,-0.0123570269891351,-0.0103385590397019,-0.000477623845296235
-0.0390794656051131,-0.0338333164399112,-0.00825487130190638,-0.000162811561920448
-0.0457288790887531,-0.0611671483168576,-0.00760061588753653,0.000334009589473882
-0.0376321339771027,-0.0773406988102941,-0.0093648150074427,0.000397353241656229
-0.032334417499865,-0.0745871647346775,-0.0106598252718887,-9.56092316699011e-05
-0.0367066366456469,-0.0596385618804625,-0.00971772551023325,-0.000538931238832987
-0.0414849596398147,-0.0396110032686262,-0.00947315936967968,-0.000330349288293322
-0.0387927346592191,-0.021210092947341,-0.0103776410671761,8.13516003911395e-06
-0.0240653650993658,-0.0112893147690903,-0.00827686037443148,-0.000221936086430161
-0.00212678648867339,-0.0086534806186621,-0.0011930480953621,-0.000607126292212351
0.010585619806996,-0.00851605429767274,0.00445651817500544,-0.000593300644151398
0.00682205277467426,-0.00903034309986796,0.00367317554758682,-0.000217791722679261
-0.00268054474153784,-0.0101230203629289,0.00115389926609643,0.000123811113725874
-0.00865618100460462,-0.0114548855337839,0.000768408540777071,-5.83818553086292e-05
-0.0120934280955098,-0.0123404981330201,0.00217241991385609,-0.000945681651707574
-0.0211197009323432,-0.0131725220232547,0.00639298055316285,-0.00208797446601951
-0.0367111768056025,-0.0150998020519006,0.0126839418676002,-0.00241285449615852
-0.0460125643030973,-0.0179444826826859,0.0180704054518893,-0.00137832449188399
-0.0507509553397184,-0.0201187558032701,0.0199478998493212,0.000279686176772416
-0.0644485342459271,-0.0149327090817261,0.0125438932794474,0.00143452324830839
-0.0841660243672138,-0.00690120847123044,-0.00401333045459789,0.00143630251255525
-0.091247752174292,-0.0063647863769007,-0.0178697963271487,0.000245795021646858
-0.0806685267000862,-0.000440416352259398,-0.0207745092959369,-0.00164290457352285
-0.0665583481656662,0.0119469002960494,-0.0140743489051296,-0.00341343542981261
-0.0486464266822975,0.0141709304574268,-0.00431656870231836,-0.00415246530068971
-0.0303984112089224,0.0103711470342781,0.000255015330656023,-0.00342016281369913
-0.0316966020223389,0.00876013600044895,0.0026444252368313,-0.00171442308279437
-0.0470873058381881,0.00515588283370914,0.0131527674187652,0.000111966390570774
-0.0613345899710132,-0.00270032832068088,0.0267265379312609,0.00158191893571078
-0.0745150657329932,-0.00997240427668572,0.0330839032078509,0.00278924811922062
-0.0837079469272782,-0.0112996962202044,0.0322606487591549,0.00369736938032708
-0.079962626840246,-0.00986543856604068,0.0269220009944668,0.00362395530512807
-0.0624066698669482,-0.0123412379778548,0.0203701144420563,0.00169643965660096
-0.0372347099772188,-0.0149496168769912,0.0206381538338817,-0.00179768491387668
-0.000959721276904787,-0.0118843374146797,0.0312692278162912,-0.0046026956736981
0.0485727556188686,-0.00572863127926054,0.0418365655799958,-0.0048569019697449
0.0914085297517492,-0.0018748739704128,0.0470617857035145,-0.00325068302472748
0.0939162050970156,-0.000986979706796516,0.050603474997439,-0.00175782205203028
0.0537591274029268,-0.00148278183424189,0.049622396269185,-0.0015583035331509
0.0158534985484572,-0.00833989631144865,0.0433300355014005,-0.00150706729111436
-0.00130978327441868,-0.0227087828371665,0.0336336991822324,0.000996337567367285
-0.021491549528846,-0.0278359081615785,0.0211736827710245,0.00620082055781454
-0.0482246884343641,-0.0100445700874061,0.0101003759047453,0.0106766453319558
-0.0706736881837876,0.00843048771119634,0.00504900975358596,0.0112498758759124
-0.0908734792271578,0.000666557495953714,0.00535392265367395,0.00837300491409103
-0.101082086618678,-0.0246371445035831,0.00512981349424204,0.00412676457646517
-0.0787461608586741,-0.0451534894997279,0.0034993614436358,-0.000287743821444138
-0.0361365908833482,-0.0514139292802748,0.00506291964738883,-0.00425637792370951
-0.0119464344052999,-0.0558843494279733,0.0133733568495258,-0.00703037886818141
-0.00141588136821928,-0.0730229930830196,0.0270432875995912,-0.00736495368439068
0.023829175337683,-0.0920815428232069,0.0406463179877426,-0.00460730123169188
0.0560049482834525,-0.0963011955293637,0.0526667233503771,-0.000296532329719017
0.06753154113667,-0.0854187534157743,0.0607530037519965,0.00320283623400118
0.0508922983858475,-0.0636105911097877,0.057739463793129,0.00510631760558377
0.0204758463769217,-0.0406702596159179,0.0451054151515039,0.00569722961365987
-0.0074064736329041,-0.0274582730079009,0.0345973237173943,0.00526634074514598
-0.0308859468122837,-0.0183134325983721,0.0303802558915641,0.00431269893718072
-0.0552405245664725,-0.00622155110847539,0.0267167310043275,0.00299989627919407
-0.0714118415132266,0.0143619442360055,0.0203345299228969,0.0015011218987411
-0.0706047330531486,0.0471742113672589,0.0120336647788242,0.000656371838485838
-0.0623735188005303,0.0666998041183934,0.00671126698440952,0.000581288578234777
-0.0537721272436226,0.0455208512174797,0.0109377101151837,0.000182933451445247
-0.0393884321282418,0.0133194900729551,0.0184614530819366,-0.00110631208721037
-0.0191377039678898,0.0190309386819685,0.0182276042401821,-0.00224532910088554
0.00611342773203466,0.0483816906374197,0.0113250136224524,-0.00193491514923103
0.0375134529770342,0.0489206736230532,0.00287736830899527,-0.000173643183198785
0.0560031072298831,0.013550383969763,0.00087899957205363,0.00181798413639498
0.0523362439224183,-0.0195746063139614,0.00683085453912034,0.00288437620064261
0.0537874762429103,-0.0278088059623074,0.0113316812877634,0.0032631820685129
0.0695234923849417,-0.0223750093582051,0.0144826881633347,0.00392228341880595
0.0776341480765535,-0.0162134420025792,0.0206769689619752,0.00514104819183603
0.0702646320148069,-0.00767021509787842,0.0287962711239139,0.00587751535584509
0.0552477656596985,0.0010126550134613,0.0383427440232091,0.00478414651425768
0.0377450473218156,0.007354851035433,0.0460655972800283,0.00243530043608856
0.0172512341923365,0.0167773867408124,0.0487232995339434,0.000375911767619264
-0.00150654050166689,0.0238122375408068,0.0501167851800905,-0.00114007578639357
-0.0105129773346915,0.0233466234808121,0.0518889086364868,-0.00250225821469938
-0.00564920377666478,0.0262763412985007,0.0519222579688844,-0.00370279132707642
0.0074288838483216,0.0363711521284716,0.0484631305673432,-0.00463966434184515
0.0115777141679082,0.0359725350651823,0.0396508170079303,-0.00545556502605239
-0.00360670183699022,0.0134898326590987,0.0257084403273116,-0.00604550004732422
-0.0393780374683256,-0.0140463830827237,0.00815697373216583,-0.00587721104597716
-0.0845739650156014,-0.0206991108716031,-0.00120301948903036,-0.00462998005310031
-0.12588662907641,0.000194963926210601,0.00839087653087362,-0.0025228436418654
-0.154666295019729,0.030665480164164,0.02362317234408,-4.18491568766064e-05
-0.154831064535414,0.0622679624200445,0.0272133962415281,0.00208867918322613
-0.127465269138661,0.0992483754946997,0.0208819900511575,0.00250723692729913
-0.0910554689444969,0.116563096187109,0.0171433902757353,0.000389570696547634
-0.0507842683625553,0.100746848495926,0.0224347008636609,-0.00292916076733754
-0.00183026554615376,0.0816145958475791,0.0326671412824831,-0.00540491189889717
0.0447492279112487,0.0627474828946486,0.0403612246128859,-0.00626060073860563
0.069634861247933,0.0234388859395538,0.0441213823178611,-0.00559080347382833
0.0828407797677911,-0.0184998497019315,0.0489276316707773,-0.00397732300198412
0.0940244070999405,-0.0323519622195995,0.0586277196069576,-0.00251666671216936
0.088562711670923,-0.0211057336313241,0.0709806438670791,-0.0015410911936565
0.074073417390033,-0.00884602753564601,0.078961011340263,-0.00031435259741825
0.0676724195154842,-0.0157740401677482,0.0834303546116013,0.00135651800198665
0.0597505745312748,-0.0445903370417975,0.0916954060929867,0.00305494166411754
0.0365726611228712,-0.0793065546795319,0.0971742677011179,0.00443035014186744
0.0136166491209288,-0.100031197074571,0.0879462981689053,0.00472234667544946
0.00634413936799606,-0.0998620174587765,0.069953590503132,0.00305682322129213
-0.00789552427825468,-0.0765421103069736,0.055557392691397,-0.000147136789655506
-0.0386142561086516,-0.0397479747135892,0.052454779171805,-0.00302705997668739
-0.0651175304281108,-0.0162379620597567,0.0594137450964707,-0.00415506708454353
-0.0843404256410369,-0.000804110155670418,0.061536873572988,-0.00367949954434063
-0.108132494976109,0.0202409651263616,0.0485895112571667,-0.00253436847938833
-0.1449008808877,0.000188065726142037,0.0267834061085689,-0.00152163387103524
-0.1853010663922,-0.0574876614119006,0.00335046943975526,-0.00100917148977911
-0.187424472023195,-0.0278206081232058,-0.0238519004205691,-0.00154543169592288
-0.113365405974943,0.110324702137702,-0.0424641085515584,-0.00413123850494449
0.00149832562253588,0.214747106210311,-0.0334142995247332,-0.00833264330239325
0.0640712460396536,0.209775039972173,-0.00781446744072284,-0.0117343128523286
0.0453316190612598,0.134352664654593,0.0126434367257894,-0.0125521479017241
0.00816856584579036,0.0348538221808073,0.0239137353207945,-0.0104842910544657
0.00385038859525139,-0.0439801914095906,0.0308475482803077,-0.00549378153386262
0.0184789691745884,-0.0697765228574846,0.0379759324357065,0.001590317359556
0.0241563149796537,-0.0627393868576682,0.0451349865505253,0.00832445448636683
0.0199723999939692,-0.0499520830381612,0.0475116570397943,0.0123515018909186
0.0134941926562964,-0.026915470914198,0.0425788960015144,0.0130198835744057
0.00975412247421212,0.00908836704916742,0.0336830159297812,0.0109327537438949
0.00864186044531041,0.0413144341932229,0.0272506729165658,0.00736680363520435
0.00468651838806232,0.0581431331073651,0.0240308783341334,0.00384862196821617
-0.00424142792829306,0.0658374711946665,0.0195164866784893,0.00126497176370976
-0.0174706590732324,0.0687823290597138,0.013198531595361,-0.000311123995913859
-0.0288416672656035,0.0619363386252954,0.00905637079638262,-0.00101260550392707
-0.0307529747799251,0.0508259657931926,0.00820323474558641,-0.00101183727475523
-0.0256056748101183,0.0481660569902518,0.00612655107317116,-0.000673841381666105
-0.018509248440698,0.0544857506410031,0.00139750203379186,-0.000297899776582118
-0.0126686838484739,0.0627336016512376,-0.00272824695364025,-9.86201261607071e-05
-0.011383831808426,0.0706391786763978,-0.0044463357397122,-1.16367711817619e-05
-0.0134934497957255,0.0781957435583413,-0.00394177953530444,0.000255298752616629
-0.0144865231338976,0.083347965143308,-0.00213904639860731,0.000656801298159006
-0.0188319376861053,0.0871455083716841,-0.000195046779709152,0.00103087999508007
-0.0267076954254531,0.092266524714631,-0.00289257232415594,0.00104552633014186
-0.0235955180203696,0.0952804035712541,-0.00974205767102879,0.000199005184087748
-0.0111402515273005,0.0936474708964145,-0.0115853891722512,-0.00107421064339226
-0.00439435986423599,0.0883271232952512,-0.00625830614118801,-0.00147354296865057
-0.00500976597667951,0.0813404351065187,-0.000376994715226273,-0.000310212906053341
-0.00706492161634481,0.0764182640605182,0.000805793607619124,0.00176070560927318
0.000894367067575393,0.070416786814703,-0.00163253776857628,0.00319612986180972
0.0236604387417403,0.0622631626021512,-0.0047929316121078,0.00276156877499718
0.0498777601327362,0.0565756624647239,-0.00909253691351964,0.00099899310150562
0.0654658753820186,0.0521111847815071,-0.0133581019359868,-0.000332877938256088
0.0596096109088973,0.0454158813345348,-0.0133614572064947,-0.000529471767702838
0.0370402610664656,0.0371945589720451,-0.00840118041873958,0.000277631461141506
0.0133895709252627,0.0313219183436498,-0.00338141107010711,0.00202599910688733
0.00234029460083175,0.0275415682801881,-0.000181722013548507,0.00396938500099108
0.0093742496286108,0.0228560818445213,0.00313208764612638,0.00490940951417235
0.0243749238632925,0.0170000507631751,0.00699739362891863,0.00454783564615729
0.0302226984476448,0.011292557786782,0.0116123078531466,0.00356199435283617
0.0205878918920148,0.00742740789715817,0.0153211850156776,0.00272817963730335
0.00654545528079944,0.00523143099783494,0.017210921893055,0.00269875458171269
-0.00173945969583017,0.00280926199615369,0.0185018492940023,0.00340559338904203
-0.00428941530579519,-0.000498166646178752,0.0195839743942454,0.00372367696163411
-0.00149323104602104,-0.00264910850220025,0.018824198543498,0.00281980060063234
0.0029142458838492,-0.00439978012689288,0.015968813019379,0.00100260643336872
0.00693507492169733,-0.00814393842939638,0.0125470729023528,-0.000916533624446531
0.0145763424229522,-0.0116096395351539,0.00841756154095682,-0.00235666714012704
0.0273642201768973,-0.0101487084858199,0.00340486301052254,-0.00318224163359932
0.040129915827529,-0.00513583042200164,-0.000190906456489438,-0.00359979425082493
0.0450590350263372,-0.00860517787162548,0.00093794716049709,-0.0036461606212151
0.0422774395748526,-0.0219818501200146,0.00264020146497095,-0.00280947445896304
0.0380189890478209,-0.028519032519293,-0.00239900282013714,-0.00101567021945757
0.038238826160544,-0.0225535705223313,-0.0113076978165827,0.000311527879585252
0.0349554546239041,-0.0150131393493668,-0.0168557638377557,-3.22499077158029e-05
0.0172666146795639,-0.0115462706416209,-0.0185093835045818,-0.0012331114276555
0.00664287304309769,-0.00727632484026487,-0.0198763699441437,-0.00203186061233851
0.0167591307482339,-0.00174136868419829,-0.0213193190356575,-0.00201835170779867
0.0210139487735827,0.00103177896645735,-0.0216344557219431,-0.00136166048897249
0.00784143095774488,0.00389810995041367,-0.0222435503172643,-0.000913144533478955
-0.013995212686441,0.00755441509233862,-0.0215581698722665,-0.00129328079793726
-0.0391943410759173,0.0107902588440996,-0.0186536459674101,-0.00174689747696452
-0.0435164800671884,0.0148633457693257,-0.0183104045605432,-0.00141130502603233
-0.0104109660614956,0.0100723477896277,-0.0197617952372299,-0.000768051357236951
0.0258020852582898,-0.0127971569541379,-0.0174665858140207,-0.000585144313926334
0.0322489724943177,-0.0432866843936558,-0.0103133055671946,-0.000720392384804059
0.0246435857385358,-0.0636017062816505,-0.00336714231296723,-0.000661519106217517
0.0266007658888357,-0.06588412134521,0.00124971954409268,5.02772537915456e-05
0.0370208115332626,-0.0549942644890018,0.00758310033734953,0.00148559839403122
0.0431250557100348,-0.0425381217117383,0.0133502091577027,0.00304437434556791
0.0326941603847025,-0.0389453863380037,0.0140379936549748,0.00395577907228882
0.0103152174998402,-0.0427291248446514,0.0064679963008197,0.00361313008532889
0.00369936624173115,-0.0327219939042288,-0.010814333934426,0.00205268372869666
0.0271594044091853,-0.00192194925878705,-0.0306126375066809,3.66848103139925e-05
0.060297622046849,0.0231126995162666,-0.039309245116788,-0.00189661275866153
0.0766464030952743,0.0265708283685896,-0.0287014864686233,-0.00351436911309584
0.0737789734023325,0.0181524143111994,-0.00709034521765341,-0.00445205166838098
0.0537564195605021,0.0253545569693019,0.00928635082501729,-0.0047886140164624
0.00438144890286593,0.0737755266716515,0.0119769361095012,-0.00503752393941017
-0.0611678425678661,0.128999186579827,0.00501282904153927,-0.00532136392877715
-0.101698273360616,0.126376498605086,0.000508827495959305,-0.00542351123317648
-0.0997847477266401,0.0685947820605351,0.00666615058737564,-0.00521837903034196
-0.0767889309700911,0.00947770584770757,0.016996911849715,-0.00449347747512225
-0.0565127472612181,-0.0269551446145299,0.019518581581493,-0.00330794142607787
-0.0435480789393712,-0.0449089740512605,0.0103846735570929,-0.00238316457473008
-0.0495627222244065,-0.0425781449619582,-0.00469145420508851,-0.00194790371348783
-0.0678905045375524,-0.0285775249338108,-0.0159537468126548,-0.0011702227444713
-0.0598501446289855,-0.0202892002804472,-0.0215191635763702,9.33606487001906e-05
-0.0118005294531785,-0.0237856681514671,-0.0210625070312891,0.000562750798898269
0.062229548213405,-0.0356620803992222,-0.00877877726367294,-0.000237306188982544
0.130997147885074,-0.0434692792265904,0.0097081060481046,-0.000817888515819497
0.147226638993564,-0.0420819482112578,0.0244259512224178,0.000701834713151981
0.0961138989234692,-0.0358812829343473,0.0379193144357508,0.00458448273195289
0.0162883903420538,-0.0232084366958236,0.0507398787944747,0.00881194086643539
-0.0586828601398651,-0.000929851608285945,0.0519548800147558,0.0116892718023888
-0.134834217593236,0.0232824810399344,0.0377698399618579,0.0135950161828902
-0.20264763540555,0.0429015999816367,0.0190550095149177,0.0141230877116532
-0.212189371079387,0.0545308980812209,0.00230828987775702,0.0108329428029195
-0.147966891418626,0.0522022853987666,-0.00656378307172846,0.00271681064578915
-0.0603424051902296,0.0503632864553738,0.00322899348773248,-0.0070253711889821
0.0100240829335892,0.064947905360631,0.0266121770975691,-0.0138763789353257
0.0723037465290844,0.0700452684376942,0.0467777329163751,-0.0160288333625337
0.145557193893874,0.0378446336898157,0.0566757115411152,-0.0140518971913599
0.210984002559878,-0.0111150533839085,0.0591342141365096,-0.00966776982682339
0.220263552847461,-0.0483417586017102,0.0550516734868792,-0.00486743332274508
0.16956721610558,-0.0660595788193922,0.046011607684453,0.000384519375351782
0.105059989948176,-0.0696411096931636,0.0396530508552168,0.00737685430911221
0.057122501703032,-0.0652064597881774,0.0416879139866894,0.0142101150471833
0.025585324823826,-0.0508021455827223,0.0487935965501669,0.0164870512458738
0.00402992788852349,-0.0278816911237146,0.0549280095649246,0.013209967074053
-0.0104322658275022,0.00183079785029024,0.058321970598734,0.00765701261352876
-0.0136235780147504,0.0322656594482312,0.0597085774958444,0.00243620976755056
0.000366229753144237,0.0364321621992433,0.061930888282859,-0.00165021928582859
0.0110159942554515,-0.000128946105474564,0.069520723707949,-0.00253759727582926
0.00521978612983608,-0.0489077163538865,0.0807873591980934,0.00130263230595156
0.0079318375593174,-0.0768743088453437,0.082556561775601,0.00663129779164715
0.0266098223824131,-0.0740574595523044,0.0669210918884065,0.00905977106517509
0.0459451955948785,-0.0481281756537407,0.0484060616845129,0.00833841164390284
0.0710369152062933,-0.0208170106175923,0.0475785750646845,0.0057921221893237
0.106680433127725,-0.0123984769294783,0.0613404190390403,0.00211048043149844
0.130525398254877,-0.0278871317108481,0.0727301725787727,-0.00166049292805938
0.131328345174293,-0.0616790460980263,0.0777876810576382,-0.00475207307040445
0.123782155935012,-0.0990023975160574,0.0757798751515612,-0.00645458275712108
0.105916630155392,-0.109038149565293,0.0605140651914298,-0.00584446159297828
0.0613238282889395,-0.0744040455525038,0.0299902757459834,-0.0029108274778938
0.00676978557131552,-0.0145185030370761,-0.000225413762656446,0.000902448394877971
-0.0159838641827171,0.0603882755298898,-0.00375606987816643,0.00362639159595631
0.00523540440432085,0.115712151538858,0.0164516785068155,0.00437380445533784
0.0393097969935567,0.0879549763393108,0.0363143930137537,0.00345322251838478
0.0563134121306786,0.00403544710527985,0.0488989615119752,0.00174185322374151
0.0577549790780205,-0.0585509189711579,0.057132824982798,0.000370529375301508
0.0575349140017903,-0.0794415667690296,0.0589167011653024,-0.000151940226621358
0.0617662286285224,-0.0787455311704204,0.0518255269501613,-0.000373831598869587
0.061750196539683,-0.0743017189757761,0.0381211092072791,-0.000925530348943654
0.0464997420813151,-0.063266756289536,0.0261517165904721,-0.00183816528163451
0.0233901401390735,-0.0336201293063748,0.0214953284460074,-0.00253401950369084
0.00695817025583111,0.0158079213897236,0.0166211504880089,-0.00220687826863889
-0.00220161274444353,0.0630015353647319,0.0070421548903522,-0.0011905534695035
-0.0100526205764129,0.0757489812932891,0.000215180653284602,-0.000966253603824689
-0.0178798557132607,0.0540748077137005,-0.00212141047169225,-0.00226605723870407
-0.0235156454906159,0.0290126904106853,-0.00486103246550346,-0.00442570165309715
-0.0159446075158689,0.0152755554235013,-0.0087621998359208,-0.00648623926885541
0.00396386539604878,0.00046531408159553,-0.0130222363825415,-0.008117383943185
0.00901116205156652,-0.0114034539346623,-0.015638457548074,-0.00912034017450245
-0.00629483112743154,-0.00521992181868579,-0.0163193929281706,-0.00900983723098382
-0.0200521510516918,0.00579376741908603,-0.0177417977467649,-0.00794688459049914
-0.0251400235401818,0.00321680143324399,-0.020082053946441,-0.00661415634546257
-0.0280766136592437,-0.00790410220086697,-0.0223964187944934,-0.00531767960880687
-0.0352228381976369,-0.0109454307304387,-0.0252229694432624,-0.00429524735677944
-0.0447900256348988,-0.000568627597898924,-0.0311592480740268,-0.00361989174864053
-0.0488625856374405,0.0165895622588766,-0.040751145302321,-0.00302124326000388
-0.0462931074809591,0.0291691302605864,-0.0478654779062554,-0.0026998942710391
-0.0431032250089032,0.0253814472158435,-0.0471964139267123,-0.00254807555230465
-0.0421909938837087,0.0158819424085853,-0.0452331928721269,-0.00158015498493755
-0.0410329049059157,0.0179462301655133,-0.0489157463363561,7.88473120516421e-05
-0.0381592449323995,0.0251792426165989,-0.0533951301480394,0.00102537111381997
-0.0351843616247813,0.0282739610860349,-0.0547022309714377,0.0005826124735074
-0.0327116938327539,0.0304439628424162,-0.0555510772995078,-0.000686255218976376
-0.0296266723477552,0.0327112468691269,-0.056325947721888,-0.00206887337078998
-0.0272727205189732,0.0299799312035074,-0.0561645878549327,-0.00325153636807672
-0.0228784005370763,0.0216747604127417,-0.0542730685256469,-0.00402216914325727
-0.0103883395489547,0.0128639529443549,-0.0509394610013805,-0.00432859849371658
0.00564488443627964,0.00665270484546969,-0.0501925039051641,-0.00429103724054376
0.015143247533247,0.0022881641598329,-0.052441992332902,-0.00391311161527943
0.0212242879322258,-0.00199253715668628,-0.0537725605568154,-0.00309267496970736
0.0295749175309487,-0.0049663140203207,-0.0532346776827618,-0.00192812315566334
0.0308589402705029,-0.00583552399466465,-0.0521706840548412,-0.000684626311453082
0.0250617440945348,-0.00620450600544857,-0.0512279514581494,0.000530942614263776
0.0276332135110786,-0.00565047826861454,-0.0513205075196431,0.00158109601590576
0.0356084878158749,-0.00629453901803915,-0.0526358272058881,0.00217045160885527
0.0319631272009612,-0.0101178935878504,-0.053380569710996,0.00239167006787234
0.0180885433641847,-0.0140786485724758,-0.0522414906599823,0.00268298583943743
0.00730972741205606,-0.0159307617003176,-0.0522308815230152,0.00310663940685715
0.00434248355113485,-0.0165800596118479,-0.05500894393587,0.00340683852884904
0.00737684973223336,-0.016164388510574,-0.0563335388609739,0.00350449450759255
0.00924162934398536,-0.0167013080574608,-0.0546155803465281,0.00355070740900987
0.00304078341637888,-0.0185848429443251,-0.0525289041773318,0.00356649670996177
-0.00739908552601406,-0.0201758556566068,-0.0519637069185881,0.00344982161145557
-0.0153745225694182,-0.0235270413014462,-0.0516670431703143,0.00321503748803961
-0.0198279813067088,-0.029627771128314,-0.0503112940706688,0.00305785718776541
-0.0209961217508403,-0.0382340435856616,-0.0509520710622889,0.00312348926645897
-0.0157708098321436,-0.0467426883561372,-0.0526503193814864,0.00317271658623757
0.000193918482278503,-0.0493392722845713,-0.0513576061653933,0.00300873117537367
0.0250658756230552,-0.0403856540619853,-0.0497825394019251,0.0025293514717877
0.044700550915166,-0.0206591197569592,-0.051886039067267,0.00181289476913347
0.0446453703159696,-0.00208025999896148,-0.0567215371512693,0.00115943325033937
0.0286434919193928,0.00205357329909008,-0.0602522396061807,0.000707937881299601
0.00772165981962021,-0.00816325766424066,-0.0614036465011712,0.00028660561875575
-0.00104909575157516,-0.0221881283788293,-0.0611589743284134,-0.000311769478250732
0.0168993422227328,-0.0328138357690666,-0.0601984477734414,-0.000391271028017481
0.0407694837520646,-0.0356944593429505,-0.0604903480295513,0.000803543699798548
0.0485789596962357,-0.0228799197739122,-0.0625506310900044,0.00260726096952873
0.0483676853653356,0.00284264468230713,-0.0658294889291659,0.00361925398532617
0.0471246415430135,0.0136568745258757,-0.0662932572913999,0.00339278016501262
0.0374890676196197,-0.00369191121115897,-0.060998810586917,0.0028557269491695
0.0163818268625398,-0.0225489500380622,-0.055815930609656,0.00290922159763979
-0.00768559251297031,-0.0258338428956912,-0.0560543495140379,0.00342803436651863
-0.0228864199016548,-0.0254192960957357,-0.0581414034114821,0.00363139897338432
-0.0242315176103315,-0.0300520570399473,-0.0570488125021751,0.00318450273643006
-0.0186388210561335,-0.0347088018761854,-0.0550387094073231,0.00249993086083124
-0.0125876039255253,-0.0389481239316623,-0.0545983266305137,0.0015399658746208
0.000800368332928238,-0.0462641662995253,-0.0550545663326365,-0.000175229009362968
0.0295137768555951,-0.0493634303655574,-0.0542675793160492,-0.00224618665633125
0.0591139397810025,-0.0425921825317796,-0.0497795674423889,-0.00361278556838394
0.0719048962565975,-0.0319418443783533,-0.0442413231873269,-0.00361777249487786
0.0688881266744783,-0.0236437483962099,-0.0408785214510181,-0.00250098761543289
0.0580081515546495,-0.00864865784623635,-0.0420575479137277,-0.00108366522763149
0.0503407372037449,0.0201112656838428,-0.0484224912660149,-0.000161356595219697
0.0517470578794662,0.0471288891563625,-0.0548310199710526,-0.00012365854545382
0.0549928424477646,0.0527559142350242,-0.0541266341631969,-0.000370742420871693
0.0522083957046083,0.0374980242146239,-0.0457712278456472,-0.000528828294226751
0.0348708240232761,0.022019250786657,-0.0390110613723906,-0.00126423381432546
-0.00539789985326741,0.0172983739242413,-0.0412007621499134,-0.00229200450920751
-0.0593237662279777,0.0260205905916588,-0.0545857814774866,-0.00238861080604046
-0.103087125742054,0.0402185652283836,-0.0719192996451313,-0.00141838110417054
-0.117573740066952,0.0258897380780619,-0.0767052879186736,-0.00058690321868841
-0.0932255188720123,-0.0143907876893687,-0.0662308616924146,-0.000501015742827416
-0.0326264289724354,-0.042329695817529,-0.0506466715732903,-0.000535880377629329
0.0313785884244537,-0.0516483402543487,-0.0377558840899077,-0.000482144511066064
0.0580461728682835,-0.0516507286296082,-0.0317341612631456,-0.000439941530039145
0.0477793454966595,-0.0484247626605847,-0.0333358919729687,-0.000274529678572049
0.0335333598265468,-0.0464949338304731,-0.0355922186207481,-7.1605736919265e-05
0.0331808250730993,-0.0393635619124429,-0.0317403316184373,0.00014268197280308
0.0349332790317712,-0.0205516310945844,-0.0298139069384154,0.000627477689741963
0.0297370583313745,0.00819848661573128,-0.0363411955752207,0.00134638744980586
0.0225301423174008,0.0338361719192512,-0.0400644955062218,0.00181248529988966
0.0153618881377673,0.040818922749359,-0.0345757822503705,0.00182898792443316
0.00551693423455297,0.0373096404155512,-0.0283092896425339,0.0015579598905979
-0.00916158203077852,0.0415021187152726,-0.0258190197466031,0.00118134315437784
-0.0257132026619872,0.0495822773521001,-0.0272111036125882,0.000794088421328617
-0.0363946297988823,0.0452110530847489,-0.0310171236626772,0.00021941690321851
-0.042420698604028,0.0291949430534429,-0.0328710446389284,-0.000765102658581423
-0.0495357147392864,0.0149682760982617,-0.0306366778783538,-0.00173064186511872
-0.0472407957781165,0.00844546270143027,-0.0253799887881792,-0.00181911665152954
-0.0279692000753204,0.00961279349828772,-0.0207718361319112,-0.000916852361007971
-0.00821685291443316,0.0159580259554988,-0.0198740027456109,0.000243962133548227
-0.0051251950460613,0.0196499993641127,-0.0217219225926744,0.000827737292194691
-0.0143564232059614,0.0155654443887059,-0.0227215576482597,0.000527643422077229
-0.0235658850769954,0.0090264539441734,-0.0218808892695044,-0.000215242176064903
-0.0278005762982587,0.00709098724457161,-0.0213250923615845,-0.000607295876830436
-0.02676788835944,0.00930184288429245,-0.0208568797500437,-0.000107458424990194
-0.0218162228274936,0.0093910022449839,-0.0179311759396664,0.000922973163269133
-0.0164822507520351,0.00607131991715609,-0.0124951178856467,0.00171147688470408
-0.0169886536827192,0.00435087584501119,-0.00787042531809273,0.00216540022570019
-0.024762369396353,0.00714231613356625,-0.00532352568977368,0.00229185352989541
-0.0319234102472875,0.0137665250760136,-0.00254050161816871,0.0020051801838678
-0.0306936862234181,0.0212447942670726,0.00133412601264524,0.00138532420103571
-0.0273353114161076,0.0247657262743674,0.00455067184362564,0.000515072423629346
-0.0349363405816135,0.0265701356594037,0.00665486471094505,1.01609137172537e-05
-0.0509308098534248,0.0315693580025683,0.00933130272103743,0.000379120337710216
-0.0597188689652126,0.0328809848057067,0.0132381852014595,0.00137623587327295
-0.0533499459585668,0.0236803017409037,0.0168473888497972,0.00246912400147751
-0.0374630330442432,0.00959358523508694,0.0189307790214303,0.00300293286680934
-0.0170467999429484,0.00376621585098431,0.0151328772681102,0.00257333530567496
0.00441067136292712,0.0115775068385902,0.00312198317415077,0.00170230842037432
0.0190470973307094,0.0207818558466386,-0.00316054883942734,0.00112974434643667
0.0282409242555187,0.0217909663802815,0.0053607367792204,0.00083182432560698
0.0372862354350186,0.019503007939979,0.0166856732632627,0.00056976442200922
0.0409538550457869,0.0175103922865661,0.0228709059060038,0.000252040184919909
0.03144450460918,0.014065733397763,0.0273089190102111,2.01438339068709e-06
0.0100144461968113,0.0108308773721365,0.0319289138492733,6.65035506770171e-05
-0.0154654909824882,0.0123806427056763,0.0332008245319698,0.000205905817301448
-0.0407092224990814,0.0174834264285878,0.029090419285864,3.10260604298236e-05
-0.0582313794933105,0.0189946674631489,0.0264170008403744,-0.000460402451127947
-0.0585447678116405,0.0151988185150954,0.0286605705489854,-0.000909979641783298
-0.0467087935602098,0.0106522920862457,0.0320880105063633,-0.000910948054573399
-0.0345958251268713,0.00909141553013976,0.0344526505420031,-0.000432954237391582
-0.0228245445643538,0.0117011437097526,0.035353169277235,0.000120514080352851
-0.00489818273675414,0.0137401871548554,0.0377583538345683,5.71569554205309e-05
0.0137213026950503,0.0117553405536112,0.0422601689517506,-0.000632798810219075
0.0131614044206418,0.00894427403608933,0.0455140157699752,-0.00115686508763752
-0.0130159462117271,0.00396083306415574,0.0472781728987752,-0.00103325098218529
-0.0459517106654681,-0.00511641316627571,0.0456449258893143,-0.000244152063034764
-0.0573392965284133,-0.0138830370616773,0.0396592162312801,0.000600442604945702
-0.0396192072259288,-0.0221564958811555,0.0363572601766406,0.000404032128129796
-0.0203683949430307,-0.0362552835805454,0.041648249327401,-0.000735553818183128
-0.018290428227699,-0.0533407586667299,0.0523762675329219,-0.00132192440679453
-0.0250923804264489,-0.0626779021593885,0.0608973693385605,-0.000691058064055775
-0.0315198304205117,-0.0674090933031474,0.0620765075356487,0.000482742158574205
-0.0303392073567859,-0.0774525064208247,0.0565332440185629,0.00132765806282533
-0.0156855802140261,-0.0841064631150796,0.0504875874108342,0.00108425775227279
0.00871927263456574,-0.0785432988615993,0.0500806627700187,-8.63701476636273e-05
0.0390045256297457,-0.0738578921775904,0.0563158287766051,-0.000894972631396488
0.0723376175020231,-0.0660527254818315,0.0631220022765911,-0.000650087037635518
0.0878936107936836,-0.0283116506152022,0.0611356938452177,0.000203775127614095
0.0670306916357158,0.0248974197849544,0.0530019341466349,0.000949839434831998
0.0158062109976489,0.0408778260184783,0.0478114924359679,0.00100195718881376
-0.0553646192037139,0.0189902641074818,0.0422311162796887,0.000260079279737337
-0.123286214249713,0.0238759689821526,0.0275111835531435,-0.00095076772839324
-0.152895849682198,0.0760127672497198,0.00647095076824922,-0.00251008552826413
-0.143388471772292,0.120735567704968,-0.00690462606928536,-0.00455595434276249
-0.115057074313503,0.114254584022879,-0.00726122037780836,-0.00652844556014684
-0.0678301004963328,0.0566699725832148,0.000267033795821679,-0.00743576807010001
-0.00481590310635105,-0.0180144379404515,0.0118791199233748,-0.00731271002794126
0.0492743741368071,-0.0689103519572895,0.0244286408806635,-0.00620267051047686
0.073943017579183,-0.0772687648930941,0.0325539034066957,-0.00334022465309851
0.0682730964678679,-0.0434292928149774,0.0342259580474741,0.00109862438756852
0.0497152528882237,0.00466081950244721,0.0354257496512608,0.00536274403424691
0.0358860118523655,0.0251323581369389,0.042011157421157,0.00757248459927013
0.0291785226541566,0.00974476826375902,0.052024246293688,0.00719118503016278
0.0181555561110646,-0.0134868412299236,0.0571740934400423,0.00508781055395638
-0.0108845141281236,-0.0253803357764973,0.0524334819763825,0.00255505359347596
-0.0458809093490604,-0.0260163301701861,0.0407896125489969,0.000443372546159298
-0.0604001012988018,-0.0219820446021703,0.0254220769964576,-0.00154499934053252
-0.0566244275647726,-0.0264162648281834,0.00856443156031803,-0.00428542720466501
-0.0487138467547597,-0.0349331122076913,-0.00905682735405194,-0.00719820112981269
-0.0428092872589403,-0.0202867420235317,-0.0290308670977584,-0.00855598506116981
-0.0487159488072843,0.0368605222051517,-0.0447646389533157,-0.00764680420334382
-0.0622828094018055,0.0986133551803173,-0.0456154375777855,-0.00524748146968178
-0.0693955108162618,0.0994006691335892,-0.0319985432821802,-0.00221177840815867
-0.0723800226785948,0.0569697146041935,-0.0155035438905206,0.000906049993563358
-0.0821573468045171,0.0294065257145111,-0.00516780556696354,0.0031153892491667
-0.0902605735127841,0.025850060677449,-0.00129717534192928,0.00382158794648144
-0.0748920871614663,0.0299486032671517,0.000234836062829986,0.00353303072116566
-0.0467074759624554,0.0316484873180838,0.0026599793101894,0.00313392876241079
-0.0315099080233921,0.0300431135046531,0.00598343587177287,0.00286475348298456
-0.0244619029167372,0.0249390058196027,0.00952676877443508,0.00235513377983316
-0.0129382232740164,0.017136019871885,0.0117261305964219,0.00129785601917344
-0.00289111466541816,0.00960307270043182,0.0132935134588313,-0.000140087025216423
0.000134980283200171,0.0039226253589803,0.0148391876232091,-0.00141407960002803
0.00129510683419789,-0.00102790833522647,0.0117736295416071,-0.00231247996146644
-0.00209841810885421,-0.0064391829597455,0.00419557859940094,-0.00289910425606092
-0.0219793385312755,-0.0096830183259442,-0.00392178345837928,-0.00310981508238623
-0.0603062875039859,-0.00695932091129729,-0.0142362239153991,-0.00277277474877474
-0.0912818274559346,-0.00152968280691426,-0.0263882185237584,-0.00184990051167929
-0.0841363082350513,-0.00112359199107336,-0.0320690459615501,-0.000822538902215037
-0.0463330085411161,-0.00473927527361651,-0.0256126826906932,-0.000236606804243743
-0.0128181499822442,-0.00810944850522734,-0.0124928667593159,3.56669332837408e-05
-0.00572012292367605,-0.0122158643811273,-0.00142612006881919,0.000456966928613973
-0.0209409984172175,-0.0185445986749054,0.00412928090000336,0.000987917987623541
-0.045143942347795,-0.0219040787074713,0.00621227616329264,0.00137289864160799
-0.0619954281427935,-0.0139268319270559,0.00810990136979195,0.00196599614547231
-0.0604782780592139,0.00100351586849215,0.00902902273402009,0.00302134669295171
-0.0478119387730232,0.0125589859313598,0.00861644988010254,0.00391851645604016
-0.0424305565099349,0.0160732685494813,0.00858065650332862,0.00398659126435422
-0.062737145772418,0.00965694199576937,0.010129549626293,0.00322234700507734
-0.104086992675794,-0.00441522961878053,0.0137620359943125,0.00222526529369163
-0.138440107926287,-0.021899769379979,0.0154255146314745,0.00148096177138915
-0.139883306336309,-0.0402178301111024,0.0161803201591561,0.000877910710578647
-0.0982961732135431,-0.049177881833957,0.0210500333027449,0.000239342414516646
-0.0282828664930642,-0.0440614077202699,0.0254389846032475,-0.000415638933283593
0.047388850646426,-0.0401834095081597,0.0275223027264951,-0.000978590908422608
0.106350128794831,-0.0419274980965798,0.0320587212565622,-0.00122737570861958
0.115167580110796,-0.0402357996655472,0.0377710469760231,-0.000995891133015131
0.0732200631381391,-0.0336772677657894,0.0388433804475911,-0.000334494872876648
0.025250739160198,-0.0271830242030183,0.034130192717366,0.000635432739137292
-0.00544032233950686,-0.0219238197807202,0.0262074867211323,0.00143647659033741
-0.0165776517469495,-0.0125598270973804,0.0170734039842673,0.00152306736673697
-0.000817002770204266,-0.00101869556579407,0.0105509031827433,0.000918171258056907
0.0244020239303731,0.00569699107817739,0.00940839034618746,-0.000331271583485358
0.0238864640462604,0.0112475050686994,0.0109577859018634,-0.00210401752048266
-0.00895826594458034,0.0262966242629424,0.00923336551082722,-0.00365027837734807
-0.0435314643398989,0.0497053891991673,0.00354900733121578,-0.00370743063332492
-0.0545095526121713,0.0620532967354033,0.00347419816969837,-0.0014204727510705
-0.0423412544451123,0.0452449490111442,0.0140302476698613,0.00209106750429274
-0.0186285440320235,0.00856821803127294,0.0279035917911381,0.00421046438599245
0.00126543725240997,-0.0199028008674639,0.0390280612260845,0.00365429746748963
0.00902302500657364,-0.0296263809381499,0.0471482077399263,0.00162013430754678
0.00858157813607381,-0.0318967303827973,0.0529166205734662,-0.000139380563608795
0.00857169655461412,-0.0311528981411467,0.0564268374848033,-0.00104447185775874
0.0118077378760957,-0.0233575756987915,0.0563309423312835,-0.00107385769270741
0.0149698875421558,-0.010524444038535,0.0528327275400467,-0.000391164250844555
0.0162915371809229,-0.00114292677809735,0.0500420643008047,0.000288268144759936
0.0165918981422848,-0.00076111827103937,0.0488544114853231,0.000317373608174795
0.0157349154564864,0.00179805468969807,0.0459601709618577,-0.000332347596152629
0.0149404024372856,0.021612165724281,0.0383557702820972,-0.00126481811919393
0.0161060522876946,0.0510289345961143,0.0286334425829784,-0.00215625243258962
0.0168152631934682,0.0618246529914218,0.023142348730102,-0.00281150848806448
0.0152318415565825,0.0444251248312622,0.0215027675710718,-0.00323449247149832
0.0135488631173324,0.0254081418396685,0.0205848118388388,-0.0035832783742837
0.012583911414179,0.0206191524547082,0.0206042538159618,-0.00363615257016304
0.012133511095877,0.0231933856116147,0.0221209241223822,-0.00318367795533662
0.0124473522471788,0.0320428358698816,0.0247768831140757,-0.00235877239913111
0.0120020589332027,0.0387752020766601,0.0276311989661272,-0.00135787149014778
0.0108529019309851,0.0269018134077054,0.0307012690891216,-0.000125663996097507
0.0113158042721097,0.000599511485588032,0.0371564716097883,0.00148449367038601
0.0173945993582049,-0.0244696336411884,0.048454223543037,0.00307038038673667
0.0314725871194298,-0.0440520446101429,0.0588190240214048,0.00403923889022089
0.0419208856740112,-0.0540099583884544,0.0626116665689754,0.00423886062920827
0.034323159538882,-0.0479256912786939,0.0593272879580518,0.00367343280623943
0.0192006577288722,-0.0402947309590824,0.0540526146589442,0.00179809974546184
0.0154975023123363,-0.0452983904157767,0.0520479320616109,-0.00120970970892636
0.0255279883523815,-0.0456837110593269,0.0508507381944368,-0.00322828850465821
0.0409194690664162,-0.0281538798918222,0.050847506049823,-0.00219665759942583
0.0486385699200238,-0.00338919630272431,0.0514815795334163,0.00104135938962276
0.0427254660079736,0.0222443406433064,0.0467031271924742,0.00252969080424342
0.0299348162958886,0.0522784120254331,0.0366983632493116,-9.68468093551153e-05
0.011533106958351,0.0892732576992631,0.0256872407119401,-0.00406702269833758
-0.0146230562221307,0.118666761774821,0.0184792201635705,-0.00551000617398048
-0.0319369128128955,0.109356830729582,0.0157273056465981,-0.00431668430083034
-0.0257834575828406,0.0597241943471781,0.0155051327446504,-0.0028874018689713
-0.00901658433403222,0.0106696408240414,0.0174148598908313,-0.0022825786734555
0.00541580213158764,0.00402781934337375,0.0188357824756066,-0.00164476736961776
0.0157870979389261,0.0321928969358726,0.0179531541943688,-0.00016972464844072
0.0155990615719246,0.0519492305830615,0.0126739977031898,0.0020274795105731
0.00317517567793159,0.0436951762535254,0.00308418430099069,0.00394016974538451
-0.00927514712767863,0.0100609312550641,-0.00392243071342369,0.00438035014023202
-0.00885120557013403,-0.0302429416308578,-0.00546257365284807,0.00301475774249142
0.00325757277250814,-0.0434799642715761,-0.00531714888990622,0.000779713074295564
0.0164841891366132,-0.0226140005687294,-0.000576510915401278,-0.000753600281547317
0.0287665032757185,0.00349850966365667,0.012588622994137,-0.00097883837285596
0.0436109117031757,0.013216521157504,0.0267703904672597,-0.000269310950408079
0.0548188090530539,0.0103035857133547,0.0333065246632618,0.000935061825393235
0.0551649069048333,0.00457887938308189,0.0316146248457462,0.00192660301040905
0.0483682640460767,0.00239081120392281,0.0285006257431399,0.00238624114449534
0.0421842214140958,0.00361448240986205,0.0261603057678517,0.00252044779924873
0.0410021678510108,0.00123159351682355,0.0225631008407325,0.00204828847275297
0.0438128529057741,-0.00755687146265348,0.0185803630878367,0.000901635626912843
0.0427317499760276,-0.0212772096423902,0.0130529605267514,-0.000243660531996271
0.0369693384846875,-0.0350536987269767,0.00824805158288628,-0.000445991237168339
0.0335355726765227,-0.0422991505908169,0.00307971345584404,0.000703392469024206
0.0193840504384484,-0.0293190019348011,-0.0162368916715647,0.00216500602037421
-0.016905937353905,0.025114811199913,-0.0531001358550622,0.00190611143765769
-0.0505316619495251,0.0955409705114228,-0.0777003939528944,-0.00112011359713474
-0.0571352115899661,0.122136151526316,-0.0579782119031317,-0.00471745605425715
-0.0426791075976481,0.0897038619020787,-0.0102033246053986,-0.00528611025062944
-0.0226227822414749,0.0310159875263735,0.0220168296574074,-0.00241108850670679
