-0.00791262749722284,0.184652222430483,-0.000335114850111274,-0.00208795146945645
-0.00102159951076019,0.0970665104780372,-0.00217161255397756,-0.00402429936073612
0.000212378366060723,-0.0372852883390021,-0.00491697524930662,-0.00374999087266583
0.00182620351871852,-0.152529512295667,-0.00505208761351545,-0.00214258537828952
0.0149552307174098,-0.202357874055931,-0.00468230367548514,-0.00074951006433197
0.0273094634842718,-0.188241460229312,-0.00676516657174237,-0.000283191648664747
0.0278806667286819,-0.16347615669816,-0.0111820077950666,-0.00037451633337914
0.0297794007518027,-0.164457922909207,-0.0154172253294748,-0.000237611758025331
0.0422413919915156,-0.156168321300945,-0.0168416776036482,0.000373336450487079
0.0594340240002133,-0.10904323967461,-0.0169689937916968,0.000844242023952367
0.0799563460083449,-0.0575611752755716,-0.0160965834134447,0.000980448761767645
0.100042187622833,-0.0290331253867711,-0.0131007378736579,0.00109002770982948
0.10670552064363,-0.00408776578335467,-0.00933664356559301,0.00121312964361544
0.101379070408794,0.0525728341970239,-0.00542078658813325,0.0012216435761122
0.0866884649343718,0.121784848667216,-0.00162030941475929,0.000964788782528771
0.0548673830008895,0.129901767225232,-0.000275191796109577,0.000509010886910223
0.016944527215558,0.0712320363622659,-0.00212975242601587,8.11188958129964e-05
-0.00774191515925113,0.0107055817901587,-0.00414730608719641,-0.000163577879431958
-0.0162915432849042,-0.0130784435340664,-0.00481661873660685,-0.000290193452214946
-0.0158744181170163,-0.0122565452740781,-0.00596687812309084,-0.000348318618320024
-0.00882765445804129,-0.00772561485804236,-0.00714993734552992,-0.000100540555436169
0.00227987435848957,-0.00267543807837848,-0.0066472805073925,0.000322463567087414
0.00975154547376056,0.00123493334939608,-0.00582960108500736,0.000354733186049223
0.0123755191993028,1.13145340670771e-05,-0.00574771598342635,-7.99179011767501e-06
0.0152884967284584,-0.0037015223638369,-0.00688138938058655,-0.000525522038134166
0.0198564971573163,-0.00471984515407248,-0.00833827958847746,-0.00115950608526519
0.0242978496733571,-0.00387055690739312,-0.0095304588593898,-0.00142874725827818
0.0282224385038101,-0.00919015659262636,-0.0111006860353653,-0.00106944356239946
0.0294536482488367,-0.0229216905609888,-0.0114378264138178,-0.00043157647630957
0.0270789569258462,-0.0299737478668607,-0.0108181271266458,0.000298967363115898
0.0236270865453837,-0.0225143840625655,-0.00894821588709223,0.000903149043329666
0.0208996476311923,-0.0118994495036206,-0.0056385215533881,0.00101921670075949
0.0187715642795887,-0.0055019835548561,-0.00401829100201231,0.000851423959175439
0.0175185288836042,-0.000495483894323825,-0.00381445078069363,0.0010948915054651
0.0179780715051312,0.00472378248929226,-0.00324559671322694,0.00142363785228957
0.0200490148165513,0.00808301969450537,-0.00221991096102143,0.000410361227441556
0.0212553137218773,0.00930842978040083,-0.00125488624105907,-0.00216002376005207
0.0182883958266674,0.0122940347120006,-0.00103397284338375,-0.00446713815348932
0.0143873542179998,0.0211944852251361,-0.00120412136289378,-0.00475640013968283
0.0163273107921687,0.0336134795450957,-0.00118094759801076,-0.00347372376569018
0.0192200090790849,0.0372537261213137,1.97318274097614e-05,-0.0022672317098265
0.0110772466739428,0.0217516771459123,0.0020205686957094,-0.00161049127169486
-0.00464369243323986,-0.00277296439725007,0.0027831913985279,-0.00102018863610509
-0.0137886606924126,-0.0172988822961761,0.00286653805117986,-0.000407637512501054
-0.0123858452289248,-0.0187479222693421,0.0039387996088044,-0.000173905057202711
-0.0088509246130771,-0.0134031444115123,0.00569452625838612,-0.000514451873366786
-0.0111735571603753,-0.00328120062376113,0.00693717157101787,-0.00101663949656757
-0.0147391395007934,-0.0005102982855976,0.00696388352498779,-0.00103149701048775
-0.0116728001505369,-0.0234339777429644,0.00601007346100118,-0.000281040202854616
-0.00561999101683592,-0.0479825908925293,0.00504292935124077,0.000758040784320522
2.2902311402135e-05,-0.0303777694483609,0.00579180322148011,0.00157057931132565
0.00731213262556571,0.0164710361152624,0.00751319064455396,0.00209734162249264
0.0146104146149769,0.0480623188854832,0.00713051156136174,0.00231247024597449
0.0195826072101028,0.0497250712884063,0.00540436349341203,0.00213339088260401
0.0133489080416208,0.037626977480049,0.00371834018031229,0.00132438905838686
-0.0114690037721762,0.032245865738832,0.00101112591437402,0.000190521211894827
-0.0447534516242261,0.0359818716555693,-0.00308364531828388,-0.000414125649412209
-0.0689405382590357,0.0311854889239339,-0.00612507617204788,-0.000359819367986895
-0.071206598713214,0.00999232746917686,-0.0048686402566684,-5.60659352054219e-05
-0.0540862477663557,-0.0143215370695452,-0.00135549215119225,-7.5760878887192e-05
-0.0322291660763601,-0.0322381429793642,0.00200768803193096,-0.00064576255738983
-0.0158180828000708,-0.0406223376762972,0.00510088164702747,-0.00126118523984769
-0.00784809520361002,-0.0387362960418409,0.0060734599361462,-0.00138229003403007
-0.00526209346617972,-0.0255415133168615,0.00348348156903406,-0.000844972162975558
0.00156839061031618,-0.00390195517140835,-0.00142787410936065,-0.000108872299502195
0.021326457143029,0.0228280839360837,-0.00682014792693641,0.00016342750190186
0.043521080483788,0.0504925312164054,-0.0112573500396868,-6.70436193739221e-05
0.0440993592539495,0.0536559983725866,-0.0113985766532817,-0.000291252720764197
0.0208697997831153,0.0296235763484049,-0.00609331944524594,-7.99018615730337e-06
-0.00475173575589466,0.00816863625702284,-0.000246683010820859,0.000862120363703952
-0.0171799792877071,0.000916568579477771,0.00168651086490306,0.00196316361719995
-0.0193782778878706,0.00157358731207423,0.00120133502430749,0.00281317811552054
-0.0197503126421466,0.00265001228117374,0.00102333638412362,0.00308694403433104
-0.0204993965622077,0.00206847504756144,0.000905918006780723,0.00287753966942425
-0.0183032620978426,0.0021427829486071,-0.000750657548534026,0.00241687466350149
-0.0129631604783558,-0.000357894831505869,-0.00410619247572867,0.00183739489424059
-0.0111184172518647,-0.00834760226107518,-0.00675904531539859,0.0013868223234704
-0.012134344068618,-0.0105191094476283,-0.00666687661622787,0.00136286697040589
-0.0104648415475297,-0.000296973046968647,-0.00584834790117966,0.00157874415025669
-0.00952007948869985,0.0114903563170473,-0.00608093428297194,0.00153405957666239
-0.0103916088774963,0.0172112246546089,-0.00599536747521934,0.00104990148333727
-0.00827220917358438,0.0193199127584573,-0.00672817985931739,0.000200054874341384
-0.00478721166788509,0.0202377562781611,-0.00889765467532179,-0.000668041048804634
-0.0040786779313064,0.0214858092089716,-0.00935193171270435,-0.00122335124369011
-0.00289001627610052,0.0255207871154793,-0.00757395395678035,-0.00140608735159337
0.00312959749900096,0.0332674028553347,-0.00639130555723413,-0.00117647560102944
0.00949910248911934,0.0431859059393857,-0.00616217780972176,-0.000711942526473613
0.0119723394364319,0.0508583625754667,-0.00539497887579315,-0.000404863457335087
0.0129348095445843,0.0526300468104566,-0.00392599349539811,-0.000381174163414708
0.0139149244362341,0.0499682522771607,-0.00290974471341355,-0.000538199534681956
0.0137949050667497,0.0451043314880832,-0.00246729098518592,-0.000741411540134186
0.0104231088470239,0.0424934840468145,-0.000919556545298648,-0.000831485173260739
0.00283380429127692,0.0441120649070502,0.000939993376459514,-0.000765559108750721
-0.00415882830885822,0.0374569139168351,0.00206217181138404,-0.00076155020276857
-0.0067755944594453,0.0162353525216729,0.00227774464727828,-0.000985064132947098
-0.00620911597101657,-0.0114136034750279,0.00143085609764378,-0.00111990793110869
-0.00309997882804222,-0.0384061145057139,0.000252144178487533,-0.000658525753417896
0.00267933256570064,-0.0558185033860443,-0.00212768293689387,0.000663083545131764
0.00897185714709522,-0.0522716428005925,-0.00568881250854655,0.00236912749698393
0.0104436620568472,-0.02855865304499,-0.007959932039833,0.0031922033282245
0.00773410805951642,-0.00630242787118773,-0.00669520843812098,0.00236426607200317
0.0071692777769125,-0.00649126495288484,-0.0030806065770264,0.000300770282848981
0.00701215155065053,-0.024015150825083,-0.000931081063406369,-0.00204472870224534
0.00121224163127816,-0.0308403530095506,-0.000768786272586053,-0.00365275702215935
-0.00801033148719454,-0.012123022135288,-0.000158647691501471,-0.00386728405564053
-0.0152391653660852,0.0118266766937954,0.00174256023835442,-0.00292573452214286
-0.019607273180941,0.0213105903850501,0.00392048600511451,-0.00181781092246729
-0.020461487273596,0.021911533093277,0.00614929671207624,-0.00139907417361764
-0.0166570174282741,0.023687827116756,0.00764304253995278,-0.00167108417519789
-0.010028580922266,0.0250828202133971,0.00699463163831781,-0.00205352009454367
-0.00409307027501774,0.0212031666715176,0.00478213920429575,-0.00160971876015735
-0.0012061843169331,0.0133051204757535,0.0034251823046575,0.000587414691516215
-0.00108247853918968,0.00707813009050214,0.00505010536081893,0.00400459302135254
-0.00216887220189873,0.00789759905456681,0.0076516826346792,0.0065371332763777
-0.00707004307861236,0.0161491425924836,0.00863792014337342,0.0063351762636383
-0.0233479170091766,0.0244882613896247,0.0101909582152109,0.00288856277803434
-0.0487837087358471,0.0132288591773153,0.0140505975809471,-0.00281396765334722
-0.064819068446124,-0.0203488168776742,0.0174046176829733,-0.00824552705288274
-0.0610313649828085,-0.0529303827777261,0.0187504954116481,-0.0107379529288209
-0.0493714551356673,-0.0724296653049635,0.0189714087746493,-0.0096090100293301
-0.0375747016809736,-0.0778819983739164,0.0189125763870895,-0.00612479569454229
-0.0212307301965661,-0.0714447576355693,0.0180936989750095,-0.00157470895458876
-0.00354667460130711,-0.0579431822953172,0.0147797711590252,0.00345065874666983
0.00904446455699243,-0.0399356256416356,0.0114891344831086,0.00753009395951069
0.018509463241222,-0.0248338964648907,0.00996255002391755,0.00843099411481496
0.0327066217817307,-0.0445928779199311,0.006524733069788,0.00594548553898045
0.0556063956572178,-0.121540291764882,0.00331647639841862,0.00222379863277937
0.0843533289961341,-0.190279164047742,0.00544306312117411,-0.000649593568354457
0.0951975279728039,-0.149422633608759,0.00887214788537186,-0.00183545349083821
0.0571765036769863,-0.0218127994412591,0.00834812190764577,-0.00167975363705647
-0.0114848307444025,0.0828761407881313,0.00541865178243364,-0.000982441001901172
-0.0577432005468115,0.128589064726982,0.00219158801899993,-0.000236168997371848
-0.0684731607426495,0.133533267114591,-0.00117303094142464,0.000481142735075182
-0.0739748752606202,0.117029628855409,-0.00436509218787994,0.00132200607703147
-0.0860011308621241,0.0895655641730432,-0.00825735524272599,0.00235879769408077
-0.0870513492226218,0.0480713266381957,-0.0109957054146261,0.00328932001563349
-0.063934337482927,0.0180989105240615,-0.00765103755682078,0.00338209815714625
-0.0218470748375822,0.0255531469994406,0.00134243847861156,0.00209210845417108
0.0197331050947429,0.0354896131938055,0.0104619380060855,-0.000214116142303774
0.038102453676524,-0.0142769224063642,0.0132890748260116,-0.00242499205556263
0.0252737313852284,-0.127699109363426,0.00843323771135463,-0.00351534707117935
0.00541749789858835,-0.20893587148633,0.00336376179694525,-0.00302344535445662
0.00514697330701583,-0.174615643866623,0.00135408109005388,-0.00132632389447652
0.00347712691759028,-0.0704607585499931,-0.00109893654191796,0.000424383667294554
-0.033725323471616,0.0133961893178126,-0.00263963225580834,0.00140142946893881
-0.0941752203087421,0.0606289550474645,-0.00131190133046835,0.00155629209650408
-0.136392724876461,0.0959435541600451,0.000916067574536172,0.00107760964791827
-0.140871895216269,0.117260306828205,0.00276154656011286,0.000262467569915933
-0.117605746374671,0.114425444374247,0.00362234622831575,-0.000187578102734357
-0.0843093169414348,0.0892256810942709,0.00491685243010315,0.000205906366173952
-0.0612978074471637,0.063907650761177,0.00767820460850695,0.00110721755612691
-0.0576290347599887,0.0625210529351447,0.00810315987756678,0.00200930288406029
-0.0568782143629932,0.0657255914192888,0.0048568790093546,0.0026181844750379
-0.0364042409930912,0.0519341276020714,0.000335638194445317,0.00289571943537798
-0.000359656255952745,0.0324762533129931,-0.00607986460665511,0.00287393976557391
0.036118238207108,-0.014700339045415,-0.0140523179605953,0.0024649134827629
0.0721326489660281,-0.120580126245515,-0.0186172892185738,0.00191357969946487
0.0930512995243237,-0.192064390281914,-0.0168821718757232,0.00177153636948103
0.0721242084059586,-0.115266805915019,-0.0135840391597007,0.00203281407551785
0.0199617562375188,0.0267929275457948,-0.0160050758263683,0.00205731697868021
-0.0148569118937702,0.0789391573220929,-0.0220311822146548,0.00122624147139797
-0.00455000188064837,0.048675016880795,-0.0235145946680668,-0.000212602597631647
0.0251678294181315,0.0227971967998441,-0.0204101125648031,-0.00130260783164134
0.0349903099846789,0.0282548087066535,-0.0190391003372849,-0.00162765437478139
0.0249158462275768,0.0391388121591485,-0.0217989504657482,-0.00146680340948024
0.0170926079415684,0.0103357559318389,-0.0232006063376501,-0.00107348200279283
0.00946687952113862,-0.0366937972146838,-0.0171087086095681,-0.000635493156333502
-0.0125189927278828,-0.0364769328735045,-0.00665858834180441,-0.000551853307538087
-0.0397419002839553,0.00924453015950033,0.00101800700017017,-0.000912427392276413
-0.0510642521631925,0.0521263162364657,0.00355274215404007,-0.00133966138622361
-0.04415778390221,0.0624219354428054,0.00347409492448027,-0.00131427124269608
-0.0325135758233577,0.0428817976296656,0.00378366639976226,-0.000809204851154532
-0.0215809448306044,0.0133883340198308,0.00286909151295371,-0.000410772941636346
-0.00764418738334755,-0.0135907709702353,-0.000840744913954149,-0.00029089238124481
0.00868646326413403,-0.029988928609595,-0.00458588551074779,-0.000240015457253053
0.0256647142909044,-0.0278925965993794,-0.00553829758791308,-5.33607671357643e-05
0.0407887649129481,-0.0193277552745281,-0.00401575449305018,0.000217411330704772
0.0500290612541207,-0.017285781031718,-0.00366181558450283,0.000116168196057714
0.0548630182737079,-0.0181864036455014,-0.00492795198913077,-0.000451361146037309
0.0596283531225549,-0.0265699086092098,-0.00539787100188544,-0.000917515702707345
0.0656953582034305,-0.0443669398405603,-0.00637254694333849,-0.000447708670072479
0.0702031239054746,-0.0527504087137328,-0.00868449691474207,0.000969123543485443
0.0700602326016706,-0.0451708410508261,-0.00959708363173007,0.00196955037103119
0.0715494473171403,-0.0426124650058911,-0.00786462840697927,0.00120943100153953
0.0808236518993416,-0.0490768707252842,-0.00583392693255125,-0.000962939634021279
0.0889207617852337,-0.0432939403544447,-0.00446930082410514,-0.00274482331504117
0.0864661112597526,-0.028056980508587,-0.00317356282682602,-0.00313461497821653
0.0744385950031685,-0.0216530302407179,-0.00251866941267163,-0.00262877179944963
0.0600145539590612,-0.0235801220220784,-0.00223697513735428,-0.00188825375797663
0.0520297079917904,-0.0247532957323512,-0.00118359873564636,-0.00107339795144828
0.0513392215070856,-0.0225845743858252,-0.000582167765495502,-0.000274364114044407
0.049213800470846,-0.019439062332862,-0.0011210627011759,4.11860903960372e-05
0.0404687605067957,-0.0165169788122172,-5.0706324135558e-05,-0.000357547287866065
0.0315017708791194,-0.0139556325393157,0.00199349915621752,-0.001265910094151
0.0267901286150382,-0.0133033064602379,0.00300735839877358,-0.00229476759396171
0.0241091079855002,-0.0174634714109236,0.00280672756841546,-0.00261633919744937
0.0214832442573585,-0.0218812295260322,0.00116496138587005,-0.00149949297960199
0.0149927460266247,-0.0150208685262849,0.000587989132708038,0.000510530449976255
0.00473622761277936,0.000306466553899699,0.000960519072751287,0.00164060694726161
-0.0015375834489356,0.00707627193906321,-8.56624072967192e-05,0.00102392996295216
-0.000925153271349297,-0.000346217087613999,-0.00111824207397319,-0.000355911791075317
0.00264692826240905,-0.0109013675425558,-0.00072000205670144,-0.00137229027140333
0.00534869162982783,-0.0150169985154266,-0.000347113786922677,-0.00170917381037103
0.00556605762858956,-0.0139880848099198,0.000385277754985227,-0.00157011452394825
0.00672805908052312,-0.00905826834302879,0.00266196741390687,-0.00134959803421758
0.0106104656492611,0.00122122849267634,0.00318333096844717,-0.00138035209654006
0.0112396297908468,0.00883344581205016,0.00192464934489681,-0.00157385830852689
0.00612185864481426,0.00964245476403918,0.00165764205965088,-0.0011179157026049
-0.00234058298860296,0.0136187078521095,0.000376368278717298,0.000601983276039714
-0.0121683213085083,0.0204647093739742,-0.00243124764546203,0.00274295878012855
-0.0185675448554694,0.0257560993711159,-0.00391046046039052,0.00396079357786389
-0.0175679373072783,0.0320497276919397,-0.00212868976813864,0.0038653677245408
-0.0104436129558441,0.0341755083465747,0.00174630502769846,0.0028215520548648
-0.00269057883158875,0.0291364767813212,0.00493549383949616,0.00125717265342514
0.0020712850945628,0.0209329705147409,0.0063479739069073,-0.000344817465183407
0.00390924134830726,0.0129829425921236,0.00523599366857182,-0.00136173448895095
0.00332051048709827,0.0064875181206259,0.00405784424277617,-0.00179431584076106
0.00160889798494186,-0.000406504911291683,0.00492469880708014,-0.00193306036137594
0.000948876069721863,-0.00786990761426969,0.00464257623150588,-0.00185337564623147
0.00186079131556438,-0.0162650394131526,0.00234073456727509,-0.00173468940116207
0.00279274560197255,-0.0261831689925081,0.00101256116487728,-0.00142815578470533
0.00325209637253606,-0.0337052679308983,0.00153141279582952,-0.000789264146521222
0.00334056778660146,-0.0311368568890518,0.0016854850127444,-0.000157310762119562
0.000881001677532216,-0.0121208329592152,-9.6054457553724e-05,0.000265573125655453
-0.00323944581383615,0.0168880824719016,-0.00355617624336559,0.000556877924463918
-0.00510764405298956,0.0373554218757318,-0.00836961630755476,0.000852587111705651
-0.00439262137811185,0.0417473399775002,-0.0113489766430842,0.00122675318462112
-0.00334171011681383,0.0374528076407306,-0.00815024346151374,0.00156749287002095
-0.00415219111539099,0.0312353379941175,-0.00173270640754007,0.00170871965021619
-0.00543854536503907,0.0272425253994762,0.00227292705518114,0.00146204087986881
-0.00574655353026321,0.0271138551139328,0.0031806264985174,0.000848478849382702
-0.00679899423996941,0.0302555220852452,0.00368341423374266,0.000222554192540901
-0.0100913191759759,0.0339446854301229,0.00453174685486281,-0.0003155403255014
-0.013178160530331,0.0337994279642887,0.00440345522979324,-0.000824111654299553
-0.0120542887756915,0.0293522848771764,0.0025371862845185,-0.00115669253345934
-0.00812555417455695,0.0255893911655819,-0.00194143457015449,-0.00125109433167297
-0.0061070392002607,0.0244011261602432,-0.00539844179926144,-0.00100893818151863
-0.0132133895840917,0.0193816683971346,-0.0044452776877173,-0.000421062206365731
-0.029275354383125,0.0091723148208004,-0.00169134809869367,2.02125814990283e-05
-0.0402366545269264,-0.00248188616323042,-0.000119836284308212,-0.000164169320734222
-0.0408806683175643,-0.0157126419090366,-5.39419739020589e-05,-0.000794632974831756
-0.0391258125924603,-0.0259361720824471,0.00116912030885397,-0.00138124114102899
-0.0480272527048975,-0.0342311561385003,0.00253506195211719,-0.00169788156116592
-0.0692407685831259,-0.0465323681784184,0.00146937184534131,-0.00169847133365088
-0.0837834757544403,-0.0533808787712934,0.000565589842891185,-0.00131520818997415
-0.0788320881484748,-0.0476155215277846,0.000974244427917621,-0.000631979490592331
-0.0558314100542566,-0.0364171438095333,0.0012827823954621,3.07393488140728e-05
-0.0223545857572259,-0.0314633301566141,0.00163418981771383,0.000431583577659605
0.0130065300520582,-0.0420814380521674,0.00247422127209533,0.00057874998407373
0.0435695220447542,-0.0446944479461873,0.00313023013048653,0.000722906614456937
0.0629197597861326,-0.0045114423646678,0.00372580918120475,0.00103874332467405
0.065703319463362,0.0463892355475774,0.00487451048085018,0.00138512430301353
0.0541218724418864,0.0613690014893661,0.00451435593468514,0.00148710997392867
0.0398380181566619,0.075549064067367,0.00248024354827963,0.00116547156125068
0.0342252964491462,0.125320906519683,0.000142679466462669,0.000625984020406078
0.0320852328704477,0.155654091304575,-0.00351175937829949,0.000358811752318475
0.0175069271809939,0.123735048825133,-0.00648099456979475,0.000627874777396363
-0.00859879735830013,0.0666620069781208,-0.0064912510199073,0.00118655270111129
-0.0297107398896648,0.0146778007326289,-0.00444290854578343,0.00152489000173107
-0.0366479653793421,-0.0325224478833973,-0.00103402302615259,0.00129770968906383
-0.0342644722295028,-0.0692563970237061,0.00232316163288183,0.000597630900974344
-0.0304407048350932,-0.0833900454077365,0.00346715778012814,-0.000102591369758705
-0.0278716511055477,-0.0725377169588484,0.00345579416398538,-0.000312260647635799
-0.0254843830924659,-0.0495157597205362,0.00417097448087975,0.000142851255649435
-0.0218472940928136,-0.0306558192023132,0.00432013500291913,0.000815052882867271
-0.0154546531161364,-0.0192506754989204,0.00314876845472208,0.00120652357469403
-0.00605597781087571,-0.0035085335498272,0.00224214399299087,0.00133271363411925
0.00568611185571625,0.0158311556784138,0.00163625625191945,0.00114743609190189
0.0180984857026103,0.0242347351314354,0.00032179219529114,0.000949165864770955
0.0289046666429632,0.0231016152486642,0.000296960892853465,0.0012431131075033
0.03841290825119,0.0149833147298656,0.00233685208246785,0.00165473273315432
0.0447063436673921,-0.0012609524328543,0.00422018046749828,0.0014999540687767
0.0485631464560628,-0.00763133001326764,0.00629813072804491,0.000755734324390186
0.0582640441324479,0.0127419962464186,0.00944314970371722,0.000123116924986106
0.0696064610656947,0.043860700524737,0.0110603775692536,9.20810631267845e-05
0.0678949942247544,0.0565295541112209,0.0111074520150209,0.000454204450430644
0.0565125166059511,0.0521551210329521,0.0125035107471437,0.00105106086071022
0.0486711651147038,0.0526114653264664,0.0134688021692527,0.00152935335501046
0.0453209373317896,0.0631007349762719,0.012831586967306,0.00102015006746728
0.0405246196749953,0.0720675231807238,0.0118946497312797,-0.000504987354429262
0.0284904198916365,0.0755126380659581,0.00930944144929221,-0.00206851838737343
0.00428764198880375,0.0794324217557255,0.00666647793931969,-0.00289469731056196
-0.0280571390457269,0.07199299675625,0.00586174736667727,-0.00234848971909464
-0.0553998552094082,0.0320656452962052,0.00602768125648861,0.000267169176726897
-0.0681106071128065,-0.0323136757196724,0.00493565558889696,0.00406052983118134
-0.0620744186454018,-0.0848176739201348,-0.000502058425110889,0.0062160001358026
-0.0400966215498969,-0.102692634540917,-0.00695549156368385,0.00522358829679449
-0.0175427101961551,-0.0848947306309986,-0.00841844491852803,0.00256852536314778
-0.00970216264864952,-0.0505718968769289,-0.00271957830805131,0.000170422390876415
-0.00714650260686715,-0.0536487737913511,0.00556284175688536,-0.00166421866757428
0.00835567310453146,-0.086668966132654,0.0104785242377616,-0.00296929143757934
0.0327945642086957,-0.0700224196524688,0.0123653976985532,-0.00306835827906475
0.0581003970417347,-0.00196388737730364,0.0120643270578493,-0.00151908142853714
0.0794775543243149,0.0394168616301337,0.0111930614208944,0.000692766469078307
0.0873893752009787,0.0212998798380449,0.0127401394190837,0.00170106846118774
0.0762104200222144,-0.00334917808936818,0.0147856529344008,0.00100666671401015
0.0456403110868443,0.0175819173691063,0.0124213357578641,-0.00014676350187301
0.00905794409676854,0.0630427859969988,0.00412363932909785,-0.000573946056707412
-0.0189384258873687,0.0814324776596528,-0.00679059272706008,-0.000147380842847531
-0.0490570933105325,0.068104371478787,-0.00972892156568538,0.000226942036802162
-0.0828602496343139,0.0418630797573612,-0.000522504586235671,-0.00047030129885975
-0.0931229369577257,-0.00152379618241673,0.0108921691712863,-0.00225997111546056
-0.0778202935065719,-0.0416703080768928,0.0149866622626464,-0.00404989520575431
-0.0624919114981487,-0.0470638844151055,0.0093459854731761,-0.00441997378702275
-0.0545184423642871,-0.0342293116420885,-0.000256988351872073,-0.00295609326587871
-0.0445405957482988,-0.0265415718251678,-0.00822630932811043,-0.00071598966575285
-0.0330870426127176,-0.0319417224955169,-0.0130515230596502,0.000813630793886729
-0.0271558628332114,-0.0621425964495332,-0.0160946183533214,0.00113158649335526
-0.0220912215576011,-0.0908870675363957,-0.0183852770231456,0.00116100791744759
-0.016530518926211,-0.0737532992669794,-0.0149389885823173,0.00212470943517871
-0.0245464652121623,-0.0289997195446058,-0.00514952032060903,0.00358619408519154
-0.0452005177481797,-0.00855482643130145,0.00344147422213652,0.00379530697183025
-0.0577948152595558,-0.0137102824069909,0.00624370199531518,0.00212044453820621
-0.0607137601085939,-0.00848071305818597,0.00502620706527143,-0.000494621628256695
-0.0620541214575706,0.0215566764268753,0.00206746743938275,-0.00266883869826941
-0.0547571670057673,0.0656308098727919,-0.00143402311232966,-0.00367363449682873
-0.0324581485787443,0.102505683115137,-0.00265043576518939,-0.00366819464075864
-0.00136711779375939,0.115725318767986,-0.0035388817919195,-0.00296600431337399
0.0203774136758782,0.104800790033567,-0.00777767535767879,-0.00178254697612464
0.0248202243752707,0.0664248601321845,-0.0107352298867538,-0.000348328291369702
0.0180799355783811,0.00328443607056866,-0.00952100216775995,0.000811788162534446
0.00230441089671791,-0.0285305352494214,-0.00748684093363545,0.00127380140643492
-0.0122252645640045,0.0215569524182393,-0.00759810530507767,0.00140236327147889
-0.0154710295628476,0.115556651223944,-0.00970081193063395,0.00158535271397341
-0.0170503854360616,0.163468353900936,-0.0109328217989707,0.00161538584980133
-0.0240583948131179,0.0897991592169553,-0.0137896844769059,0.00114220606746385
-0.0227219736597121,-0.114861922579172,-0.0199291349854099,0.000128921533202097
-0.00207627927087919,-0.322024670397115,-0.022611471010536,-0.00093415268508811
0.0249268579319836,-0.336692909821789,-0.0167963523990074,-0.001684908432193
0.035532954289164,-0.160404696794516,-0.00550838127249002,-0.00232500170933688
0.0286190471583374,0.0273102589286826,0.00260290122246389,-0.00277309425779528
0.0199298843576504,0.147566156090396,0.00519735003254275,-0.00263270825479603
0.00747301450667291,0.20796217319314,0.00723117794873197,-0.00186465836562563
-0.0166925910935407,0.181695555400648,0.00842290339021054,-0.00106756819083307
-0.0392985115381182,0.0998030458389337,0.00638470319417774,-0.000853505364682699
-0.0420793687863132,0.0453886285800301,0.00276003409730162,-0.000966143606925939
-0.0258777425707712,0.0321406267334295,-0.0021875635721613,-0.000923879206102529
-0.0042789486212155,0.0298263232242067,-0.00944730246896264,-0.000619145128053796
0.0126466609649257,0.0165661290220449,-0.014017370033681,-7.24388263490146e-06
0.017514583063951,-0.0200391327697475,-0.0111344601456437,0.000837029232113355
0.00998773920891769,-0.0746390753358504,-0.00596640902534493,0.00169741182835116
0.00252055153874545,-0.129848599651287,-0.00326407944603814,0.00233410175156705
0.00475386303633534,-0.157296470010123,-0.00164470515756108,0.00241330081206354
0.0123630475845296,-0.140238942922251,0.00136170062204428,0.00158809237056232
0.00907525321712761,-0.106099604918406,0.00477615839992404,0.000167544754345199
-0.00654287034361246,-0.08512466882356,0.00404016743254255,-0.000842143051422953
-0.0169367950810279,-0.0655950647413308,0.00252260316871419,-0.000954312578078766
-0.0218511656327392,-0.0266594586841595,0.00490996253577699,-0.000716229090412857
-0.0268518076523779,0.02304033545517,0.00691040594219255,-0.000773371432654453
-0.0193637517128882,0.0461200526895926,0.00429322048234692,-0.000928306593864046
0.0088254442890838,0.0167239669776977,-0.000880147703121493,-0.000738776310265919
0.0436188206064347,-0.0225858795273141,-0.00317552129398844,-0.000290925180661233
0.0628440196225295,-0.00486933585629085,-0.00214857000011966,-3.26135455021129e-05
0.0572390304472351,0.0516906995693494,-4.93735609932534e-05,-0.00025893390778778
0.0377275142243168,0.0651843077459818,0.00128305636770103,-0.000740953923985378
0.024128360027489,0.0100734261284917,0.000764933538256007,-0.00105535477928726
0.0259231670163198,-0.0488918167319774,0.000850572026862345,-0.00101372351215968
0.0340676198428796,-0.0498626568460019,0.00334806756287724,-0.000500242680333449
0.0313051101251381,-0.0201554525777262,0.00697675861430281,0.000445347623309722
0.0143536941504245,-0.0133354701597623,0.0081729786035618,0.00130603386172113
-0.00228204784717646,-0.0195283276457761,0.00691203219667291,0.00151262010512864
-0.0101695775433533,-0.0113738369773999,0.00664409510112324,0.00116865330876811
-0.0140741404115453,-0.00906041405696111,0.00679322636127042,0.000796611782859385
-0.0142130797267259,-0.0462838873707806,0.00554491394270146,0.000487784741265275
-0.00748391092886102,-0.0966064479888032,0.00460077544986335,0.000242721201835211
-0.00165211621109024,-0.0947844010270725,0.00281973074429112,0.000201769335807407
-0.00369253086438068,-0.0348758185501258,-0.00220763403971541,0.000329871475154427
-0.00945322830920334,0.0320881065944278,-0.00558171805312375,0.000655060628113939
-0.0124476230080714,0.0709153486219124,-0.00453454791315681,0.00130880311280812
-0.0103166158978394,0.0776900803544918,-0.00295699385189819,0.00239171274944271
-0.00639884608478754,0.0674950805250761,-0.00157829209902096,0.00315119912780779
-0.00371564717531652,0.0584100435048409,0.000634847989790657,0.00198022240503439
-0.00216336309349595,0.050498252704221,0.00166132088164946,-0.00108583125378155
-0.00104219644683303,0.0327520478498525,0.00118360371800754,-0.00363698759918301
0.00215889624061147,0.00884613645459913,0.00198318184673292,-0.00382405312330424
0.00934838591139088,-0.00123751154039481,0.00369312664708576,-0.00216238934652966
0.0176950502315065,0.00466549878412851,0.0031952262060957,-0.000208233352446878
0.0218540072799952,0.0087468951014972,0.000488476861713454,0.00109397917148798
0.0232368639517415,0.00886493167265532,-0.000415066241349942,0.00172919242665766
0.0256103665395551,0.0130883015702536,0.00133488537774303,0.00187683935666035
0.0280956516322045,0.0211531459066046,0.00157543412088908,0.00155922435441592
0.03239937905691,0.0276561767974231,0.000543123187214129,0.00101090605173108
0.0345836892232974,0.0286004238030108,0.000258602271759671,0.000532173520576946
0.0285840980482163,0.0281551423403563,-0.000769817591723438,0.000171644295189698
0.0194571211718542,0.0303350156269405,-0.00180541575856998,-4.96795915596446e-05
0.0119773918112679,0.031094518673285,-0.000953360708475377,-0.000163203636082431
0.00615677835696491,0.0283182229305317,0.000399811156306305,-0.000274978910786318
0.0022082816411006,0.0276154161357793,0.00104005564333503,-0.000301900736253414
-0.00116728546115518,0.0333165787881731,0.00136707903204932,-0.000161412649724495
-0.00355116164826091,0.0386150013678125,0.0018079566319599,2.17543173045127e-05
-0.00189445912092369,0.0334189016743248,0.0015752863329915,5.9539794347927e-05
0.00337648311513382,0.0190066281966024,-0.000660428456885654,-7.16133164256499e-06
0.0090699608483591,0.00484563471016742,-0.00245370205484469,3.46687419260365e-05
0.0125603299448903,-0.00391108118144397,-0.00108230657933007,0.000247022591911792
0.0141402385254381,-0.00706865214047103,0.000760399678876508,0.000487110352359417
0.0149784644977333,-0.00772260275614808,0.00103338023969263,0.000492189681339824
0.0149916234969358,-0.00949973080189321,0.00134564132978363,7.71844346174338e-05
0.0138868379562821,-0.0112732432531579,0.00161128688874883,-0.000559361016561425
0.0107936080274911,-0.012096913042832,0.001763604526926,-0.00101243334989752
0.00445643354199934,-0.0119855969476991,0.0013350247594512,-0.00125249793635345
-0.00418063951074052,-0.0107982244462032,0.000424795069971128,-0.00154407719635356
-0.0111365387681741,-0.00984434812146579,0.00123320132519853,-0.00189267321127587
-0.0146028805463337,-0.00647682901156257,0.00247494019254506,-0.00217257952140392
-0.0143013332318284,-0.000459078396664009,0.00320456522285802,-0.00231702831306908
-0.00869376709156289,-0.00190832905033579,0.00358048988739912,-0.00229363273526614
-0.000718577637989399,-0.0144935061483017,0.00224020344287959,-0.0021512738094137
0.0025337369415741,-0.0264741231934827,0.000673670002423191,-0.00184449375665998
0.000243322021662595,-0.028168001459288,0.00144486407377373,-0.00132132534043527
-0.00343600309722621,-0.0236787012433703,0.00443469001900841,-0.000633401733868864
-0.00746109370656972,-0.0192352798186088,0.00775886324299434,9.4453309070458e-05
-0.0104026922354833,-0.00500312305628328,0.00966559230095706,0.000613859862100447
-0.0134520454356058,0.0272202214006685,0.00991324170558455,0.000653459779240309
-0.020909694496466,0.0580415398960068,0.0085064216994609,0.00026100142619977
-0.0278523852087648,0.0648049879399415,0.0048362888280379,-1.86937440061848e-05
-0.02929783000089,0.0553529577973021,0.00139238536317319,0.00014019639358821
-0.0292970384665882,0.0504458536766703,0.00116842931328695,0.00051226324132964
-0.0322158553148019,0.0501143209913706,0.00203643247744893,0.000849201681026054
-0.0416048708308093,0.0451925272736178,0.00320336005791664,0.000947585388013409
-0.0548505223395072,0.0372784077824923,0.00561984010525828,0.00056667506163451
-0.0623441005977538,0.0351446850605026,0.00696234761614486,-0.000413013581171739
-0.0597617677219102,0.0283237177964876,0.00707215933273868,-0.00183452591038757
-0.0475027890578067,-0.0187391627776395,0.00586720357903577,-0.00309266758013093
-0.0216589500805223,-0.0942652375535944,0.0015839896323873,-0.00307648044776213
0.0153638971835057,-0.124113191682331,-0.0031596145528597,-0.00119277719616617
0.0401789000110945,-0.0804940782155748,-0.00507830042686857,0.00146981503905819
0.034626446401287,-0.00572949060904034,-0.00264017348063498,0.00266819049147047
0.0127702855585578,0.0579174490599363,0.0025262408487038,0.0013009015702099
0.000193297004832654,0.0848916324883389,0.00738370178622061,-0.00134837057668133
0.00623662955868427,0.0947672605715018,0.0115493960062793,-0.00335694862829375
0.0160137544346619,0.117356238785201,0.0130442888806216,-0.00366928746555964
0.0145433175401871,0.110811202137279,0.0099501176151609,-0.00246156467072505
0.0124822214895044,0.0517818952883048,0.0046538916571793,-0.000612245682983318
0.011366313324771,0.00359963630129261,0.00288210193180719,0.00132703315846577
-0.00266977194861155,0.00571119719404885,0.00551840650200467,0.00269849070595109
-0.021767774214282,0.00999996677030514,0.00690749282195219,0.00301160201923167
-0.0304401973232247,-0.0480457561243283,0.00553756869869669,0.00288198474817701
-0.0295191182985731,-0.142963892963758,0.00378808524868254,0.00330977936917317
-0.0378770691441673,-0.17836763794337,0.00333869115640023,0.00429962761620654
-0.0644493947751426,-0.136467598679837,0.0061897847257697,0.00454356232957676
-0.0891958096859462,-0.0849653520865365,0.0100401819543264,0.00293104176944959
-0.0933714703755378,-0.0628847837725466,0.00958926915701815,0.000237755068359776
-0.0806685981801923,-0.0495179301025208,0.0050388427208378,-0.00133105329871794
-0.0620402977020698,-0.0185044423405723,0.000502030828516737,-0.000399431830161791
-0.039368478843574,0.014070312061848,-0.00040827146252791,0.00218319730286509
-0.0115790240202932,0.0247894296929556,0.00380866662763347,0.00357116924151115
0.0192791345257611,0.0128023793716907,0.0100981833114187,0.00124502077893141
0.0464209620281688,-0.0136876253130788,0.0134676604040523,-0.00332789278097843
0.0649255253692656,-0.0390878458756946,0.0135389269975832,-0.00553873977635822
0.0822047774219455,-0.0395529851900088,0.0143674768230129,-0.00323134761691009
0.101742306966239,0.00743337882792983,0.0167283229995805,0.0012757348676239
0.102442335651946,0.0616294559912805,0.0160948976876932,0.00420498641062975
0.0657840880420281,0.0501494398451031,0.0107818959043051,0.0036954346634555
0.00679282022288814,-0.0220316710672399,0.00387783385257329,0.00114782077394463
-0.0396030879740468,-0.117965588940137,4.756897520777e-05,-0.000761644306677305
-0.05139124686718,-0.189483845443287,0.00156868072130609,-0.00096445419196057
-0.0464010657592468,-0.18398296569934,0.0048777712031574,-0.000145304247231551
-0.0488542994839874,-0.140752738228785,0.00776108047136024,0.000664859390458542
-0.0583941529682992,-0.12302692028434,0.00931316497741075,0.0010410123416271
-0.069547898839343,-0.117979682652647,0.00816683682517336,0.000874720460188642
-0.0730364325883507,-0.0973266067963796,0.00688286104385387,-7.76879247784578e-05
-0.0577875876473067,-0.0688422168286464,0.00787077784682726,-0.00115810842886922
-0.0229440157094645,-0.0587788510525293,0.0099640785851238,-0.00121798030916696
0.0189533756624932,-0.0904580567361793,0.0121447827430265,0.000140842702951722
0.0521710069168339,-0.128149911257683,0.0147717361405336,0.00208068160030017
0.0700266203897277,-0.100342356893713,0.0161130417432817,0.00277159646488115
0.0783411655004951,-0.0358800925229402,0.0132169682512645,0.00163130553945563
0.0876323094321363,-0.0124759313357882,0.00332355755207948,0.000340772436677038
0.0895493915016416,-0.00790883838926591,-0.0111850223378193,0.000386775773852743
0.069394789829259,0.0446653178279513,-0.0224704911544661,0.00107702742729164
0.0343355610215342,0.136910543007371,-0.0260681511788048,0.00124285481242963
-0.000910740195542131,0.203143163735566,-0.0222538108629945,0.00073233533518141
-0.0235018278915529,0.190548084316069,-0.0156027734727055,-6.98745159347911e-05
-0.0382366609995993,0.118931314922895,-0.00957391535616448,-0.000821603771782772
-0.0696982149070496,0.0737563857650799,-0.00243090073368437,-0.00141040558493322
-0.101180066646475,0.0735665423824536,0.00364128364536548,-0.00175031365106303
-0.0856620871304547,0.056320779148422,0.00500089239956462,-0.00190797421710517
-0.0305170900010438,0.014021616734945,0.00304400277843438,-0.00202295019043598
0.00852890236232276,-0.00277958828065358,1.49195010770587e-05,-0.00202631126048437
0.0122685246628285,0.0218367129788137,-0.00353380383068686,-0.00168371550643082
0.0102439793589968,0.067845141790679,-0.00781491102224302,-0.000832233561827521
0.0239367674866542,0.102937025480175,-0.00901230460716143,0.000224262635073768
0.0506430040372043,0.0655502886390611,-0.00596644888999805,0.000748183940299247
0.0835471735345663,-0.0495817769093838,-0.0047133858001015,0.000531246221407567
0.116582916490037,-0.125886619192208,-0.00641275107385967,0.000224072983577375
0.134208629212048,-0.0796410091211412,-0.00738012300220339,0.000219392650263517
0.130799048242401,0.0248436439619948,-0.00618968355685709,0.00037575642920837
0.0993081655698398,0.0872598426948849,-0.00499536877071226,0.000601072783920122
0.0294376931962252,0.0855871777506814,-0.00637987237717421,0.000817741627852042
-0.0452613137383936,0.0587874108846162,-0.00864665059753121,0.000875807068202158
-0.080092426952197,0.0491552752132279,-0.00885793213291288,0.000651690900592509
-0.0746357728121263,0.0686798895026157,-0.0075310652537745,0.000139972857848972
-0.0543668661261358,0.0999699369704589,-0.00856825274116595,-0.000499939766849274
-0.032369677885496,0.111939882459421,-0.0131667680839522,-0.000988744416990684
-0.010215979735744,0.0935956747889266,-0.0202646455050144,-0.00104135209876249
0.00919540527669511,0.080660701244013,-0.0263971122693375,-0.000364946295063487
0.0248823152429321,0.0957955505573811,-0.023563969671611,0.00086499920556497
0.0381136221390244,0.104834140131781,-0.0132707320806377,0.00175596523246956
0.0545442467229311,0.0950844732308427,-0.00455092510107676,0.0018846699857195
0.0716447445137457,0.0833611103077886,-0.000900657122225526,0.00168579815306646
0.0745432054340731,0.0447261567924877,-0.000840422676417018,0.00146927549365293
0.0626463386289542,-0.0340127794771226,-0.00183764611931919,0.00103095399788732
0.0477003744971851,-0.0960766990541701,-0.00276836540903307,0.000126662962945413
0.0348534695638783,-0.0957418010958061,-0.00135889910783389,-0.000959972193413047
0.0220779687835773,-0.0543428974627303,0.00215908593933576,-0.00165508782366924
0.00834086305868047,-0.00779012585234781,0.00392018998214614,-0.00205992576876719
-0.00193361980580649,0.0210237557402386,0.00435096779045581,-0.00273109724396303
-0.00588636816224714,0.0258639273732785,0.00641346122837807,-0.00354498769074306
-0.00996583325663212,0.0251652066062159,0.00917040912366103,-0.00399255637945893
-0.0178911189578444,0.0341786592857224,0.0094304537041193,-0.00358912723936314
-0.0235691120889371,0.0437491569289157,0.00733637465023946,-0.0020842193137489
-0.022389548220366,0.0380910107128649,0.00424408082921983,-0.000180716826767286
-0.0114481320039137,0.0160903985821422,-0.0035458186953178,0.00123743596556374
0.00429856068066072,-0.00638479606707365,-0.0152453063469648,0.00200625448331061
0.0121369377899055,-0.0198770010911374,-0.0211124414246061,0.00253960509021351
0.0141009267394688,-0.0485136125161911,-0.016837266009522,0.00333659328612741
0.0263762191172737,-0.104765872142996,-0.00648323531242413,0.00414983328280612
0.0514111303084643,-0.144175057482171,0.000812150870046744,0.00442246544985025
0.0699626383015562,-0.126907602609838,0.00031903601858174,0.00388928588686839
0.0642691101706942,-0.075348663338783,-0.00105178239651343,0.00230927793916427
0.0378468092168518,-0.0324328167077565,0.000597192268387136,-0.000143712777699397
0.00953764905610496,-0.011831231814073,0.00133496717709408,-0.00242418541245821
-0.00771541832399558,-0.00900323305239984,-0.000806052878876758,-0.00307707483119149
-0.0151200737882035,-0.0167832472472478,-0.00401327871827766,-0.00179115929866471
-0.0193716180972259,-0.023744245155451,-0.00552096208240958,-0.00013611762364492
-0.0229187843262041,-0.0226407971019998,-0.0044371671343332,7.57117328213397e-05
-0.0237574677064665,-0.0176398356781622,-0.00261362506102121,-0.00120334237924123
-0.0211101556049447,-0.012158210341093,-0.00135004178790239,-0.00253081590175748
-0.0183997655908929,-0.00145899516456157,-0.00111342242832721,-0.00279216769324661
-0.0175111208842896,0.00572232601841132,-0.00208017226169291,-0.00180803972813143
-0.0135724302966875,-0.00334165802225778,-0.00261095220852076,-0.000236517639233247
-0.00505346542600172,-0.0140114706724071,-0.00333962145764692,0.000928940667681062
0.00405132522523865,-0.00796055957968544,-0.00575763427484044,0.00149438781407765
0.014398204417549,-0.00187212076576991,-0.00691473139736312,0.00187188181854682
0.0289543504827913,-0.0218602241539603,-0.00533759062430014,0.00205511571614789
0.0439006918196823,-0.0369043230152302,-0.00372031602722422,0.00186180577635572
0.0503627371137852,-0.00338827352568939,-0.00315863130713333,0.00144814506907586
0.0387971396774014,0.0444950386561056,-0.00307102568672746,0.0011397105881018
0.0111134252986866,0.0518509205135728,-0.00284001752052435,0.00115492841045987
-0.0139301922691065,0.0247982694835,-0.00163351756082398,0.00114984117065801
-0.0232683330409884,-0.000371185295366672,-0.000257382055640205,0.000600227665875266
-0.020854397031137,-0.0109025303832248,0.000150846071343129,-0.000185330307638977
-0.0184813074748927,-0.0151937970701798,4.73667697523583e-05,-0.000253902134539473
-0.0224963115622669,-0.0169997080516592,0.000875117060865378,0.000485493448796216
-0.0269119586532375,-0.0196054220673981,0.00211756042666708,0.000594205507593516
-0.0243087488398696,-0.0307741979068009,0.000452440388974233,-0.00100670365725162
-0.0159387222688964,-0.0356721012366533,-0.00356648455218915,-0.00307121714575339
-0.0070348154029954,-0.0180684722852049,-0.00677493071801635,-0.00351740828112387
-0.00173040812953498,0.0018791655184625,-0.00810252041964439,-0.00172020439985975
-0.00132454341590203,0.00260029706906314,-0.00525277585004369,0.00134702869239999
-0.0019022559791605,-0.0126597809191964,0.00132191058926198,0.00383508285642092
-0.0017688917754757,-0.0284600418408926,0.00640955473185635,0.00446591753475485
-0.00281124081343678,-0.0337780898695927,0.00673585792872657,0.00318155924638308
-0.00148436593958846,-0.0346068623478311,0.00205616635592053,0.000879157730841577
0.00140129425674885,-0.0322286406274763,-0.00595821875087218,-0.000799538491748906
-0.00225460777826035,-0.00930566610723906,-0.0117546447055981,-0.000734573664337158
-0.00756201453964838,0.0297943587770497,-0.0102237088665419,0.000372032477376964
-0.000551579824120518,0.051434306615108,-0.0045627397529355,0.000743216475217931
0.0130995958831244,0.0445880408898837,-0.000399871532465483,-0.000331062278972927
0.0130331270631214,0.0284393812018142,0.0013194416549321,-0.00200791816255686
2.95682429021261e-05,0.0144825458838367,0.00197402530850508,-0.00347229104199542
-0.00902791326122998,0.000778955510513317,0.00315469548579719,-0.00478719654572721
-0.011641958126993,-0.0125005746541546,0.00468240766262051,-0.00578466593062994
-0.0139600541691804,-0.0202639981510313,0.00511368685797148,-0.00579306642984615
-0.0154634551456012,-0.0225669224128889,0.00482549624575462,-0.00454036856836891
-0.0152298084001228,-0.0243725814550682,0.00452775431631541,-0.00238418999649883
-0.0150315326661162,-0.021408363159693,0.00348185634290337,-0.000144182494621681
-0.0139816244517628,-0.0126426312698374,0.00223703678304977,0.00168578237454038
-0.0109920448506752,-0.0052160131711018,0.00131681575991472,0.0029574542333505
-0.00999104441278831,0.00438788296319678,0.00112031647003265,0.00336116402380798
-0.0131663504704782,0.0187057429134781,0.00204880541454501,0.00301209998497657
-0.014871660940483,0.0247427793379862,0.00173657206458953,0.00245405315374935
-0.0125575607658778,0.0157119434727663,-0.00147340963719142,0.0019149618875726
-0.0112101568655208,0.0036702441601422,-0.00653328237074505,0.0015897503094529
-0.0128187388302673,-0.00168601223725714,-0.0104992730271487,0.00159595722469277
-0.0138044077081716,0.00023732836009483,-0.0111023621685926,0.00153672280829225
-0.0124575699785824,0.00521160212207371,-0.00846254811108965,0.00100480827737725
-0.00915667773500873,0.00409413278635523,-0.00487315449901038,-9.25531611317455e-05
-0.00203079990941957,-0.00328878599782697,-0.00296815365458608,-0.0014948188369535
0.00809362946559857,-0.00890278474201113,-0.00267460479745832,-0.00278610769262683
0.0109903896530748,-0.0100442387238046,-0.00363412051202949,-0.00368430739282735
0.00242183493103246,-0.00834430988280542,-0.00298029623936716,-0.00407761918280726
-0.00579643378190764,-0.0053148858742819,0.000234429575439066,-0.00403234245593213
-0.00758136326103969,-0.00303121734275639,0.000704180524300745,-0.00366947277347687
-0.00748543233860444,-0.00204604855746948,-0.000907411658645627,-0.00298325613323346
-0.00777916860591122,-0.000950270850347389,-0.000781735593063289,-0.00204012790097908
-0.00724027666973765,0.000499434663824937,-0.000460048796357414,-0.00132230654152403
-0.00478800647557354,0.00194550954591018,-0.000806940867812024,-0.00113485468841122
-0.00185978223906018,0.00292820591989638,-0.00107796980784391,-0.00116353576934557
-0.000398648190019995,0.00357689288569602,-7.02848464932285e-05,-0.00107798253863094
-0.00153360353054027,0.00460725893488499,0.00312994545477062,-0.00086219489023571
-0.00238193500396403,0.00448379919675223,0.00451254774139209,-0.000676816257027773
0.000116896703462428,0.00264515110009591,0.00230987440805845,-0.00052736183221879
0.00187390447732928,0.00161417229387939,0.00111812392448497,-0.000304346727838645
0.000351285143024523,0.00156578204050765,0.00220359374852307,-1.81505663110048e-05
-0.000832310935298143,0.00130786055039554,0.00368899074982222,0.000223406483728088
-0.000282932769495719,0.000911231945057651,0.0041993008078042,0.000268366761030214
0.000616789871327615,0.00164581348654807,0.00268101172766933,0.000255323026214628
-0.000403793046537958,0.00504182091113017,0.00158364152319629,0.000394408010516567
-0.00611398386936213,0.0119220851426768,0.00268484997188871,0.000734692026486656
-0.012896593413738,0.0249482446981112,0.00287313679835666,0.00154792691344541
-0.0146453149520061,0.0405340909373698,0.00156218991379474,0.00283794739940976
-0.0128791084325422,0.0485791896726639,0.00134489453522194,0.00366888333841602
-0.0115433066586981,0.0489973700049487,0.00223220420310385,0.00297377287777663
-0.0107486093837151,0.0465833235357977,0.00345458153015655,0.000928415205416084
-0.00954893864796747,0.0445757683497424,0.0046565768574019,-0.00137022865855561
-0.00916869623583558,0.046307224116616,0.00534959557740748,-0.00303180993540291
-0.0118643413349485,0.0473698816519271,0.00508077015103811,-0.00365012619657876
-0.0151478102698567,0.0346100047001904,0.0058043290419824,-0.00362978099433629
-0.0147615210619928,0.00014908071174051,0.00817654756037985,-0.00366793020026215
-0.00864373481196667,-0.0424014763326552,0.00775616275328957,-0.00356701694644335
-0.000529091534650583,-0.0678163107292615,0.00437159926715774,-0.00244687623298689
0.000919171129351259,-0.0617880650464129,0.000706606081104288,0.000292252992259878
-0.00326427612124138,-0.0317127751180194,-0.00161105353078422,0.00429209234349856
-0.00312364235207346,-0.000540189054781634,0.000986087813529269,0.00780804929887584
0.00102217917591297,0.0247968839897776,0.00804420484627122,0.00815048358510596
-0.00339100328085279,0.0492116870412867,0.0161829489137976,0.00374720457275863
-0.017324351203475,0.0437683927582219,0.0226140079738038,-0.00313292336853059
-0.0227485587106735,-0.031977356220246,0.0251449410769658,-0.00727524329201005
-0.00915354359117375,-0.136603761016424,0.0243482423832079,-0.00619256407325808
0.0118334919078503,-0.162280648903021,0.02168267947947,-0.00266367245833554
0.0263787809181145,-0.0950055509454275,0.0194347846167376,-0.000172256389127869
0.0335415811345382,-0.0237520921516005,0.0176156793916698,0.000851957006270665
0.0338809994398925,0.00550758826272993,0.0150541527935026,0.00157226573233102
0.0228898173418067,0.00965183194287901,0.0130508112075321,0.00254323138685969
0.00454089750946682,-0.00945457831687152,0.0112368595418529,0.00348099626085896
-0.0123533141188872,-0.0672718379193913,0.00848641862473081,0.00406161359631659
-0.0346231921925257,-0.129455925891494,0.00573229965234747,0.00431202600836532
-0.0626030071750343,-0.126630828130862,0.00510499868228391,0.00435595264705524
-0.0760389864903518,-0.0594253405659857,0.00541935504416565,0.00416653438446947
-0.0696428667172069,0.00162358395343998,0.00166972542492053,0.00370541554759771
-0.0585223130319119,0.0380068812272423,-0.00432758456369759,0.00312687507373553
-0.0518466774303812,0.0766323293801202,-0.00496858195572064,0.00256093543205432
-0.0459442960981038,0.109575430145633,-0.000283618928500441,0.00183557972312985
-0.0334626545792085,0.12635609942206,0.00553111394440252,0.000639817274153544
-0.0145064174661437,0.118601188083405,0.0115511286796781,-0.000995717005696589
0.005492152926538,0.0862287999794028,0.016513088181595,-0.00228413937610784
0.0189782186349648,0.0702541977455203,0.0200983207074724,-0.00237949427149072
0.016734507052069,0.101053543494787,0.0210087087592067,-0.00120524291086474
0.00529416062673268,0.143392386583479,0.0168327102096721,0.000774072957808427
-0.00171067245741527,0.119500790460794,0.00944361832810052,0.00278757781523783
0.00261408696822439,-0.00414774555808978,0.000554566108208467,0.0041238625617735
0.0198202953420049,-0.191679433194934,-0.00695228557443154,0.00442656811922994
0.045255360075854,-0.357537030429337,-0.00883555049358321,0.00366304062355394
0.0693243105152741,-0.402713323929159,-0.00609368999907414,0.00201545870642946
0.0784794259154322,-0.327402946950416,-0.00275771419775798,8.24016994264943e-05
0.0617473249071278,-0.220514624234449,-0.00214564298350152,-0.00118471712922121
0.0195030936143608,-0.110160327401673,-0.00441127690781038,-0.0014851887174719
-0.0250696815892383,0.0183063792227793,-0.00746092446265291,-0.0011439083144433
-0.0470142298206425,0.115860731391594,-0.00990588052642596,-0.000105098688378624
-0.0511040503440768,0.13560765621061,-0.0102296158680946,0.00153024770506027
-0.048364682010889,0.114313465875092,-0.00825393640030954,0.00272288175197498
-0.0376522475661448,0.101429670679083,-0.00536443028639183,0.00280070290047559
-0.0231752068549293,0.101337223834314,-0.00301251166670228,0.00227494266927187
-0.0126924982189703,0.098135647197854,-0.00221211990372356,0.00178874421015718
-0.00636232593801195,0.0805903285797681,-0.00300392992803847,0.00153195144127903
0.00086817371085556,0.0551087044314428,-0.00486904632320236,0.00129734581660986
0.0084672623290679,0.0353919486394115,-0.00521148478101654,0.000888767598205134
0.0081572607613351,0.0261161323353008,-0.00319079935062543,0.000286602729247297
-0.00850513745557072,0.0146149519835183,-0.000692968050624431,-0.000604434055799166
-0.0364673431176515,-0.00216610360145731,0.000445270488695937,-0.00164422040744021
-0.0532390339385741,-0.000194010923249851,0.00012349092425987,-0.00245890672969031
-0.0471994952572399,0.0174419596971633,0.000436840693541328,-0.00294154734914007
-0.0332526964571707,0.027756900899223,-6.68395223438912e-05,-0.00329616150249471
-0.0255714918402726,0.0320436599748508,-0.00371780196006529,-0.00333213878343728
-0.0183510461184058,0.0350815771608397,-0.00995415151757002,-0.00251337000255816
-0.00490585614627274,0.0466279751591411,-0.0154286740046163,-0.000946156971056476
0.010667464214696,0.0450870197030855,-0.0181357738062696,0.000562914960927742
0.0266866233479756,-0.0262607629285059,-0.019962698839529,0.00144148232126763
0.0482595468388522,-0.128588508895966,-0.020738271374329,0.00183420080666218
0.0745343981826302,-0.162863317730673,-0.019812412488816,0.00209680219711898
0.0945315871995566,-0.113384594613433,-0.0162193075690519,0.00209580534953622
0.0937769444496155,-0.032880069261386,-0.0094926780614669,0.00127226654468256
0.0623921456631684,0.00600033963912514,-0.00332888786695163,-0.000355408368585559
0.0162968261522589,-0.00556346838273052,-0.000818660444480722,-0.00220474162428929
-0.0162443029882881,0.00438255325631895,-0.000946390442922162,-0.00371380176222329
-0.0281573052535199,0.0476511297932661,0.000107762877442812,-0.0044362909078141
-0.0272699794959616,0.0767609184463969,0.00287594494637521,-0.004266418236844
-0.024383856542504,0.0792463940140666,0.00467674244087667,-0.00328186966272846
-0.0245120058031752,0.0688527781423566,0.00513283363298963,-0.00166836880497057
-0.0239311226449324,0.0582017855798048,0.00431332145316207,0.000120595901909225
-0.0217263531599761,0.0546695524162033,0.00270307644936956,0.00132164906145159
-0.0204851311873979,0.0545011155902673,0.00228398357949633,0.00127319663692957
-0.0229129066359463,0.0501427008737211,0.00242192654519191,0.000232770039258139
-0.0298895142688042,0.0416306291157435,0.00100398417930527,-0.000594238499396105
-0.0352716505863069,0.0292255049045195,-0.000143135202542451,-0.000178612981276359
-0.0319040783598862,-0.0084050474243397,-0.000127192955587341,0.00109916593964073
-0.0174037338442109,-0.0928565775851598,-0.0010366268511846,0.00168609219910489
0.00125401294127075,-0.170123596128064,-0.00319605010526902,0.000582328397437914
0.01160010774329,-0.152765655378247,-0.00614691786633111,-0.00160282499171369
0.0155732513862253,-0.0537693839001239,-0.0105755788715071,-0.00359367490538884
0.0221481069984291,0.0393622265201013,-0.0157138257491493,-0.00466189526434224
0.0355163011576961,0.0796922576077584,-0.0158326757489812,-0.00491387248703722
0.0527101673097082,0.0780451853369781,-0.00943253976293769,-0.00471583755416915
0.059249346567521,0.0621666327351776,-0.00344008850156774,-0.00376296685546809
0.0478372607375088,0.0461479842219189,-0.000683660541633506,-0.00175411428505361
0.0312242482816482,0.0365373730101305,0.00142817295155587,0.000640003731585529
0.0243978317471263,0.0369815117414156,0.00252324547501875,0.00253033084178111
0.0249503781662233,0.0316392276569179,0.00145776941036388,0.00358878835436355
0.0221300902196825,0.0114550171524076,-0.000555252251046169,0.00385412080704834
0.0117116167508346,-0.00657346732967173,-0.00202930567088275,0.00362358153721423
-0.00375978817062209,-0.0154071121894581,-0.00234491576287907,0.0031783233013579
-0.0161232230465292,-0.0187721600234327,-0.00336761931742003,0.00246320865280223
-0.0205684164604406,-0.00622302458349117,-0.00581416876629316,0.00142596610384729
-0.0193432117132516,0.0195398145603498,-0.00848489808309128,0.000152346887328394
-0.01254814650895,0.0366531630004707,-0.0117607340900672,-0.00104305469111535
-0.00535829245396246,0.0403740907046626,-0.0132459139568084,-0.00184333263775981
-0.0107481295147648,0.0373972272713566,-0.0103897310178075,-0.00227765927319593
-0.0279045576984462,0.0280819096452388,-0.00588515410242857,-0.0023850351914248
-0.0373562559952874,0.0125404597851878,-0.00240168214727127,-0.00215157975301524
-0.0262725246984032,-0.00105869882231843,-9.89548655902298e-05,-0.00172952025237118
-0.00474615167568034,-0.00478832487941029,0.000894651098753897,-0.00150049057083422
0.00784252264414341,0.000596631283437316,0.000457415353753054,-0.0016721980181098
0.00846869097813231,0.0110124647523065,0.000297954723505296,-0.0019633287008583
0.00796456559253238,0.0173957746313571,-3.95311391327524e-05,-0.00199377943739755
0.0132502992318107,-0.00682132772159296,-0.0019854375944985,-0.00160660088351823
0.0283323946596611,-0.0693912754975822,-0.00313459939181487,-0.00102362143315251
0.0497344814843847,-0.120129402842872,-0.00376638163345633,-0.000401143668407657
0.0634340799199195,-0.116362512615399,-0.0053135160645979,0.000357484147935451
0.0620919952900506,-0.0730782807631492,-0.00694681828379907,0.00100340623211138
0.0485312820803446,-0.0177005078891735,-0.0085143297226962,0.00137587603052807
0.0249611503445219,0.0295630503067235,-0.00770404194243351,0.001647104955095
-0.00260025252139366,0.0480370654883537,-0.00520786764679558,0.00154596244221745
-0.0246801845977964,0.0443398404216917,-0.00501469589709531,0.000713909110800284
-0.0336370568780235,0.0379435734893193,-0.00516253682744223,-0.000420317619655265
-0.0289028588710776,0.0296154269989833,-0.0035887761666832,-0.00106781344015673
-0.0181709959667949,0.016897576907295,-0.00218322251950909,-0.001026645476493
-0.0128135862205582,0.003185796724989,-0.00127960051495776,-0.00077982877056188
-0.0189546739961347,-0.00776370113550482,-0.000366394401707748,-0.000818140305556
-0.0309266925663387,-0.0145215064187773,0.000858252746635466,-0.00119392062504207
-0.0432776104142625,-0.0151039472550076,0.00186089821709616,-0.00144426831028212
-0.0523603913515985,-0.008819029313659,0.00206020091420483,-0.00116338219659389
-0.0575175447543243,-0.0074483620434963,0.0013577469024934,-0.000592920511774047
-0.0631703218198102,-0.0145767011092909,2.66412100657379e-05,-0.000102321123682022
-0.0662285235654358,-0.0122843021051526,-0.000377386890520283,0.000100597242882614
-0.0597456871823427,0.00576512751736465,-1.36020204633522e-05,-0.000209274161149443
-0.0474451124681382,0.0271703781871972,0.000836239155154051,-0.000826039215946239
-0.0329833636845807,0.0412939630642187,0.00185816658323048,-0.000913518862342886
-0.00910149045663088,0.0415393870265087,0.00101330074269261,7.46687644949886e-05
0.0222467957740448,0.0407939665699658,-0.000432561151784567,0.0016591316391948
0.0446675339644683,0.0635434236886976,0.000602364018426908,0.00207326147336385
0.0478925853076516,0.0696705915162362,0.00224076576169438,7.38902594696203e-06
0.0421831372648618,-0.0177090447522658,0.00182864938150346,-0.0026883933625158
0.0493837397333129,-0.170950241755125,0.000211806652323182,-0.00269783173874327
0.0708390112847144,-0.251926095412509,-0.00237367633224247,0.000429702734371735
0.088285359389572,-0.185932262190076,-0.00453944582449502,0.00348171432449487
0.0898418786359763,-0.0431379182704551,-0.00349850205723927,0.00360518095683543
0.0637311510452151,0.0651633448776585,-0.00197750955290318,0.00191413989710022
0.00104102380274218,0.0834063337997464,-0.00122420669664136,0.00134143463012024
-0.0711525935495487,0.0443287729001327,0.00293337624441208,0.0020121000707998
-0.110370700710179,0.00506198242726476,0.00822871939726787,0.00179792018936259
-0.106163264285133,-0.0276128252720215,0.00975443326607699,0.000386109477087264
-0.0704682865228968,-0.0379867331467036,0.0087633410869739,-0.000708530347018262
-0.028210414284744,-0.00310641728914876,0.00822449207785242,-0.000968508410228687
-0.00574487476487842,0.0296940477255733,0.00871712615344711,-0.000763475578639387
0.000390077584543845,0.0230405215994716,0.00981861774646032,-0.000113359986343756
0.00733689339881418,0.00342451180693197,0.0109260425628937,0.000445620257772255
0.0193518761017257,-0.0123490282511806,0.0104617854740555,7.62905179338142e-06
0.0376536974049959,-0.0380377606951498,0.00723505217562266,-0.00102622424238242
0.063129937146244,-0.065488332121525,0.00469713679378584,-0.0014222235734191
0.0853315793070516,-0.055993856262802,0.00454857169761051,-0.000843059824524918
0.0889991689091031,-0.0186780135250381,0.00407078785397739,0.000262899826677214
0.0709465538873572,0.00661568272506659,0.00405700682140985,0.00123117508638367
0.0437023307437201,0.0203012091573397,0.00447854773853267,0.00147220230602107
0.0221234043969975,0.0315634293971316,0.00445374372884035,0.00112260412019342
0.0104202484992691,0.037629665171539,0.00164184711802675,0.00112601276138088
0.00837454551833468,0.0375242638756764,-0.00428899133998336,0.00281943512984645
0.0164653831073734,0.0341486515311324,-0.00596857650923811,0.00545559158013712
0.0275672583410812,0.0414266385123529,0.000246076800289813,0.00561542522539059
0.0333207089651735,0.0620438960429043,0.0095125696935298,0.00208530187360271
0.0330700387032337,0.0701879961577302,0.0155237845223934,-0.00221958665355683
0.0288474981347904,0.0495620937231241,0.0162835496914961,-0.00408742574716002
0.027106892473476,0.0200866522037355,0.0143186714543837,-0.00300117506536766
0.0335353842777817,0.00619897987326415,0.0124277599739586,-0.000479076130790942
0.043868710880504,0.00634669908723411,0.0101836926865638,0.00167710916580854
0.0523883549421673,0.0082559856652442,0.00727386027942594,0.00230263370617394
0.0555034649525818,0.0101979801497075,0.00595515942883889,0.00150892697743765
0.0512150715977091,0.0196898608382861,0.00571734724412305,0.000484301997693804
0.0454838636389487,0.0324878616131871,0.00266234148726837,0.000199218731242319
0.0423128167410134,0.0257095407700923,-0.00261231396201203,0.00069896777906685
0.0339793888497401,0.00486311362708323,-0.0063957173998682,0.001530306811503
0.0186303008720803,-0.00296924599056559,-0.00880744574446719,0.00203565628528617
0.0070155033030653,-0.000212290983121911,-0.0112516339621483,0.00183397905761568
0.00425028612412022,0.0106363800074985,-0.0123103038373283,0.00139488890565755
0.00614137184215078,0.0275823605233056,-0.0100108961386196,0.00140966313533112
0.00696042472704025,0.034061745737161,-0.00495861544646715,0.00182674641990927
0.00182338749954967,0.033760048779671,0.00106514387529964,0.00189456521271043
-0.00885117941784079,0.0238469384594453,0.0062411157727916,0.0011755330845908
-0.0159198743821465,-0.0123926416744872,0.00806784964516823,-8.22139024376171e-05
-0.0126196216656248,-0.0505760036776462,0.0066757183715019,-0.00146009501612982
-0.00491618393968232,-0.0595814380487588,0.00556122415733351,-0.00255421131752653
-0.00124079833673148,-0.0488819477985015,0.00702488720991366,-0.00331522468163765
-0.00332744940823746,-0.0381966978855282,0.00929172400480591,-0.00379857918252254
-0.00617454144682668,-0.0353219557127459,0.00902218150072033,-0.00351328405542814
-0.00633141109001089,-0.0312867394666419,0.00759479461531363,-0.00236328027786869
-0.00701501996086179,-0.0212260500188043,0.00754663556561755,-0.00117999630827572
-0.0104482867693111,-0.00929921305870168,0.00716038567909136,-0.000599482241236588
-0.0141518496458597,0.0118232167157871,0.00377489931433384,-0.000334114308245242
-0.0156415537649493,0.0368279528237198,-0.00311467661635841,0.000262048794090772
-0.0163788660435326,0.0552158251222653,-0.01184846019282,0.00151045451835448
-0.0174934897053039,0.0745168306471785,-0.0189853755740253,0.00312256435721059
-0.0189124702067939,0.0884172997796002,-0.0195072606629031,0.00424520954214635
-0.027477451550163,0.0806077028465277,-0.0143730204586226,0.00426959013428661
-0.0486648462242774,0.0584172842328124,-0.0110873275905559,0.00312783018370482
-0.0766975919288124,0.036020704566522,-0.0124889791849176,0.0014054648296371
-0.103324916061049,0.0172428648806821,-0.0145401184632253,6.77468499804676e-06
-0.11524734491484,0.00820195964780936,-0.0119949880095896,-0.00100252374145738
-0.105419144963913,0.0104834021625311,-0.00526597907890262,-0.00205525704523584
-0.0850383576103844,0.0111702411753043,0.00137929756860335,-0.00331861349654497
-0.064888993469336,0.00777537594612618,0.00620581499750945,-0.00452642440366514
-0.0434345440319785,0.0107445559874491,0.00896069988757103,-0.00508616543189769
-0.016916465705141,0.0183424204699457,0.00750990994669449,-0.00466123843550523
0.0137298806625274,0.00811201760327071,0.00325252399210197,-0.00344903007474525
0.0449668984144134,-0.0354070412989325,0.00236952755825826,-0.00208069763142106
0.0668111669492913,-0.0784860423698843,0.00430521832632842,-0.00124478912095354
0.067531104837531,-0.0706015187591259,0.00371429105515807,-0.00118550023060496
0.0389080587086513,-0.00224680523086054,0.00138203072121307,-0.00133660358462146
-0.00757340774270314,0.0710250302964053,0.00150849166876058,-0.0009518800405303
-0.0396180388514127,0.0513912870713908,0.000874045320623226,-0.000195819896446649
-0.0457958470791055,-0.0482219468473606,-0.00562300095562643,0.000256467872659748
-0.0471284050230385,-0.0806329097077267,-0.0142034731576596,0.000306792277721413
-0.0560041038636315,-0.00410363701161631,-0.0185280552285378,0.000459670907519632
-0.0589916407151171,0.0771724944485837,-0.0175014775494538,0.000811636053485019
-0.0492836917498505,0.101051601444758,-0.0134057892727885,0.000769436667415051
-0.0360789136023052,0.0880834205091331,-0.00776440929343178,-2.35729957990673e-05
-0.0214067733436579,0.0673086054436104,-0.00227816308776108,-0.00117549600807015
-0.00710905754824807,0.0521321372773809,0.000520644740897329,-0.00213915789306401
-0.000585578232582635,0.0490983842460016,-0.000154361913514608,-0.00266235226254729
-0.00426215230620645,0.051907596826784,-0.00146984398137154,-0.00233122341071589
-0.0217568109917561,0.0295473714830008,-0.000460666415826282,-0.00117913920035934
-0.043292194447245,-0.0162271797949692,0.001797902375684,-9.00176205030931e-05
-0.0473669720973494,-0.0272254973219156,0.00307677245034694,0.000593354058718925
-0.0328229028983357,0.00143911938507217,0.00212983944098523,0.00114539081895555
-0.0157922193575069,0.0199576640355241,-0.000865320849072348,0.00156687746658306
-0.00889637043825286,0.020553785004292,-0.00365277435290741,0.00176508950294763
-0.00951155070505783,0.0211801670040561,-0.00473147008313883,0.00186779122495277
-0.00684286474371473,0.0203696879739678,-0.00387948380321252,0.00191675628677451
0.00499883931456874,0.00866655678740403,-0.00307104047440497,0.00174804046835955
0.0246488139336379,-0.0132189290901383,-0.00402829155494835,0.00139971535732741
0.0422106609863821,-0.039996846836476,-0.00470454529762695,0.00101867314709242
0.0568980828145158,-0.0628640815821857,-0.00485859213788898,0.000777651183700712
0.0773573465871311,-0.0382187003268668,-0.00423632083278712,0.000798691374657021
0.0898525560731471,0.0401368349674763,-0.0021325141675228,0.000926795852145401
0.0716598588685239,0.0718009139666663,-0.00100288762044179,0.000870842211842643
0.0339632879183088,0.0199919656747156,-0.00199463288973909,0.000349082877825223
0.00810674268438977,-0.0332494250014018,-0.00242347038296063,-0.000518778126651242
0.00333232448275574,-0.0460763512271472,0.000533426072702826,-0.00121810997453928
0.00803417195171242,-0.0401339448061317,0.00393208478455808,-0.00154737682910845
0.0114025758079293,-0.0353007615625117,0.00481045702590076,-0.00141285730148129
0.00785303175316778,-0.0343581930719379,0.00514147714843659,-0.000453602893550848
-0.00152536017189464,-0.0292670094925635,0.00576440405788881,0.000906076621507387
-0.009141331216136,-0.0161229214608813,0.0059651963004505,0.00152819086447182
-0.0101818634346509,0.00522391798820605,0.00512485321312187,0.0013304082705434
-0.00674635361499821,0.0308721937397971,0.00247837671311186,0.00128514936256233
-0.00429724627095037,0.0447681329748291,0.000586312205609572,0.00172981228444561
-0.00340722892782882,0.0404926833264534,0.00186625197063268,0.00211297476708472
0.000424913860594202,0.0252584722132259,0.00359632213630327,0.00205786947944648
0.00535399630791403,0.00502793961028188,0.00476536982654292,0.00155941333002145
0.0079296639787219,-0.0165400506962835,0.00518116477548521,0.000764663604763078
0.00994153068888016,-0.030662197674101,0.00332325546760999,-1.07529981853854e-05
0.0108538827174278,-0.0271135422177793,-0.000382826281977947,-0.000449024143005599
0.0119801935924363,-0.0108287222749796,-0.00322035106176294,-0.000566419937497887
0.0188004641857243,-0.000659074122465504,-0.00232168130573886,-0.00063387575226377
0.0317515435456442,-0.0125582452202632,-0.000712165098528401,-0.000666282182954754
0.0444926976908649,-0.0522770411815148,-0.00127006078804554,-0.000550245806106505
0.0479857432416643,-0.106377327015362,-0.00300533703215398,-0.000227307130308363
0.034672377649382,-0.131410797253903,-0.00265130675011545,0.000248262863752782
0.0108222083390529,-0.101696364575385,0.00357449209849897,0.000428636065341175
-0.00701815427602172,-0.046788549752225,0.0116064336348145,-4.0421067957117e-05
-0.0256977636821357,-0.00622744091744759,0.0155081680034177,-0.000728129810413113
-0.0626164779526314,0.000599049515351724,0.0151181329496499,-0.000950646788750755
-0.102014728549985,-0.0150191592344782,0.0137147219976647,-0.00075561951204571
-0.120890877991474,-0.0207263774616864,0.0133058011909487,-0.000568050538610219
-0.117428290506007,-0.00644256424579263,0.012441004009584,-0.000391046452951006
-0.0942754948454818,0.017852896220505,0.0116715126037821,-7.88318328607328e-05
-0.0568283919390261,0.0376391996228096,0.0105127526559902,0.000430478358334154
-0.0132297557655533,0.0361310645574723,0.00644800603794012,0.00108194515510104
0.0293596130264954,0.0231483482862497,0.000974018101252524,0.0017593644207905
0.0625972494625746,0.0401556254242325,-0.00341140089711797,0.0024679321563098
0.0780046345086352,0.0695650703801649,-0.00559185456802331,0.00289828619268223
0.0815779106168103,0.0425783116197947,-0.00782549979077985,0.00277690443053837
0.0906957947068072,0.00738696054161229,-0.0135712183765597,0.00242269061685428
0.0935935508657912,0.0453619260044842,-0.0198539808631743,0.00218609327969995
0.0560759324815706,0.0892649373617398,-0.0218900790377203,0.00201779422568545
-0.0184928180472693,0.0659769844660611,-0.0186828700767214,0.00128569299589935
-0.0830467293926447,0.0207702890645999,-0.0109570131429441,-0.000399796812341376
-0.102958965952566,0.000692444013170146,-0.00224201904425421,-0.00252839526649064
-0.0865005358047143,-0.0316972230659057,0.002678025562628,-0.00454041481476388
-0.0605046744397387,-0.101155280959333,0.00395961410900911,-0.00579300225572306
-0.0406740802663798,-0.142030513294394,0.00610422435227225,-0.00545418421562868
-0.028571621718439,-0.11374110952642,0.00882286099662591,-0.00385118996823847
-0.0109495873742727,-0.0679408066780277,0.00909673139906613,-0.00229414726494344
0.0231880823123999,-0.0646812708650768,0.00823637065853312,-0.00145170395157551
0.0593266549762887,-0.0973888701766506,0.00594100201226488,-0.00112313162789982
0.0754391790215291,-0.0863072230370522,0.000982079743044522,-0.000632876315438318
0.0698587385038226,0.0120636645332446,-0.00308167836902364,0.000540301259293595
0.0580582719155561,0.130187556769219,-0.00279558424304017,0.00217552447037456
0.0420569360594721,0.187179218296313,-0.000177634566614698,0.00344641859961516
0.0149419459675474,0.168107247608201,0.000782834257158631,0.00362029000246607
-0.013332758916176,0.119767276681952,0.000631677521899578,0.00302412711957584
-0.0285954264952373,0.0864447999787478,-0.00026977135713181,0.00243581950456048
-0.0292330831352013,0.0593820767244587,-0.00376192389150878,0.00209958498259863
-0.0201846660698884,0.0233630709248791,-0.00694368933980902,0.00221422990591347
-0.00560137234132124,-0.0192969425273652,-0.0076967803063761,0.0030140791832654
0.00983218498777121,-0.0654447229925612,-0.00888651687172504,0.00412114179649357
0.0261892160928049,-0.105258757718651,-0.010653890241406,0.00471740979134239
0.0469251083001429,-0.120837102984782,-0.0100391733061378,0.00454890966198173
0.0711283327451856,-0.0964994582384082,-0.00693897013945251,0.00308161244247672
0.0925578049960938,-0.0389512462017504,-0.00295068404084372,-0.000942506479177806
0.0972664932100711,0.0166136667290998,0.0017373775519299,-0.0067199834061324
0.0785307167039106,0.0472012578284595,0.00505173778654654,-0.0109950262146053
0.0503590639897158,0.0627465412066995,0.00491514511974682,-0.0116361922139209
0.0245090746093619,0.0637259091725481,0.00526466305227338,-0.0096261706558453
0.00253191889186523,0.0394128526378208,0.00756467973830243,-0.00717379770097212
-0.00962056751329554,0.00214933798612108,0.0086215281269774,-0.00540417238121436
-0.00860193537757743,-0.0338704457503033,0.00985632319507497,-0.00394557637058529
-2.23354896096845e-05,-0.0664221761377567,0.0117393973839376,-0.00202801926721318
0.00858256269218999,-0.0915552536596118,0.00986515525012395,0.000283559625876411
0.0137850594350607,-0.102635731179433,0.00469994837536548,0.0022923209258835
0.0115400896522928,-0.0834413139002333,0.0022070178815459,0.00346777614572058
0.00245619343729368,-0.0322208400983622,0.00196342386397563,0.0038992506807117
0.000308819999541833,0.0173901546305604,-0.00120981881554144,0.00382639529525451
0.0124693653564832,0.0431694506863549,-0.00375029678418209,0.00344664732574727
0.0331399012358637,0.0399194228792687,0.000590793829266025,0.00298202284682816
0.0507618776846706,0.0246740903211866,0.00935146711809406,0.00220937236645556
0.0558420297042665,0.035160135964165,0.0163114674736671,0.00101394614477164
0.0493982249376205,0.0485809693869889,0.0170462540609929,-0.000222408701038852
0.0364882136317532,0.0238944842427583,0.0121336202161601,-0.00111569414623532
0.0194769314299478,-0.0167931823469934,0.00719007915177191,-0.00143315253915643
-0.00640617611476409,-0.0478992358483903,0.00534882080280787,-0.00107951990696436
-0.041122533647035,-0.0796427231595917,0.0045589917692648,-0.000456621801581552
-0.0736669751203118,-0.110255341678356,0.00172435033796024,-0.000213006322486766
-0.093553134062184,-0.116492941096729,-0.00396101268831897,-0.000397893259566428
-0.0955400175377137,-0.0941235805372863,-0.00883996193835708,-0.000671126865900921
-0.0832263285081389,-0.0577539452973752,-0.0100973766095303,-0.000916811410068022
-0.0654711563942191,-0.0219243191877037,-0.0104059326978417,-0.00118811849752225
-0.0466530787039559,0.0170291450660362,-0.012291716183709,-0.00133945965415717
-0.0260823932114436,0.0703853340208421,-0.0140499915827063,-0.00106250604662049
-0.00213611143245927,0.102439107813737,-0.0121563000004673,-0.000462911881622797
0.0275402093915806,0.0583102549862709,-0.00686265888559196,-0.000153950133958879
0.0599327179050771,-0.0335729040065722,-0.00200865213356763,-0.000256784656609368
0.0842942549703027,-0.0874818056670191,0.000756492406695015,-0.000125768179731257
0.0869220174407491,-0.0848425089559914,0.00111880906332578,0.00054703027287619
0.063667008398885,-0.0603208128804318,-0.000767312166519474,0.00131676330052735
0.0350704509783459,-0.00789520434713291,-0.00231272525218909,0.00160741894593455
0.0191307870860451,0.0819884391055851,-0.00232118034513505,0.00130741595224467
0.00501052866227981,0.140142195025627,-0.00160715351742571,0.000771088641485428
-0.01445554999755,0.110978919015207,-0.00109152822270465,0.000313597097037972
-0.0274645818394438,0.0539730828913437,-0.00188276054959787,-4.34432636122957e-05
-0.0269718693440433,0.0327665009555141,-0.00346630081130206,-0.000204523849195779
-0.0194285957655013,0.0358220952491659,-0.00527201757270268,3.24522578685189e-05
-0.0122589854184804,0.0391917298583654,-0.0077318504551963,0.000822497373291986
-0.00391091538503859,0.0360628248469677,-0.00951784775340645,0.0021929217501027
0.00668376961456537,0.021397195754881,-0.00896913119351369,0.00335190046169282
0.0127012283552579,-0.0056147694740759,-0.00738088646657676,0.00333332480801363
0.00612767254390235,-0.0267723571542675,-0.00708632536627517,0.00246028024434632
-0.012071713536421,-0.0241871045288751,-0.00924950786480892,0.00187791434266321
-0.0315230251370491,-0.0110203057076779,-0.0121728119007516,0.0021838301635197
-0.0423923060615148,-0.00696090948172627,-0.011961924200608,0.00282283596466504
-0.0376971357493317,-0.0083586170179472,-0.00830133701966843,0.00290050286977492
-0.0181051649755723,-0.0100733910625699,-0.00480916015154512,0.00226213828449068
0.00331465255881959,-0.0168207902738787,-0.00359359254868918,0.00109918958342542
0.0152614265379581,-0.0242818765418671,-0.00312020300075132,-0.000449606695057419
0.0181650196649433,-0.0238729164798907,-0.000950489717913592,-0.00199954618954799
0.0186891667767566,-0.0163403918566735,0.00135119386158179,-0.00298617906724546
0.0188809944259839,-0.00595223372007157,0.00162549046470491,-0.00290972830412092
0.018261150775598,0.00724094387146869,0.00115019653934662,-0.00148297793174382
0.0212437532337905,0.0158318986332028,0.00105629831583707,0.000214216435353283
0.0254350411096476,0.00481600626757451,0.00011619950406841,-0.000170662551822853
0.0231197459694809,-0.0144643577923941,-0.00246396208047025,-0.00256536896002683
0.018935148493617,-0.00290145031106318,-0.00509425073791595,-0.00362446279621111
0.0135697878759478,0.0582509308151039,-0.00559502459445396,-0.000990847153330083
-0.00807116768908283,0.124539476010069,-0.00336484582045316,0.00361914003490072
-0.04058552305999,0.135720361156836,-0.000432434070279877,0.00622805313090967
-0.0587898427818437,0.102467617128409,0.000982878724958388,0.00506375460061463
-0.0591998596571805,0.0694437643547778,0.000293317360351447,0.00172173072597575
-0.0577961636685305,0.0472035092946882,0.000962941223957233,-0.00133296043155036
-0.0602778986854303,0.0352560387383973,0.00460649511022166,-0.00282208666457858
-0.0569358816194284,0.0410644591464844,0.00665263631952282,-0.00294999095178423
-0.0421218321260222,0.0506756442694,0.00597808884842354,-0.00200889295897661
-0.0208822173828566,0.0296174282132862,0.00488910825978755,-0.000111254997966146
0.000665571053682673,-0.0216321393178804,0.00256170681088403,0.00185059891531373
0.0119600596765925,-0.101874854980812,-0.00109718728316984,0.00278666297108503
0.00313885363752252,-0.204814352878523,-0.00430196926877407,0.00225975007317067
-0.00775962528212487,-0.226836660333671,-0.0059181125147706,0.000954210539217939
0.00690131981132947,-0.119740670458216,-0.00573804833865435,1.76948318174157e-05
0.0362281135069243,0.000449073254933235,-0.00386227971051956,-0.000594572073394291
0.0488972059873145,0.0538517334746066,-0.000740626543971836,-0.00184296476939442
0.0363839496678674,0.0907024852973455,0.00256678965073689,-0.0038690282937263
0.0105329420592705,0.140978047856671,0.00590619016039634,-0.00532565687900621
-0.0168841180418682,0.156080970028346,0.00772451739595669,-0.00463499086024726
-0.0362664090583666,0.122865529897414,0.0069443253079806,-0.00188634850422103
-0.0397280342502246,0.0847476850155444,0.00530071822031112,0.000880364408188168
-0.0317669224127409,0.061898216703919,0.0039619510073599,0.0016359592105644
-0.0206338763373839,0.0390411540318581,0.00279121868142965,0.000346216100761368
-0.0105337841212113,0.00879961587544072,0.00204266479196724,-0.00155977452553781
-0.00445390441742077,-0.0198080758508211,0.00170019179214847,-0.00251694490786712
-0.00099045569306325,-0.0420858309686439,-0.000289248803992233,-0.00180128138083535
0.00389947058179568,-0.0510105751386899,-0.00470608549810144,-2.48056956810776e-05
0.0104638270282819,-0.0377980284544472,-0.00973121632318966,0.00166315915217388
0.0153036115889319,-0.0140812324795983,-0.0141067711215385,0.00251644961138848
0.0183402284489585,-0.000561193557512295,-0.0164105010716859,0.00235653130926248
0.0201368870262052,-0.000127000031134753,-0.0152707772385771,0.00141337187348567
0.0191406977780488,-0.00363658948674589,-0.0108548951429551,0.000624710016856644
0.0124770481740307,-0.00588488614749482,-0.00555413965047003,0.000706462522874732
-0.000923579603478851,-0.00384181167801156,-0.00145882990557288,0.000894927548992135
-0.0143200482087169,-0.00120482738483448,0.000501340237010281,6.99245668643435e-05
-0.0182517683879463,-0.00542334323536522,0.000653611248807613,-0.00156929843497885
-0.0083923859844626,-0.0138511736221749,0.000951898198583342,-0.00254674439456228
0.0100678795686254,-0.0191106278157432,0.00129023417378178,-0.00199495723008651
0.0240005709832459,-0.0215096360366189,0.00261025300194891,-0.000814460386510031
0.0279596518583817,-0.0270588819363237,0.00485356513437849,-0.000270638102408856
0.0259585952598172,-0.0404272628487186,0.00542439081728307,-0.000647570664547985
0.0206284979146538,-0.0575815306283061,0.00550856013367402,-0.00151820472076051
0.0152744864176719,-0.0667330391277149,0.00654052715210321,-0.00216654027947871
0.0136117754057444,-0.0635652438353926,0.00693319602475606,-0.00186523179512446
0.0138801027687291,-0.0532702735629747,0.00545376831849509,-0.000481733569256693
0.0103526974593112,-0.0415457044932909,0.00376704725763486,0.00125168473448518
0.00262171936453444,-0.0315322352746443,0.003161744251362,0.00248042113768902
-0.00383260174457658,-0.0272898583315233,0.00227656795775323,0.0031337992325892
-0.0179004019470009,-0.0371000491948682,0.000395503807878833,0.00344690127448765
-0.052193543352308,-0.0584808137736781,-0.000946674311130919,0.00318257317060108
-0.0871669715955084,-0.0657211814002508,0.000760721556788737,0.00225935735187619
-0.0944714975531046,-0.0504903560253564,0.00403963211104401,0.000930197839362535
-0.0799906656660226,-0.0314031834717339,0.00662185149000854,-0.000615880851805004
-0.0634767854317192,-0.00802635900039321,0.00862495535020712,-0.00203468733798428
-0.0487071706733076,0.0364277825187363,0.00885523390522805,-0.00287727559163696
-0.0398261872371427,0.1058673800758,0.00622302010316671,-0.00297135835184353
-0.0424653535295051,0.175062173090731,0.00192700300181039,-0.00196007746755826
-0.0473812636644301,0.209176563665751,-0.000565187412807908,0.00024066716934978
-0.036518075634985,0.190355880630879,0.00175375046046459,0.0020263873048996
-0.00594848779271846,0.141833664180793,0.00791984786638711,0.00169116639605512
0.0228363501602416,0.100765852906021,0.0143982129841378,-0.000417573829164821
0.0298931556506549,0.0780122464043987,0.0197469835283324,-0.0025492005895549
0.0158229162065416,0.0634408036897102,0.021529721682124,-0.00330325041635525
-0.00426306552525563,-0.00237094528376652,0.0176397331677942,-0.00258779880048177
-0.0092334682872539,-0.116979675958497,0.0122003487764431,-0.00105852323584781
0.0026143021536363,-0.180775518296652,0.0085787625775512,0.000675969160690274
0.0141215445781761,-0.212804042595026,0.00527842804642081,0.001909932428316
0.024169683984201,-0.298340669259615,0.00350179294275202,0.00215408826456145
0.0397642292846759,-0.359409839765449,0.00472606134271312,0.00186100275803226
0.0512039878344046,-0.273765452012939,0.00687984997843171,0.00164167850057225
0.0409190158177861,-0.0975649330757553,0.0101164037421084,0.00136787901181709
0.00314085286262072,0.0285720756265187,0.0132488393720379,0.000810410947461644
-0.0415202347915232,0.0794707315219162,0.0121049870909857,0.00021437162973632
-0.0639316298572996,0.111861142237137,0.00581999772733681,-0.000114874144070679
-0.0584607876710495,0.141818371779597,-0.00315201218330298,-8.22491886048045e-05
-0.0404415835795619,0.158492112361624,-0.00953206348181187,0.000289492127370697
-0.0204786103730905,0.1541448971814,-0.0094010870539776,0.000678893237792384
0.00172889009163016,0.132530968047044,-0.00801935489119851,0.000588528247480899
0.0195248571530414,0.106290521570696,-0.0109312810264626,6.50120141401367e-05
0.0255151814701248,0.0710680376889478,-0.01350588999877,-0.000240417073012364
0.0246181155485868,0.0348531534597766,-0.00864207267384613,-0.000193801225540888
0.0259723390766521,0.02088384658984,0.00152485959424804,-0.000365074745494507
0.0322068743918887,0.0251957210506891,0.00869167801584867,-0.0011616554070368
0.0374521320421029,0.0254586644535097,0.0103856918203244,-0.00239853675084973
0.0372026574234706,0.0100178120872581,0.00906928907430623,-0.00336220281848232
0.0346120013046374,-0.0127966435173268,0.00705065811812521,-0.00338793988328266
0.0354740646397172,-0.024851140719671,0.00656342453967661,-0.00243158922634571
0.0401827271965392,-0.0196493841586698,0.00804126422213094,-0.00120837774213449
0.0429772264739021,-0.00849684166792963,0.00974758088998627,-0.000472033480511983
0.0421478277035231,-0.0017378170841777,0.0104029385722539,-0.000226202597915004
0.0414561125763029,0.00234916386223395,0.00963523981915168,-3.21877513554144e-05
0.0391205498845171,-0.000593606678248024,0.00727324320520823,0.000454653503626602
0.0345179530284632,-0.0467733556626636,0.00444611826671322,0.0013671691450926
0.0321787912165318,-0.170070483522062,0.000749836680186806,0.00249521843207152
0.0318163427570216,-0.297581490827661,-0.00373267479043838,0.00320247564287653
0.0256982985495696,-0.291563929746883,-0.00503533004724891,0.00318238917411752
0.000462612116148901,-0.15461880546813,-0.00462145842119568,0.00291900977385846
-0.048175268533172,-0.0251794844593705,-0.00973381755219765,0.00286248988804275
-0.0996110212050655,0.0256223143281345,-0.0212699324015638,0.00318018189498865
-0.123766253411303,0.0402422074410671,-0.0308538282608768,0.00400357729155101
-0.111008047908262,0.0606065857930532,-0.0302897382253997,0.00490436453825305
-0.0774459085775334,0.0699928346030716,-0.0215665297410845,0.00495389013762386
-0.0440523656015783,0.0495046162097086,-0.0116607028968898,0.00371731822416407
-0.0198244505140829,0.0176322362922282,-0.0029052379538497,0.00133981399841684
-0.00680238655039861,-0.00978687957073932,0.00377705236973825,-0.00154597617037015
-0.00413324602292883,-0.0241287404883439,0.00680998945646567,-0.00377039095483448
-0.00789748720745824,-0.0152098586015842,0.00744472159129698,-0.00462168431871793
-0.0130486798698582,-0.00379297690173389,0.00590706970756348,-0.00412067472391913
-0.0180172345485204,0.0127113618476312,0.00253509692223265,-0.00265849524241708
-0.0251467006637817,0.0622814899631104,0.00111827386704992,-0.00103361574117239
-0.0288924364313726,0.0916374241586622,0.00126484091407471,-1.04476266705083e-05
-0.0249198965445343,0.0476921932020582,0.000320612651422252,0.000105179006230597
-0.0230535408614749,-0.018662772327672,-0.000859788592897243,-0.000427700763954148
-0.0275167450877547,-0.0258739504809849,-0.00263859559598783,-0.000954404886809634
-0.0337980641356408,0.0377495163141479,-0.00633664864159675,-0.000769793995477597
-0.0400708875395079,0.0811507913955957,-0.00762697256594938,0.000147357214147563
-0.0396759765072761,0.024355436343731,-0.00273108964022719,0.000886846398976749
-0.0201394685916269,-0.0875262551140279,0.00400885948437277,0.000954113996472606
0.0147374322145748,-0.161806812490709,0.00706438538149714,0.000674504407247664
0.0378832411646202,-0.167794646568254,0.0060817706327473,0.000442033310339432
0.0354298244951957,-0.112831089662774,0.00431089499187315,0.000543280851484204
0.020952174452912,-0.0123327899866656,0.00374185482165939,0.000951994074766523
0.00338050633471966,0.0674617895628081,0.00427818451865769,0.00140940905668837
-0.0167569534281232,0.0544960592345642,0.00440141763784779,0.00150189532005074
-0.0253560143979711,-0.0198272971658079,0.00306108538672766,0.000846139566346543
-0.0209047030067316,-0.068897258083495,0.000936213120349942,-0.000185504690812481
-0.0232920814868314,-0.0578995379331597,-0.000302489467472933,-0.000783693226863008
-0.0247989328796048,-0.00917548454166046,-0.00117830046307551,-0.000885839616019062
-0.00483150462690915,0.0362710032105832,-0.00454259786027628,-0.00101977191317336
0.0222819505447376,0.0466378990286339,-0.00860376654155313,-0.00119454710257751
0.0338863867776465,0.0348852756477059,-0.0117954423834784,-0.000909375534294287
0.0343353001861723,0.051300582131548,-0.0132175945953947,9.66182925125574e-05
0.042684801735303,0.0787262419264056,-0.00878933607824137,0.00178969962497447
0.0573512151249088,0.0513547916204774,-0.000787914477455466,0.00326852593602121
0.0570169276260166,-0.0251666367650536,0.00487382292739777,0.00251646534089165
0.0476821589037204,-0.0851553883015413,0.00737183126406721,-0.000765047525621441
0.0528202056511018,-0.0873123656990211,0.00902721937671785,-0.00423063414827644
0.0622798063981596,-0.0575479011394663,0.0107626903974264,-0.00575908107698449
0.0647627532197719,-0.0287379840207934,0.0107947234593992,-0.0050229233140823
0.0761468520651702,0.00452812388434841,0.0069158723103262,-0.00310058267950551
0.0953647878951941,0.032575132791257,0.000923046440347873,-0.00146913018744551
0.106166189583913,0.031271093767219,-0.00179706220780026,-0.000963079842512214
0.0989143230696405,0.0120903853051892,-0.000589162428313838,-0.00110865358746909
0.0619594087982165,-0.00287145154840315,0.00121216523319079,-0.000918711323030927
-0.0124469379011939,-0.0103468973638324,0.00270634282330723,-0.000178459967828032
-0.0988223397534954,-0.00216320509980293,0.00413791168303833,0.000698914671841313
-0.138811516699773,0.0166458083246821,0.00613154997577112,0.00122929296750767
-0.108184280116369,0.0208685502280319,0.00715882498136211,0.00127763326233426
-0.0461975175552517,0.0204098309449458,0.00489625067468706,0.000922368847837835
0.0047841506446489,0.0390718217874649,0.00104243807342051,0.000184776986570869
0.0315868753436876,0.0651927922210048,-0.00305229740801426,-0.000703991991114762
0.0383145381200258,0.076411558573349,-0.00451722568059781,-0.00129902757728477
0.0390748831760017,0.0729881060954553,-0.000959172623285841,-0.00126838018448671
0.0435288154907754,0.0762917511777772,0.00250528839372842,-0.000708817052391329
0.0538152370716245,0.089673911151948,0.00300419316094855,5.86705425179412e-05
0.0699353939254706,0.107028062006148,0.00191541527081155,0.000831459813617993
0.0785469864668259,0.117281151212372,0.000159099896219431,0.00156640404971979
0.0634909359573712,0.100419466642732,-0.000419082765638724,0.00238372947531623
0.0342140273632928,0.0743644061427487,0.00159517012491731,0.00320174106536836
0.00806846367010823,0.0224724428297215,0.00662183559600991,0.00343711810084709
-0.010954945387145,-0.0972854204039422,0.00962702622992215,0.00263769451515935
-0.0234819462379018,-0.197478180442908,0.00606326020213478,0.00125426855948696
-0.0313885183947572,-0.165310392412414,-0.000447981112131406,0.000147655378540157
-0.0361573234640945,-0.0525863566487731,-0.00616767995209573,-0.000438393737217626
-0.0367458940750792,0.0206693392447433,-0.00844320201361116,-0.000799293785458137
-0.0319555783073099,0.0276343258647278,-0.00471400457765993,-0.0012690727583547
-0.0238500662767111,-0.00558039668928898,0.00139942651930016,-0.00188066923055438
-0.0207123538608632,-0.0538960379895389,0.00452092564561803,-0.00232181543338492
-0.025575917898735,-0.0827673571102227,0.00428284718327749,-0.00237727850216278
-0.0282940380796428,-0.0810530784140639,0.00293103792773855,-0.00201049426246177
-0.02321970515015,-0.0380156936096599,0.000247748426627422,-0.00134864816700834
-0.0158784723713783,0.0473640310079291,-0.00528866983629792,-0.000718965804562649
-0.0192623108099336,0.110508189834458,-0.0118092190041673,-0.00011941907248963
-0.0407261589508038,0.112253341013318,-0.0156554521826332,0.000820617475168283
-0.0652129847674934,0.0912825873631112,-0.0136806954332635,0.00187482227304378
-0.0739956071793345,0.0796467207654426,-0.00691920314753995,0.00230346151784957
-0.0665529612194509,0.0735834570487666,-0.00142039240313583,0.00175013289564628
-0.0522499677855683,0.0665823321527627,0.000787529069372492,0.000507885872124338
-0.0348290551091133,0.059772168267808,0.00368010455207301,-0.000648434672822339
-0.015346094264831,0.0495137327538298,0.0063049100002304,-0.00125756799474613
0.00594159162195192,0.0377031323155767,0.0038775027032392,-0.00152111735829674
0.0332506958148803,0.0352865280921825,-0.0026671967427646,-0.00174256449291008
0.0613461561560714,0.0400868671018247,-0.00768122808242124,-0.00199425810707847
0.0798284875385391,0.0464136565815605,-0.00665498521479504,-0.00247808702627035
0.100933448278726,0.0501885211629744,-0.000861495790287286,-0.00372185708070561
0.13185002237401,0.0328157622991482,0.00472744016524144,-0.00532263582412154
0.142140002875501,-0.0212168852320097,0.00699959123581566,-0.00622911316096306
0.114164575498636,-0.0947991201570872,0.00609649645903807,-0.00645065922687094
0.0715768779119103,-0.137462568692017,0.00295698354232731,-0.00628521941311484
0.0356845097625923,-0.116414439209789,-0.00210154898379876,-0.00492866216783059
0.00613046035750697,-0.0640835551599109,-0.00658556108906462,-0.000675154218877877
-0.017610654596696,-0.0286925729795688,-0.00802442257907333,0.00723132138657785
-0.0326611771159858,-0.0190273076181918,-0.00803987194214466,0.0161419012943267
-0.038407958017988,-0.0283477973611017,-0.00954412975575207,0.0204604928418681
-0.0388348604360557,-0.0401162011131239,-0.0134424316045817,0.0168509201023338
-0.0415010725547678,-0.0271122662647721,-0.0162948939794889,0.00756348482753163
-0.0510361399445422,-0.00205049889607987,-0.014848422223238,-0.0023881572226101
-0.0687475142735143,0.00282179259110778,-0.0115472194709306,-0.00872364018787405
-0.0821342397985968,0.0047054982603166,-0.00841686962036556,-0.00967845305521806
-0.0723364739234806,0.0239540596442283,-0.00428592111773661,-0.00678683264913274
-0.0449467363481804,0.0386427497240147,3.25463459237077e-05,-0.00366673841657769
-0.0182920560096839,0.0389574043515271,0.00248717883002454,-0.00282799369134519
0.00763799331561353,0.035858994745121,0.00292558976843007,-0.00407440283687408
0.0414803729347886,0.0313705576262906,0.00172164641990935,-0.00560412833693368
0.0737929732052419,0.0277902916739158,0.00065402003268858,-0.00532447783165934
0.082938677141159,0.0252492923232085,0.000879877023529283,-0.0025954571656587
0.0684218969468131,0.0108977567444635,-0.000165653438776248,0.000799575426823152
0.0488964048886067,-0.0154187329469695,-0.0023526000324218,0.00282938180254448
0.0355842788931399,-0.0262847476820337,-0.00275448075034568,0.00360174692538527
0.0285929130033632,-0.00610017471627481,-0.00178354323272592,0.00421371739159262
0.0224237805302297,0.0176358445187983,-0.000354062557012452,0.00495249130246728
0.0136523825618933,0.0180025708521524,0.000685793966226456,0.00580936657053268
0.00348682188715018,0.00530826760056701,-0.000993697907111062,0.00664438376888477
-0.00408107647177015,-0.00422179114118751,-0.00404083748598114,0.00706078466493269
-0.0098033498367201,-0.00849155994927896,-0.00402024135015272,0.00700138869285084
-0.021487664369485,-0.0161065021145349,-0.00125068058950099,0.00597866246674666
-0.0383350997398445,-0.0306749220671097,0.000801788300931973,0.00296690499010447
-0.0511895576113508,-0.0406764818710547,0.00190109059085947,-0.00134010923941835
-0.0548719312168818,-0.0384737559280249,0.00322181680558566,-0.00429728852338217
-0.0508425505710614,-0.031226139193661,0.00447035329926022,-0.00405906966721187
-0.044695575539358,-0.0293518948347984,0.0055770371799261,-0.000929768069538091
-0.0409398664216315,-0.0307784137934946,0.00596450972196032,0.00292441379199983
-0.034134268994765,-0.0284993626725291,0.00487423302039885,0.00454102274782804
-0.0145044050911811,-0.0242567203422162,0.00249753360212015,0.00301802054567193
0.0106932340520953,-0.0166399302129923,-0.00112919879552395,0.00068131209613309
0.0212740089538096,-0.000869061140978783,-0.00555503705133816,-5.70393957312889e-05
0.0123807963976465,0.0199294898550283,-0.00941559801675484,0.000807326363116371
-0.00640421867241656,0.036829381198206,-0.00961546910692268,0.00171669010451231
-0.0263502230403055,0.0370242706993662,-0.00482704671728112,0.00146924907747916
-0.0377286554002688,0.0185175048310231,-0.000273862337770674,0.000234251586950162
-0.0383732367659895,-0.000146857648946751,-0.000175506553641643,-0.00194446871826827
-0.0364057438064989,-0.00584511697802331,0.00100154846060075,-0.00744676609702778
-0.0387814103238576,-0.00552012340399756,0.00638758571652628,-0.0172639230902814
-0.0456079935759803,-0.00709184392287307,0.00975508417602971,-0.0255924804781365
-0.049093830830986,-0.0102900657779968,0.00921395034202387,-0.025820489567031
-0.0438231119500018,-0.010538622632712,0.00857691349065147,-0.0179447056936041
-0.0321457916116262,-0.0055560872880073,0.009158709549171,-0.00621569096362802
-0.01936289020609,0.000545606463255115,0.0103176601185933,0.00587877245769005
-0.00688678615987592,0.00393684057352381,0.0104499868421882,0.0163624231716144
-0.000192249685998791,0.00516730973413554,0.00835807809509665,0.0225638569703583
-0.012422179026787,0.00387307569804047,0.00585412082728949,0.0219839094378796
-0.0380995240903381,-0.000229106093640707,0.00352320920866374,0.0139030102508893
-0.0550287788563145,0.00227580435308218,-0.000274904918684343,0.000328143129328228
-0.0623185136841082,0.0209551008548343,-0.0040534949728361,-0.011572267163986
-0.0744464293366491,0.0530395417584193,-0.00425194753162283,-0.0139258056692783
-0.0781304129112455,0.0921163262568943,-0.000617313337652988,-0.00738752885160489
-0.0581493830977318,0.124202296563528,0.00304792383527864,0.000741641168968367
-0.0274784809592042,0.109452537086852,0.00346747227345445,0.00552211641907695
0.00297103073072286,0.0403428459214567,0.000821335615058644,0.00736866689252526
0.0374670674890495,-0.0200962372531943,-0.0012710836268644,0.00710442243963168
0.0749743493672567,-0.0317774917326072,-0.00102890551902664,0.00235298424927726
0.100278608785338,-0.0123990540658716,-0.00101120015742624,-0.00681928804873564
0.106721130110906,0.00287046607969881,-0.00158701300460182,-0.014518021330918
0.100116530726823,0.00694834795147416,-0.000731880215191136,-0.0156348247703749
0.0827944249831747,0.0286080834047934,0.00129968285095085,-0.0117839423936646
0.0516290783447639,0.0589739504476549,0.00217479305557545,-0.00887935549328753
0.00937392701549872,0.0735203206373394,0.00143326909815731,-0.00945889314675363
-0.0319250579233338,0.0829378451753259,0.00192951756062441,-0.00919397166374059
-0.0670245384818311,0.0877787992667141,0.00275849098488516,-0.00348625169406935
-0.0964017944877555,0.0805973593654005,0.0013804736883992,0.00638135030798823
-0.111574311981213,0.0713261011306045,0.000832850239404754,0.0157402730033948
-0.112701248125634,0.0470609915747166,0.00256092796055743,0.0203747094006207
-0.100933571464227,-0.00986966179688804,0.00393162137048287,0.0185713413604689
-0.0649246659204281,-0.0544985911675799,0.00400156418485631,0.0125949172186184
-0.0175890274737665,-0.0397595765579071,0.00403948498532692,0.00682542065638094
0.0125242148218869,0.00161517284528123,0.00415282023889655,0.00402893140486739
0.0228076030225779,0.0211697156284419,0.00334039943596338,0.00426249637964135
0.0214352704073419,0.00917488565568995,0.00355208634339696,0.00606795689301514
0.00892332048240859,-0.0540840266625011,0.00545097620112144,0.00835914591858482
-0.00633206794694917,-0.156506605183417,0.00394491101101134,0.0107331779112885
-0.0113891436331713,-0.192734361803805,-0.0025894005087008,0.0118522146325634
-0.00256716140311797,-0.0869820338399033,-0.00937609058375001,0.00986424962614487
0.0104597432797187,0.056264413604462,-0.0141265318005815,0.00454782538227474
0.0178422745104145,0.0894912736531593,-0.0146143527490403,-0.0019460391889145
0.0248483780619043,0.0455809376356691,-0.00953434482307668,-0.00683569287565082
0.0419899828631376,0.013869749386714,-0.00278272878561652,-0.00920924543551761
0.0716105007531147,-0.0060135851088645,0.00265550455541232,-0.00981186638895533
0.0911675483232985,-0.0278048883276766,0.00623367313696488,-0.00912360940528337
0.073799851631412,-0.0281113188313802,0.009691192128228,-0.00680350658970172
0.042143627424897,0.0193436149482611,0.0131050922678207,-0.00242750438318397
0.0255842641121944,0.0674502890168941,0.0153645334060554,0.00391139848346823
0.0116488861347524,0.0424770508682371,0.0164533072948186,0.0100795599104239
-0.00959684761968561,-0.0224477744734783,0.0162466926480129,0.0116943791523288
-0.0249461666807655,-0.0569967858690809,0.0153136497880774,0.0050724922995349
-0.0237327927158772,-0.0629644516070089,0.0124293637939362,-0.0100129154792181
-0.0200328766428854,-0.0618150004720951,0.00751884849269334,-0.027516311042292
-0.0327315623348242,-0.0433378527181432,0.0039155923556436,-0.0391418558877255
-0.0535145405478764,-0.00385212582999853,0.00380925346416393,-0.0442549144777887
-0.0704990120972362,0.0275863472381053,0.00440520114881846,-0.0467870908674155
-0.0796204767636538,0.0233692614260765,0.00394937402330855,-0.0447071190055713
-0.0722745769498785,-0.0156563475892525,0.0057790675345572,-0.0327765689846943
-0.0566569293974627,-0.0595766809292717,0.00798145364936015,-0.0112948173183176
-0.0401033280145683,-0.0782054262536402,0.0049360491247125,0.0132674976722688
-0.00949481979844932,-0.0693421167651748,-0.00109229313835973,0.0346722184523247
0.0312750837028609,-0.0509089231882232,-0.00457971273500398,0.0524957255552456
0.0668403096317186,-0.0511362617056751,-0.00663871764359786,0.0672126133389405
0.104060506816941,-0.0965939883133464,-0.0102356077753051,0.0739048381578706
0.139440201904378,-0.159960023915298,-0.0122066486025335,0.0688954561089758
0.145631087058591,-0.168584558810823,-0.00990384440498481,0.057368927484902
0.121727695175341,-0.0958632310925525,-0.00430767223140359,0.0457071761295884
0.0939688443999569,0.0139288710890645,0.00351989423149554,0.0280987846782664
0.0771068744986832,0.0978194586876188,0.00981593196018051,-0.00991443233594676
0.0637158226118648,0.122217345952465,0.0117607549684327,-0.0698966457938171
0.0405876655401733,0.0998650921330727,0.0113845638310271,-0.127475462487448
0.010546144646823,0.0772012392622392,0.010108583383523,-0.1522125980857
-0.0138809981754694,0.0754144169510315,0.00674358410501252,-0.137151107544811
-0.0274776829636743,0.0633051226066499,0.0028931926713984,-0.0976034352780437
-0.0335341349841349,0.0213414630727054,0.00276175485629751,-0.0516911716916929
-0.0419798509126755,-0.0207246673390006,0.00465087252547226,-0.00919748811757529
-0.0588144087886655,-0.0415128473483366,0.00394400820714824,0.0336189397981919
-0.0738605983448755,-0.0510072455715589,0.00195059513735944,0.0876923419486165
-0.07015096962023,-0.0526671491068971,-0.000421273195864008,0.147446945805178
-0.0495571083543213,-0.0482284940529042,-0.00477619536852441,0.183843792944404
-0.0304380243854241,-0.0387159636421801,-0.00939392792881567,0.172643384430639
-0.00677474407699276,-0.025850795071743,-0.0126097633556728,0.118758065099293
0.0421512597827381,-0.00932075988874587,-0.0123463084536946,0.0472701290309492
0.100183907068778,0.0200964723295385,-0.00840041157362518,-0.0180927259038149
0.120447323569328,0.0466580685452765,-0.00581027039070774,-0.0630147362956553
0.0868783057218349,0.0579177570840964,-0.00629785397288114,-0.0820679830127463
0.038415180994505,0.0635271265824617,-0.00777200847979007,-0.078333107896615
0.0111927454187593,0.0573223454726088,-0.00808790574979219,-0.0602537092519935
0.00458047094290356,0.0416713710646353,-0.00688138277518063,-0.0366871326163785
0.0171601082298948,0.0321392608816187,-0.00580442341683452,-0.0131909528631137
0.0451025477957343,0.0182445156399475,-0.00566150400075416,0.0089253849088293
0.0593097465466969,-0.0216451765086231,-0.00440729528423852,0.0292521162721442
0.0453813909302359,-0.0671130258841751,-0.00092292941303121,0.0455065934382683
0.0223909974320089,-0.0682156278562988,0.00108146380076641,0.0544611225819457
0.00383543000916006,-0.0288284652275009,0.000996357310209134,0.0542615380899681
-0.0117101429737374,-0.00212338911225975,0.001659508429159,0.046695161791822
-0.0239586404667655,-0.00715661649596866,0.00403126265815982,0.0352819836870845
-0.0261574794991782,-0.023453007992037,0.00833880980966674,0.0212449432126533
-0.0154670610603059,-0.0278846353517418,0.0130478512131202,0.0046601304009018
-0.00536622736416194,-0.016580398397988,0.0141146160675149,-0.0112874713748712
-0.019344357692899,0.00419569608867718,0.011914328613198,-0.0210468424323034
-0.0620594636194082,0.0475470108271504,0.0112554097566523,-0.0218121358161962
-0.10474954911767,0.120946379359374,0.0104980660276438,-0.015640205620743
-0.122978583562636,0.198936554211372,0.00658783872358317,-0.00821730511002585
-0.121142277116791,0.248649295575033,0.00325977744710436,-0.00598094042669867
-0.110409765811308,0.257412172211821,0.0030789106643676,-0.0108835300634444
-0.0936039808189271,0.23493645159979,0.00167249085562855,-0.01767374455749
-0.0733303826760988,0.195606842784752,-0.00297476212341114,-0.0188536842589557
-0.0572315097462733,0.124874939578304,-0.00480263896288472,-0.0125466562466749
-0.0483368940475964,-0.0118742865081602,-0.0020883312822878,-0.00395003718720893
-0.034346634690404,-0.187127162390993,-0.00121679797557303,0.000995408460772611
-0.00128529686561817,-0.270943631263428,-0.00539113193158067,0.000582002032690081
0.0454781870619048,-0.198291466899269,-0.00913640040750633,-0.00400467001110528
0.0899041847727644,-0.103867128123065,-0.00702447531289002,-0.010832123044487
0.110658494641132,-0.109909788188797,-0.00191757523344721,-0.0176647551227827
0.0973806114645027,-0.160057739118815,0.00160129270056236,-0.0227283986529311
0.0680340130683815,-0.154360404031928,0.0014043385706016,-0.025899702006233
0.0354727481808107,-0.0711791537017483,-0.00207890965368978,-0.0283108794337458
0.00365662127190504,0.0379872793467273,-0.0056459443282793,-0.0301168532822717
-0.0141273664819451,0.0999274218420105,-0.00617369869551325,-0.0305918551562706
-0.0121149773907566,0.100924630415288,-0.00301665204588212,-0.0299313561331206
0.000909924863687434,0.104682649795417,-5.116793118062e-05,-0.0289429906000093
0.0115391861403747,0.131350401371292,0.000416904017355762,-0.0281649213866118
0.0136525496484681,0.131163574154412,-4.84660196833769e-05,-0.027278681940292
0.0250454002612029,0.0956447448979968,-0.00109898220665095,-0.0251382993884333
0.0558050997511847,0.0538566477964985,-0.0030257870805277,-0.0215732977407039
0.0688235319933311,0.00257957404754874,-0.00540430382145405,-0.0169984728753626
0.0423272598298503,-0.067570575473086,-0.00687238585384478,-0.0111253211332912
0.0108098423224924,-0.121502134460288,-0.00501242263084735,-0.00450735791914684
0.00525003731580959,-0.128441371695731,-0.000356728098345674,0.00139877499013751
0.0203423209233452,-0.107369212993811,0.00127214969043893,0.00610631275971555
0.0435329889222358,-0.0848508534788298,-0.00117128587639599,0.0106267442223456
0.0657064070359883,-0.0679448592230437,-0.00262365955457568,0.0151995449731122
0.0706660138684063,-0.0626094687326229,-0.0032854571896473,0.0166735309581899
0.0513559370064329,-0.0734649878689436,-0.00721968806508763,0.0104770242829975
0.0281541857584086,-0.0962724771519681,-0.0132967788797899,-0.00475008152811021
0.0202895888582419,-0.124117204890418,-0.0182023194139954,-0.0236069946663324
0.0216037519156999,-0.134152923663007,-0.0217777239146299,-0.0361657198245941
0.0309485010378434,-0.0938958022621122,-0.0239192187521112,-0.0374797173810557
0.0388681797934044,-0.00450073341498324,-0.0237123047194961,-0.0302547758348806
0.0119850676403227,0.0665340239511632,-0.0218065963774785,-0.018277618557703
-0.0414363626252499,0.0649979210599142,-0.020213251027985,-0.00436730388755784
-0.0590443639102496,0.0312102929917314,-0.0192266651966553,0.00834247805798612
-0.0109908098282668,0.0067058097544387,-0.0177760359575077,0.017386471696265
0.0600185732756311,-0.000301837185735773,-0.0152052039149922,0.0220417168123694
0.107427779188019,0.0197426719264087,-0.0111086544562386,0.023202645005598
0.120329828463348,0.0338137408887484,-0.00739680561235631,0.0226511322328777
0.106230411569285,0.00441006093612212,-0.00587348945552601,0.0217186969698837
0.081170254216714,-0.0411814380509617,-0.00428186429372886,0.0204448435688279
0.0533314051427701,-0.0628431771187263,-0.00110052345850188,0.0186446105581199
0.0239378118452132,-0.0616885193199716,0.00151694261603578,0.0168373539057216
-0.00227432855800947,-0.0557489343894855,0.00389671061878024,0.0153253268009053
-0.0251418534105328,-0.0526181975196936,0.00756649492552877,0.0139113170259472
-0.0445977254328849,-0.0479709404456163,0.0100872281142789,0.0129392340681349
-0.0540370994091306,-0.0316364937178078,0.0103688957507428,0.0123578495905891
-0.0543273958671747,-0.00590385582692749,0.00987204620186633,0.0108033144043094
-0.0522901521318465,0.0103132935431755,0.00941200360780431,0.0076849583191779
-0.0522184063817682,0.0215992907800745,0.00975254871561019,0.00453677320505797
-0.0573874996365708,0.0515053290888394,0.0110207864217292,0.00302966934881703
-0.0791293608496011,0.0843769087419109,0.00961330483034535,0.00305320067482517
-0.121960973425394,0.0902670804762324,0.0026882678294599,0.00394985107289027
-0.154780063125725,0.0918653089487287,-0.008055062648762,0.00559255836893301
-0.146943046677243,0.113889981486263,-0.0181353975095285,0.00756755035485056
-0.112036512994831,0.132281368744412,-0.0224204630170237,0.00930305068977815
-0.0798803934867565,0.133420624862839,-0.019495507855391,0.0105515319078006
-0.0607034703212651,0.110658185605763,-0.01222581327708,0.0109949906791412
-0.0434275777086037,0.0441825523366854,-0.00448882767813515,0.0106691439400296
-0.0211159300947493,-0.025094361998411,0.00159801361300275,0.00979667943542331
0.000562914158404246,-0.0290306571599688,0.00373210754834467,0.00737022901147205
0.0190982727950597,0.0211628965690248,0.00229190905777621,0.00251871226437619
0.0369183084989974,0.086691516796595,5.28894694992472e-06,-0.00298728801575477
0.0478832616344661,0.120827932852304,-0.00180789736868814,-0.00587238067473682
0.036489069604349,0.0870254571689274,-0.00122730183895603,-0.00507859651327769
0.00763518012579789,0.0317905434169464,0.00130066510706109,-0.00348925660585423
-0.018490105159541,-0.0126935174182473,0.00207065359525523,-0.00470286775206848
-0.0320634722901143,-0.0384066256141727,0.00105979278176156,-0.00885855554624056
-0.0398532906741976,-0.0116343574239914,0.00203089198837719,-0.0129140639545086
-0.0536606503592546,0.0414501333576399,0.00342440463008822,-0.0139261285116657
-0.0757203023148863,0.0591853445970129,0.000756857590306477,-0.0113030375323172
-0.0937579998101785,0.0461292060960099,-0.00291269569994115,-0.00643023018449225
-0.0910981720191508,0.0438776000943698,-0.00243424549294627,-0.00104033099732166
-0.0689240123484528,0.0625806021818981,0.00121767944476417,0.00392441894284933
-0.0398173376696135,0.0794825968885402,0.0038303002995499,0.00714500540385985
-0.0104567077319436,0.0769878350081807,0.00255391756102875,0.00696807736487694
0.0134259957722866,0.0660098031118713,0.000605013001080412,0.00532379384388748
0.0346903931038441,0.0564421822934132,0.00112991865493216,0.0054036881424735
0.0636433702313277,0.0318973744264421,0.000706099313444086,0.00618778211355582
0.0989836353390669,-0.0588443180892926,-0.00442675979901952,0.00482925975511304
0.129522371472914,-0.204848209772967,-0.0122757751030518,0.000893834357566958
0.133569762952095,-0.26083241168142,-0.0153005441003696,-0.00351363842855292
0.0957092392899077,-0.162172818171032,-0.0121349023996565,-0.00641142422473066
0.0342033064430002,-0.0400723897214674,-0.0101331291865382,-0.00716518664886313
-0.0122091317304813,0.00681999037542119,-0.0112343692548097,-0.00547051588222132
-0.0257477336999783,0.0171949485091656,-0.0108436178929741,-0.00173507163974669
-0.0219803200010732,0.0319437365154546,-0.00658601159128682,0.00217409371913743
-0.0220493454337672,0.0450015389926499,-0.00189200098201168,0.00579788329237532
-0.0247534775481831,0.0569670531372954,-0.00149774356426638,0.011153774169316
-0.0139356186817407,0.0718373547089892,-0.00373927896797104,0.0173681575558447
0.0141757783463435,0.0627345812143435,-0.00460143392768137,0.0197874530092797
0.0409767410111361,0.0151701156832834,-0.00382894420754211,0.0144094575543662
0.0469615421923092,-0.0375560835889977,-0.00223659348208913,0.000217576873270991
0.0367624491433376,-0.0716477733355719,-0.000383233249764212,-0.0177241789609109
0.0280606817721818,-0.089151444110225,0.00177332457084706,-0.0300553744461988
0.0267347504716439,-0.0864390453228378,0.0026972308116443,-0.031684613778265
0.0222112869796005,-0.0691647282004514,0.00160252120215122,-0.024883007706753
0.00383992856263884,-0.0573814636088609,0.00171713048559437,-0.0152954321180922
-0.0198431242634853,-0.0576466157426762,0.00343752856806627,-0.00765835813660749
-0.0315805809313973,-0.059745280364946,0.00569016321651928,-0.00344545876454124
-0.0259934219740601,-0.0599315422497146,0.00805821242840096,-0.000560417980609396
-0.00963483864281474,-0.0623821012954995,0.00953900577422593,0.00457304505720033
0.00612171793131909,-0.068477787513263,0.00938501879498626,0.0145650727338194
0.0149689553288586,-0.0635575241030665,0.00766430964158087,0.0296743744786366
0.0161028802248534,-0.0288201686442373,0.00663218113572494,0.0461270263564709
0.00985958301917657,0.00868217496123953,0.00648790940137005,0.0541965508061839
0.00211707319446922,0.00660924974041013,0.00447006232837496,0.0429158384286212
0.006968727650869,-0.02300762293366,0.000112391104235169,0.0138277677734504
0.0280732155788305,-0.0334043164045244,-0.00500718983652917,-0.0167781093449643
0.0456765848063808,-0.0140697885342657,-0.0102329338607817,-0.0348358572729183
0.0450562658659174,-0.000404365001537546,-0.0135745709671632,-0.0367885415603253
0.033311204346776,0.00137365044604792,-0.0141846047330366,-0.0230527534191522
0.0163306952674238,0.00794033710112598,-0.0136736909607655,0.00130087372674095
-0.00129680366623686,0.00159426942860284,-0.00989614093565427,0.0237707774008149
-0.0134367651152326,-0.0212600141311971,-0.00156703444748046,0.0320896035175177
-0.0263294989491556,-0.0323110669463873,0.00737091378105406,0.0220325764168147
-0.0416621517587829,-0.0164777731628079,0.0137418273114534,0.000124426808557211
-0.0441526112282655,0.0146072073878577,0.016614243400329,-0.0201994596336955
-0.0261779053879761,0.0374449022935234,0.0145732871662203,-0.0302450304771768
-0.00210222369928692,0.0508290371067779,0.00625344076946267,-0.0314253212329877
0.0134330803318906,0.0539146680354484,-0.0035438953684847,-0.0285741699575141
0.02156499175093,0.0385690071965926,-0.00816919098147803,-0.0235368638355145
0.0285881599293143,0.0253151927007234,-0.00738426934092774,-0.0151013865513233
0.0319272837272286,0.022531121380417,-0.00458427613205546,0.000251504028553749
0.0214902747399441,0.0172215712251352,-0.00227423365346647,0.0257554898569512
-0.00118205894961397,0.0118068138717438,0.000618754685552603,0.0534857124051101
-0.0208377148371929,0.0116201277945982,0.00478122149026734,0.0634211439004497
-0.0336557123666623,0.0130676903675131,0.0077161193407052,0.0445581473240268
-0.0492539692608919,0.00994201422321029,0.00804862524678712,0.00632782422947858
-0.0705080105302504,-0.00106879719413846,0.00664988236714766,-0.03265846119174
-0.0806245817147506,-0.0251343479745413,0.00356014951815799,-0.0567989727324614
-0.0634165103927273,-0.0534669130595946,2.42013593212409e-05,-0.0582622436860013
-0.032722588258518,-0.0569818652162678,-0.000350967510139777,-0.0387765746671371
-0.0088646065995035,-0.0284157950844338,0.00194279183298523,-0.0110972517793286
0.0155254803395955,0.00844723727785315,0.00407554054063134,0.00925364832565875
0.0561241571071305,0.0257501680825894,0.00452978527989074,0.0183972955625334
0.0999471038593437,0.0302632884740122,0.00245620355132157,0.0237064615101263
0.123976119528255,0.055462704078417,0.000362281854913087,0.0296888446068369
0.122050607018767,0.0743853539512485,0.000753341377723581,0.026529950868114
0.0965435314628882,0.0374826112885126,0.00236857458283566,0.000864466324132736
0.0506451453928623,-0.0118921387735813,0.000878644230746501,-0.0377578226838474
-0.00888379256892426,-0.0148143488195414,-0.00413445994858903,-0.0606099033959664
-0.0641976016700563,0.00970097105247503,-0.00836468566700779,-0.0539453454990624
-0.0946037417121046,0.0279454761172559,-0.00870093782899214,-0.0327606066461109
-0.0978065430540399,0.0335884610763383,-0.00369370592093966,-0.0202378701406995
-0.0894927755963625,0.0265190546278191,0.00277221401211289,-0.0181912978341823
-0.0718597459401178,0.00934691469178015,0.00552521008793893,-0.00263117123244336
-0.0461359588173033,-0.00819180636585218,0.00638950590821222,0.042926223002711
-0.0314232943407624,-0.0201252387049436,0.00936855397710379,0.0974218147037853
-0.0236091487344452,-0.0320269035063895,0.0123349661341168,0.12081641165703
0.00391663807160377,-0.0510441423802505,0.0118702890920842,0.0965175839996125
0.0599716494838576,-0.0635317595553343,0.0101724166442662,0.0418196374477595
0.127604758086664,-0.0243922339689489,0.00838062257650093,-0.0139303230203677
0.15930094838352,0.0394933414866379,0.00477513318107064,-0.0497609328004666
0.121528177353117,0.0128024853263562,8.48754730697438e-05,-0.0605513862136727
0.0580400925056535,-0.0787118781511238,-0.00201045972678363,-0.052794382660487
0.0231450028429014,-0.0983760284701266,0.00133717782212616,-0.0360798510294848
0.00892191406694989,-0.0340815707067392,0.00606257974917114,-0.0188356702959879
-0.0027952966012369,0.0360523920659822,0.00733756608445742,-0.00605732016436464
-0.00295678518117187,0.0683940752054761,0.00651498209968656,0.0015667289990603
0.0153016712952562,0.0800833318104102,0.0049826021097551,0.00537849880726206
0.0344533423845359,0.102506697650418,0.00150468929024145,0.00659958409547297
0.0339881884049513,0.121070483143001,-0.00302784116367261,0.0067697723081556
0.0163797698146702,0.0990352649157716,-0.00443548463812562,0.00610886141806198
-0.00332596819580289,0.0482287375420412,-0.000393685095642774,0.00308296758561374
0.00164250906985144,0.0164885320371993,0.00478145415828544,0.000620171779383213
0.0334462849011757,0.0194926412700021,0.00662697516113909,0.00515096338283425
0.0448459840331959,0.0527275259670354,0.00603380631931493,0.0158291857888124
0.0121512956952276,0.116476139322871,0.00653184943665793,0.0232479520835033
-0.0289465253919668,0.162268314763662,0.0107739547759374,0.0214014945260114
-0.042772671896394,0.137695422369134,0.0149250219552635,0.0155896311832778
