-0.0113246578343051,-0.00368227588437386,-0.00895085532151767,0.00673269548772135
-0.0104519481624639,-0.00839571163002448,-0.00738028451661121,0.00452437167565796
-0.0140405610570651,-0.0173254610503767,-0.00462896458393466,0.00219787402016229
-0.0167997092646118,-0.0290798286643115,-0.00498799287419878,-0.00197152028871274
-0.0109007296086054,-0.0235201654614228,-0.00468569389194905,-0.00962627184945276
0.00175324146282815,-0.00124761402540823,1.23432216900645e-05,-0.0157951133146189
0.0100611504949554,0.000160940387829191,0.000468165988296341,-0.012132496186966
0.00943971677667503,-0.0252668294898719,-0.00504452588649646,0.00147803229763088
0.00355986797615226,-0.0488385060664156,-0.00963234920614376,0.015968880466211
-0.000456511305854789,-0.0511779334014495,-0.0102164813407686,0.0231785459635894
0.00122842234764666,-0.0234521092372968,-0.00567772971438297,0.0212854989133067
0.00397955818689765,0.0173607939634692,0.0024101645995439,0.0128554053701276
0.00510980665137553,0.0432331942822656,0.00912971298305262,0.00189922167156987
0.00668264613565523,0.0524710685717663,0.00992259767294142,-0.00771895644392293
0.00801518301454313,0.0593082217895049,0.0041671571103307,-0.0134581925931434
0.00731782993826634,0.0688993633252397,-0.00315574787797057,-0.0146413401956669
0.00466708061622971,0.0720381659900258,-0.00770919613263289,-0.0120982940007194
0.00304531549030801,0.0641485028405714,-0.00873117716996385,-0.00801717101149942
0.000814905267544449,0.0532062638364589,-0.00531840922816185,-0.00513692445565051
-0.0104568079771035,0.0429707768886893,-0.000510048271734084,-0.00474087149810014
-0.0256308868925415,0.0323256424002057,-0.000335418012274171,-0.00609229625229526
-0.0339883510527545,0.0211321687379013,-0.00269022331974011,-0.00783975762938295
-0.0357726981126243,0.012997317160378,-0.00283615649661361,-0.00916577380166981
-0.030449823777476,0.01091311015102,-0.00165398288834839,-0.00984715435260618
-0.0199564133920991,0.00825069157855222,1.56588600564544e-05,-0.00981382938641311
-0.00619396614782791,-0.00317047055945812,0.000989790381880334,-0.00901417901578445
0.0112501931060743,-0.0209254673807509,0.00194410492324364,-0.00746769612978994
0.0254452622600934,-0.0257653341238271,0.00582707381804628,-0.0051044094836889
0.0332044597610696,-0.00237066993909264,0.0123613503624768,-0.00201242100222607
0.0384345071911231,0.0335471667939802,0.0226408348103424,0.00123843984277578
0.0437575383699116,0.0629660279802648,0.0353652320745064,0.0037195772153601
0.0450226519127604,0.0881182544430606,0.043108461073794,0.00516654068386877
0.0343062025115655,0.0986413323617707,0.0430503423414413,0.00651620386153577
0.0138770273727061,0.0703534006637363,0.03552278274763,0.00798119176209802
-0.0069142972252314,0.0172176392751608,0.0208133423535808,0.00782582942688839
-0.0289942167749871,-0.0300061543837437,0.00573597709180321,0.00454050749131061
-0.0535298516638674,-0.0580567786118751,-0.00186021916564919,-0.000756489941310638
-0.0661706700703413,-0.0463989789352828,0.000182327389862187,-0.00549147630795094
-0.0563019899460472,-0.0132462677599525,0.00823345392827277,-0.00810877986169202
-0.0297567196972374,-0.00959388673624965,0.0148229836328114,-0.00859997803822556
-0.00357329915291672,-0.0204806511838455,0.0138305621450879,-0.00753372670612735
0.00896372771043742,-0.0189453985602588,0.00568112420744542,-0.00484931336762262
0.0126439847223754,-0.0250579568619397,0.00096233365194897,-0.00032120406796483
0.0172115474211182,-0.0255789173858564,0.00541081565215378,0.00483729015006067
0.0306704837139512,-0.0025650413987185,0.012360402773926,0.00844599071445181
0.0533409803536785,0.0123405304184808,0.0162838118532473,0.0091876182655561
0.0667052241981799,0.0141609194981316,0.016353640917025,0.00724398695700277
0.0548378947469163,0.0312607357524481,0.0154199614744684,0.00408200019274494
0.021927177136075,0.0619757375081502,0.0175214701546123,0.0015230128171004
-0.0135199017275551,0.073920958084716,0.0219847418542435,0.000604218521250515
-0.0253607318342551,0.0501906588281281,0.0232178538998526,0.000927255056947646
-0.0100601699661673,0.000620613981891803,0.0187418199298759,0.000100550756880245
0.00748798741729072,-0.0594602654089922,0.0104827806004311,-0.00415173536181029
0.0183169647300491,-0.0907392508515223,0.00287243364319948,-0.00911643446130325
0.0263998142729133,-0.0620765803309523,0.0017783048997322,-0.00822892754628071
0.0247134555281289,-0.0141090772616385,0.00609740382700218,0.00096807175680054
0.0148187967715015,0.00614980843777529,0.00895157277124351,0.0134688030505804
0.00923445175047798,0.0132331926944459,0.00785333434368516,0.0216984280900405
0.00998215560043112,0.0244320000871326,0.00660447411237319,0.0218177053034603
0.00999156976833674,0.0242120697968791,0.0081606730568937,0.0150203099993898
0.00323411368766748,0.00870367407134588,0.013249775826044,0.00526163573198448
-0.00874341058783139,-0.00138295388114412,0.0221987154752231,-0.00294890776366238
-0.013823937603785,0.0100571165794249,0.0305156884320785,-0.00695650931333482
-0.00355104235119614,0.0396009187426575,0.0333035987252465,-0.00642669909762203
0.015439398402342,0.0650709947741517,0.0323317994287035,-0.00247429127020585
0.0315899564257252,0.063608124702607,0.0312673270778668,0.00206906430552771
0.0370842588848914,0.045515190272839,0.0320913191168196,0.00451179081894238
0.0297000422163934,0.0469688279506277,0.0358308099091066,0.00458984428142864
0.0162576504929367,0.0708497566815898,0.0395855054501295,0.00338507365305071
0.00631238339873545,0.081407314491589,0.0396457615472703,0.00163368250445565
0.00468237233885172,0.0639826100920397,0.0364286300854203,-0.00018900045340527
0.0102586850713296,0.034125952209546,0.0280342890665874,-0.00157822571242186
0.0187796409575676,-0.00891520801928064,0.0117590851785373,-0.00242164027198761
0.0278991173802175,-0.0841899172740114,-0.00971948856265487,-0.0028946705734702
0.0329761817719205,-0.185752371076839,-0.0301917314886205,-0.00301187990125067
0.0262755605823479,-0.248865218126418,-0.0404974325814781,-0.00274056186759038
0.0117510732470825,-0.192147310457882,-0.0337764224476051,-0.00223958864176199
4.19507968596813e-06,-0.0446009484699181,-0.0161332014710418,-0.00148316476464248
-0.00374472956288325,0.0763059799061152,-0.0038652771442572,-0.000250420123091265
0.00126162384413234,0.12470478599809,0.00042699138700935,0.00121042152664514
0.00320544808913019,0.129102896767347,0.00671872611823779,0.00192610652061809
-0.0114281631845839,0.100917297873046,0.0114943778747896,0.00108362715497472
-0.0350524649763621,0.0333766712162877,0.00986389081108222,-0.000874634277090931
-0.0546675941200068,-0.0451758483699534,0.00908471937223527,-0.00292240799362757
-0.068300173727638,-0.0788071479938429,0.0150867041373297,-0.00439983887351398
-0.0706032713221394,-0.052063088180653,0.0264693876585486,-0.00479455595226657
-0.0543404154404416,-0.000638878002241466,0.0335950804168479,-0.00381698255599342
-0.0247050522779482,0.0360265196911741,0.0304667117616837,-0.0019619457672198
0.000582240465127518,0.0302320729098505,0.0217048384883563,-2.93003524547801e-05
0.00885129702736599,-0.0310855635726074,0.0119933365532329,0.00136154433101827
0.0117992455092574,-0.0877117498459804,0.00670564099765862,0.00168405850605197
0.0314726314479652,-0.0397070770958622,0.00770565898282419,0.00115196294837212
0.0654657517376102,0.0723002129345896,0.00832594476304438,0.000603590452107831
0.0877735440712195,0.108409857382969,0.00410283127085347,0.000297141241272869
0.0763676228415445,0.0526952694259284,-0.00186435536010757,-7.87806041477766e-05
0.0354623471745042,-0.0207503369068318,-0.00595393059206596,-0.000712556655020426
-0.0056776075484222,-0.0755885095877229,-0.0110044268908266,-0.00167542603919733
-0.0276636370326477,-0.092182606144479,-0.0172052944373767,-0.00263420527002824
-0.0351284951617139,-0.0706164408265644,-0.0186494724909781,-0.00292167059137749
-0.0375416011613899,-0.0446579511177049,-0.0152353648801676,-0.00230071844775004
-0.0399156373087812,-0.0310326929048698,-0.0124472364391169,-0.00113707719350416
-0.0433255740707947,-0.0208374098495307,-0.0128893672135113,-9.27843310440106e-05
-0.0449473045498194,-0.00676506397249426,-0.012774240532374,0.000131887315523867
-0.0430787308504664,0.00781079241414692,-0.0077209295311948,-0.000491272561825662
-0.0384459537616188,0.017003552016706,-0.000508432853198376,-0.000974547039983527
-0.031971426104302,0.0220588327402478,0.0019973803548254,-0.000753372425773106
-0.0258629633399853,0.023901395920923,-0.000465672571777116,-0.000269277779130539
-0.0209128214485785,0.0125707006596567,-0.00232107138073278,0.000235833197722411
-0.0138253796795893,-0.0298357083753576,-0.00296911850942833,0.000800471643249309
-0.00512188522507782,-0.0738403802766417,-0.00217511957584155,0.00127406850598719
0.00255659866696785,-0.0673478496535582,0.00118813160856659,0.00157537816359075
0.0105575032476157,-0.0472445447105865,0.00350948002420389,0.00183572057696114
0.0205076587969146,-0.0796265566517147,0.00145292647917993,0.0022424990545525
0.0229512712605182,-0.128637238321839,-0.0022259017088201,0.00267508928059095
0.00118696040120773,-0.107432550263999,-0.00140604829847668,0.00269469321873332
-0.0297800773080699,-0.0235529031598942,0.00346461456811845,0.00198583922509884
-0.0424154595851265,0.0462597500921583,0.00839524708667084,0.000919366134547348
-0.0387118483950103,0.0936203031436495,0.0127332361260567,0.000451825353890629
-0.0275725646276402,0.169176323198995,0.0187792606397966,0.000860473509577365
-0.0121662682319898,0.24535262611505,0.0267775037385881,0.00152552630706431
0.00867187058184386,0.226768457251802,0.0285082495988335,0.00160901853852363
0.0354060313446522,0.138123755152627,0.0153723271160476,0.000559285620267959
0.0479334877165595,0.0987414167658694,-0.005232161627396,-0.00145396786708756
0.0394276416034499,0.14054737123421,-0.0117750903098469,-0.00357843846353077
0.0410773192617816,0.173742361705257,-0.00180872986203568,-0.00423299733871904
0.0498443191300579,0.118367651652056,0.00737608270597406,-0.00272013484010114
0.0288281841660046,0.0196033705197284,0.01228367724401,-0.000498527798448962
-0.00595984562279375,-0.0931226007885977,0.0129252592698114,0.000665877897229973
-0.0183390804227857,-0.218305301495171,0.00229480991186494,0.000311342842977837
-0.0120865448160736,-0.285529366416605,-0.0174975130705486,-0.000863088576060821
-0.00667403467252704,-0.269184744539804,-0.0326804872238587,-0.00187105257356178
-0.0142146456874102,-0.193490125880951,-0.0308824679945121,-0.00207697701393564
-0.0271962239925547,-0.0863352322727191,-0.0149660544657164,-0.00143293574491721
-0.0296765493851412,0.00958044649977341,0.000866074384987675,-0.000524907109449671
-0.0230677778582379,0.0696583680735895,0.00828924490379192,0.000159415910041261
-0.0185298652204854,0.0975846301626805,0.0107321309128964,0.000733122423057097
-0.0169583804525865,0.103327706423773,0.0124832552181425,0.00121171167308999
-0.0122973431007683,0.0948900675592797,0.0121085980455011,0.0012759898834738
-0.00453339960468003,0.0798504102398059,0.00877334940115561,0.00100352386972918
0.000112748329631415,0.058952998790963,0.0048760649631858,0.00068119607568964
0.000624540246826864,0.0338526552302782,0.00121780562710923,0.000243101871952191
0.00348634188574446,0.0142604728644272,-1.41732273493955e-05,4.61749374207885e-06
0.00808953526546878,-0.000218027365034876,0.00140350206212382,0.000525072608906776
0.0119549898927782,-0.030412528299691,-0.00116399692436919,0.00122174708872933
0.0161259793012576,-0.086392398775329,-0.00846547754548767,0.000819186602438861
0.0162683193309454,-0.118687555313635,-0.0128241063741831,-0.000910188027913318
0.0120344555337883,-0.0750466555714721,-0.0105568130614708,-0.00295585052193729
0.00937954932361132,8.64339145997678e-05,-0.00716712371226817,-0.00404894057979451
0.00616134880491077,0.0374211284166243,-0.00769011216468038,-0.00359022205510761
0.00321011487692618,0.0344365477866398,-0.00944215434691419,-0.0021433961716541
0.00899369741596649,0.0157405714366627,-0.00978007297149183,-0.00051252623280867
0.0204500179139731,-0.0210568073421863,-0.0114578611491126,0.000980309404669295
0.028781336930375,-0.0774736545176335,-0.0162782461647342,0.00196525506603891
0.0307112287631839,-0.115960217233211,-0.018512348495894,0.00240845264437151
0.026743898555925,-0.118591268398483,-0.0134847334246746,0.00271482057349203
0.0194919025390109,-0.106226419112939,-0.00626091804423934,0.00293323139240799
0.0123780699615563,-0.0899258397533425,-0.000479636274229829,0.00278677434216661
0.00449340687730319,-0.0701932250241336,0.00229155947378101,0.0021775270606242
-0.00730554097386155,-0.0405700384844668,-0.000978699007745098,0.00124254367281187
-0.0180745130122063,0.0124780627478954,-0.00133730352618939,7.18861539748448e-05
-0.0246473822886724,0.0680803433951671,0.00643614978880642,-0.000808145297402973
-0.033201423017305,0.0715035300960045,0.0120108236325536,-0.000958772919128396
-0.0443514906871714,0.00746273563408702,0.0112568323414561,-0.000833701906052413
-0.0497660335277842,-0.0665920112505323,0.00531044587109842,-0.000814371123937923
-0.0447129739966759,-0.0832799145270937,-0.0053208719980236,-0.000751557481326196
-0.0303210812357322,-0.0561374123287819,-0.0156886339822003,-0.00060246957788223
-0.0113339755232495,-0.0419682257935205,-0.0228554052564613,-0.000575385912532248
0.00633211030524622,-0.0378833115515713,-0.0272432200675125,-0.000665524652136067
0.0201886830200802,-0.0130602532730196,-0.0273205602254196,-0.000580439818526365
0.0285022684817291,0.0225702729489232,-0.0220844308367099,-2.42935847265602e-05
0.0318690383607471,0.0441062931331854,-0.0143944605572149,0.000873109743370463
0.0326816142861276,0.0476528896599204,-0.0078089585925664,0.00166858933071535
0.0288610551888083,0.0461997415418938,-0.00151831259381494,0.00206037031979758
0.0227186694238681,0.0451277549475314,0.00547373062887013,0.00177608552622793
0.0214788303979057,0.036977170394011,0.00920916069197044,0.000989881935967686
0.0225934819375995,0.0246529333377822,0.00915926141387699,0.00034362060646659
0.0185875739125741,0.0177664047816404,0.0086099911239431,-2.51275944088347e-05
0.0059168584935354,0.0124746373836477,0.00755558313928581,-0.000335019425957677
-0.0182122836554082,-0.00587773969799865,0.00348041609310709,-0.000620361388015577
-0.0439276665946222,-0.0288367363222507,-0.00162817457137256,-0.000854279096693395
-0.0500649976080493,-0.0373635140310422,-2.60832819228137e-05,-0.00112317706244316
-0.0368204423722944,-0.0426519973361517,0.00665954757901251,-0.00134592240159599
-0.0230461463023054,-0.0345240129961349,0.0125817905689353,-0.00127331446657467
-0.0187125855603871,0.0147137864178923,0.0191831122650958,-0.0010526045393668
-0.0225039198371918,0.0754765766225967,0.025016367496091,-0.000756105903995308
-0.0300943284020331,0.104077712447009,0.0270753546934334,-0.000218711601900837
-0.0364810434153681,0.101759729130226,0.0274261117775411,0.000607855292349731
-0.0434622894627942,0.0901397932298327,0.0280282604529602,0.00172712374749638
-0.0546785208536141,0.0732543411043804,0.0282526264228634,0.00258645244959536
-0.0682234437164491,0.03151622252241,0.0257184568715367,0.00265296612423099
-0.0816688687592321,-0.0411155928649032,0.0185643179713632,0.00231903002467599
-0.0838637742660731,-0.0930743185352877,0.00733226408606877,0.00184431704764548
-0.0662495836182855,-0.0690614664504903,-0.0107860862275724,0.000891631081233654
-0.0363702936442039,-0.0328210294684656,-0.0356840335385272,-0.000564853932282385
-0.00730518284739827,-0.0701447060346676,-0.0572032407960685,-0.00237345155453793
0.0163585101960331,-0.10860304309152,-0.0632119754961627,-0.00453917125029032
0.0366957071723479,-0.0611004074282934,-0.048701733654347,-0.0063655733539207
0.0506436666926838,0.0125293598761193,-0.0226514915962353,-0.00668392373027105
0.0550877635740295,0.0421015589720271,0.00168466933110802,-0.00661523699774912
0.0502333352394911,0.0561990883102573,0.0204122102232867,-0.00900413917563391
0.0449273097059131,0.0951620436147516,0.0334250728508631,-0.0127506289857532
0.0446004810325425,0.124493549110647,0.0363157119954646,-0.0131698352454767
0.0336583879010468,0.0906075550855625,0.0291395726912511,-0.00876040170096405
0.000941360436409702,0.0336780047710026,0.0207782257909717,-0.00219902917667048
-0.0388995025829777,0.0382229108479069,0.0175309338047839,0.00355613872271222
-0.0630203603827372,0.0932547211196415,0.0187883000426609,0.00730816584022869
-0.0649372027545146,0.124275362567083,0.0207011963029037,0.00952275454268601
-0.0553434716857006,0.109803214464375,0.0186098661058782,0.0113793378052064
-0.0425199113276945,0.0637967184189717,0.0110978592444582,0.0134652652973529
-0.0250121564978525,-0.0202229102109437,-0.00358061051258775,0.0150820203091018
-0.00680984352294985,-0.136710814856467,-0.0235454065311907,0.0154785221998049
0.00275329539437711,-0.22674238424262,-0.0358536982133688,0.0149762811364991
0.00501938094726434,-0.221987532256261,-0.0350117989832239,0.0139557409489263
0.00659852734411733,-0.134629029789543,-0.0277911556498552,0.0115833283127057
0.00718974061959042,-0.0468872355484275,-0.0168251012823402,0.00631467225709274
0.00937173418354702,-0.0104830262396576,-0.00448238849955614,-0.00271126938137463
0.0174388446625391,-0.00918963676873605,0.00128875860338584,-0.0142071408414003
0.0259643057683067,4.77957516484689e-05,8.74065351051806e-05,-0.0249150608924672
0.0298247698873056,0.0279638939925277,-0.00120211602144175,-0.0313631453179635
0.0300945917668832,0.0474062975038765,-0.00247214908411824,-0.0303444992875222
0.0304265867492535,0.0449212536159986,-0.00806115546285034,-0.0209132460722208
0.031742621785061,0.0288095015638286,-0.0137360571669473,-0.00718892842921886
0.0303379556753561,0.00827605443795223,-0.0142331144854408,0.00466924866286707
0.0266176454265562,-0.00535745260577592,-0.0127581717154998,0.0114734433867445
0.0258813552500253,-0.00633830669331854,-0.0122976266269453,0.0133809590625257
0.0278587824306609,-0.00183854605855631,-0.0133069869796122,0.0117117485166561
0.028448026906764,0.00105938349039462,-0.0152135574329463,0.0081808351215626
0.0295566327489734,0.00286177515596915,-0.017402420086152,0.00534064646462204
0.0310009930586114,0.00289333620905042,-0.0182224244728499,0.00456025524389455
0.0285357664484858,0.000248899213460164,-0.0164147186093794,0.00522722437354302
0.0223860928091973,-0.000544921672573982,-0.0135136594603319,0.00777840906687125
0.0146831739917102,-0.00254223409635524,-0.0113583954529761,0.0120622914419533
0.00762213638920814,-0.0128981910425468,-0.0113666069165213,0.014109589890744
0.00498236714091798,-0.032658983371338,-0.0131463941803485,0.0106297104647385
0.00900715152926717,-0.0467826745843978,-0.0167193420422788,0.00348416514101514
0.0139262542087261,-0.0368340656778671,-0.0213151759653395,-0.00258150134811149
0.0150058385656354,-0.0202497861288454,-0.0212448510396788,-0.00326889592994515
0.0181528522262265,-0.0235302111512355,-0.0147030381114466,0.00320499955912294
0.0240370431622033,-0.0469966743371397,-0.0087670589287094,0.0138251015768447
0.0237543777089368,-0.069605581758409,-0.00678067980708826,0.0217974234451415
0.0167747284667191,-0.0636615527720348,-0.00520529490612245,0.0217578199852981
0.00961844800851604,-0.0313667717332371,-0.000445944966493116,0.0133545452166093
0.00202166794998091,-0.00225279933255113,0.00647109944948342,0.000844578770125365
-0.00876928876197515,0.00514605465985066,0.00959303511548116,-0.00999425299983407
-0.0178779350167454,-0.00544334869819921,0.00556681725358739,-0.0159852622000403
-0.0195326825198209,-0.0166407347999959,-0.0020203219948927,-0.0184376937531561
-0.0156861087492778,-0.0164894281454426,-0.00520586374002744,-0.0214852222580039
-0.00968197597971069,-0.0101972999598272,-0.00231434364751433,-0.0275161267128867
-0.000694793780745292,-0.00538445442669527,-0.000118573896048247,-0.0320356547000753
0.0113703007130392,-0.000226323656612223,-0.00170384986425845,-0.0269032751476734
0.0204264310202996,0.00270514701219942,-0.00389674111447997,-0.011045866424578
0.0221125969972214,0.00160293149587234,-0.00670589206596088,0.00773447280292602
0.0202850797730796,0.0037143995973773,-0.010887424730875,0.0211676159638986
0.0144571821594687,0.00938021952708392,-0.012366119979165,0.0258877426059205
-0.000664707833659843,0.0192748422579808,-0.0107446490131446,0.0229910298828786
-0.0183826313711015,0.0311027517568254,-0.00921698584606906,0.0157108696042624
-0.0287039664759038,0.031351323048295,-0.00723019397029561,0.00716520689178673
-0.0290321057564188,0.020013951645529,-0.00412347046920693,4.57589168205369e-05
-0.0162097524572107,0.0096705136374725,-0.00120059986740369,-0.00349497499233652
0.00261571997579943,0.00673372305151943,0.00206893612700338,-0.00309674004129445
0.0142785357409776,0.0119755032323604,0.00539573722858741,-0.000103479588674931
0.0189569708483845,0.0196540919878292,0.00639183448330173,0.00312522841550925
0.020066754940882,0.0221442954106374,0.00615876352824273,0.00408591856380854
0.0172766602204448,0.0189414276800948,0.00648843102484714,0.0017309142376682
0.0149392983856116,0.0152819891045333,0.00679373885001653,-0.00266679969400157
0.015762066183775,0.0190301081911251,0.00750401338270359,-0.00658839636059142
0.0137447688886186,0.0314118235555,0.00892674242829851,-0.00872576203107349
0.00526564369327604,0.0439861210737624,0.00927681713024767,-0.00956943958638472
-0.00727008263840622,0.0521159943666388,0.00699382569210787,-0.00973902875087616
-0.0208865034595521,0.0599003259247583,0.00350375476165601,-0.00998552173294889
-0.0339918139967041,0.0651290928323195,0.000165665070271071,-0.0123840380786477
-0.044248440225504,0.0471520051047703,-0.00179511204757591,-0.0170748525620601
-0.0455927423849708,-0.00167667712232303,-0.0011573754942579,-0.0190170387280129
-0.0349907320910567,-0.0383144480074931,0.00142600308461074,-0.0134729773353988
-0.0191658315450942,-0.0248532352414924,0.00544849169613425,-0.00197829232592366
-0.00500202298750023,0.00693199631321018,0.00733027870470557,0.0101648843516141
0.0127448717869112,0.012820504694174,0.00654371669148152,0.0181105060712123
0.0363623365149829,0.0106978275182555,0.00926317394630997,0.0188778545901392
0.056609313851741,0.0312934148628372,0.0159557076095901,0.0123898725566318
0.0653277026385977,0.0440731162904851,0.0205494864812609,0.00178371277892031
0.0528005499531099,0.0240207221407342,0.0175648624137619,-0.00787273664815435
0.0182769467148241,0.0304715136979025,0.0123250860675611,-0.012848305268215
-0.019760686452812,0.104750291886077,0.0123762416543525,-0.013195966666361
-0.0410901969243558,0.175694392633947,0.0121359119712397,-0.01087601465501
-0.0396376310986254,0.176800785371549,0.00828492495434164,-0.00732662206934397
-0.0241627717779981,0.12678700325813,0.00229574864730843,-0.00317511575243614
-0.0101944126547157,0.0669080765766365,-0.00460096626263012,0.00111222078573064
-0.00905552056507722,0.0270028876432571,-0.00630751866042654,0.00465371642945907
-0.0180908613692975,0.0146719209053936,-0.0039116122087969,0.00672249818977459
-0.0268155996878673,0.014446057517396,-0.00502988038308407,0.00714268303278743
-0.0272558461812703,0.0222152789013727,-0.00733609255780721,0.00635413545567134
-0.018386629579371,0.0295219578843833,-0.00527619340144799,0.00531391436569811
-0.00448428800983051,-0.00624731049011491,-0.00111497862739876,0.00447575004849577
0.00915634400263045,-0.0874879771688199,0.00166295787876997,0.00370464929198355
0.0159257068497207,-0.176804873756185,0.0027472757599012,0.00302496962087543
0.0119747933897759,-0.239961847232274,0.00414408771426879,0.00270440281933305
-0.00818792003538787,-0.21905671528756,0.00628376942764484,0.00310191923378566
-0.0392466933980337,-0.110512557548318,0.00989481240600342,0.00381449744455093
-0.0564049860101656,0.00346311692018159,0.015081590974487,0.00382416101227792
-0.0618228303431242,0.0690977457966381,0.0186947645807182,0.00297491722723498
-0.0726019993715107,0.113747024349091,0.0253534477770231,0.00174387239063804
-0.0772499019403681,0.150036535216044,0.0332640215317154,0.000406127365205989
-0.0686633827412406,0.138028434720943,0.0302880205990836,-0.00124721605578158
-0.0537896449576526,0.0822553526861433,0.0211519868190633,-0.00321299582847989
-0.0341164356224649,0.0349757021740355,0.0179483863428545,-0.00443802085417719
-0.0104117032563572,0.0231717543792097,0.0185252106149159,-0.00400099075538786
0.0117794355331685,0.0306518730369364,0.0193338198117131,-0.00238659136525159
0.0195063753305615,0.038696475809844,0.0221172332399379,-0.000582909871926264
0.0116995061135833,0.0400900828096614,0.0235334687786693,0.00096804738944762
0.017268612766306,0.0320793109314929,0.0191574699158309,0.00200506762553664
0.0573071114649584,0.0203412399682972,0.00610934524327962,0.00241746147123911
0.099318347122923,-0.00296321328249705,-0.0156261565294252,0.00226679059868682
0.0970353210331767,-0.0262337002693558,-0.0333814905447429,0.00175664717541663
0.0526318967991731,-0.000704433288172393,-0.0318324655262059,0.00152685648283185
0.00151377879234033,0.047846840357828,-0.017100364181071,0.00208775847938405
-0.0229648773406874,0.00702541672164987,-0.0101610422229918,0.00321283751757468
-0.00812211781521838,-0.0920525027621537,-0.0143616827015387,0.00414690588046112
0.0169921983826906,-0.0961656530715022,-0.0142496940993674,0.0042135083134894
0.00899011325927988,-0.0544472384985924,-0.0068891264222063,0.003197566021337
-0.0270369431618581,-0.0900487447758277,-0.000822710933496132,0.00142374799759963
-0.051294777687161,-0.127436403768733,0.00412888145674763,-0.000404691297172614
-0.0523805328951881,-0.0743090698788695,0.00987348206568274,-0.00179112732603979
-0.0467071831524028,0.025132689543308,0.0133455936918133,-0.0025654488152237
-0.0386799152282355,0.0878645605724367,0.0105797745511662,-0.00282252671054565
-0.023476752712923,0.0781196068884972,0.00107205210530708,-0.0027684897872761
-0.00507127710992517,0.0362509738474706,-0.00951325078833293,-0.00229166110187603
0.0127752202102539,0.028380582641807,-0.013160674671453,-0.00127818227683705
0.0294211062103777,0.0418797461106172,-0.00948943451987664,-0.000173003397563693
0.0411227730685437,0.0143655452874459,-0.00572466073591325,0.000241654455418927
0.0457237512050236,-0.0405436922582816,-0.00327645576959459,-0.000262701523379386
0.0460707696873293,-0.0385835626266993,0.00176911818524769,-0.0010657388337455
0.0477952714070702,0.0163860145887286,0.00428894790807723,-0.00123087146520504
0.0543491517156456,0.0314408696943535,-0.00337639371341725,-0.000610160668969908
0.0617765986192962,0.00672377534499349,-0.0154958166563806,-0.00022031245696465
0.0624424487212375,0.00649602757406551,-0.0208031923694534,-0.000637618510984382
0.0518544652555727,0.0286303950119597,-0.015692776085152,-0.00124526569983994
0.0356546107216029,0.0323315594190455,-0.0106747697490549,-0.00165831812448017
0.0274983057149623,0.00319228667545896,-0.0140212150417683,-0.00215643100722011
0.0298461043359347,-0.0345383899105319,-0.0180888973817067,-0.00254379986781324
0.0307261449168707,-0.0613859543213031,-0.0189624513170772,-0.0021471031412071
0.0286451918701058,-0.0850371397233087,-0.0199002185499772,-0.000890735625962528
0.0331349190714308,-0.105321871881044,-0.0233763453595218,0.00029832467210309
0.0415169761713617,-0.110051762553473,-0.031168353002515,0.000486313195364194
0.041032772318039,-0.0882957830034651,-0.0378506301018259,-0.000440226547402837
0.0270688778395145,-0.0463961453566064,-0.0374164811582561,-0.00164405622266421
0.00710672386698208,-0.0103876711396039,-0.0323855370131364,-0.00188569223920857
-0.0103895483018528,0.0145659856120743,-0.024806799604927,-0.000785980947843991
-0.0210993454433202,0.0319842787760938,-0.0164915983432109,0.00113829379571343
-0.0183478115605689,0.0308018191761634,-0.0122228883709236,0.00283172813668964
-0.00197809544345511,0.0206412614738493,-0.0118485643466161,0.00331600865215377
0.0110293209638266,0.0204283721735034,-0.0117062576982061,0.00254472125312473
0.0120518421475796,0.0147531583686378,-0.0105881282502602,0.00107465436988166
0.00860400914552254,-0.0113887191088412,-0.00817293572729926,-0.000269276413620813
0.00464464053928561,-0.0357798493902545,-0.0036294161547619,-0.000822496483079713
0.0021097691195968,-0.0443672983930735,0.0013152560651121,-0.000589578075186251
0.00202179218703082,-0.048324204174382,0.00152476145551737,1.54426260454939e-05
-0.000443124547951705,-0.053451763698889,-0.00251415583441192,0.00049529972889903
-0.00675275176584857,-0.0614892117989837,-0.00492026813463096,0.000588036507693215
-0.0114232514600553,-0.0809621203638489,-0.007354460643255,0.000348625249800028
-0.0128716074947923,-0.0990145416948871,-0.0113396489255135,4.36917256936195e-05
-0.013320640753381,-0.0769111923970759,-0.0117917339151636,-0.000151311708264114
-0.0113327217501176,-0.0188958308881268,-0.00700777636482005,-0.000210743375515432
-0.00731411118992971,0.0249377359126774,-0.0016739013503676,5.78167811636973e-05
-0.00322558881659979,0.037868657770795,0.000406593523333707,0.000589106237923026
0.00352564076584313,0.0468086506110053,0.00211890972185501,0.000889775643880322
0.0143392651317809,0.068061861270508,0.00463169985326113,0.000834321284301741
0.0217360744331369,0.090662969832418,0.00608270679458393,0.000722896164739064
0.017106223548142,0.104121577703938,0.00693947582289015,0.00059375529035514
0.00692173464136814,0.107086442259318,0.00709910225100821,0.00040949040855235
3.45867960655569e-05,0.0948633995599631,0.00580258176283813,0.000257034122294043
-0.0034508767882274,0.0380193296203009,0.00151652780145514,0.000138346138404358
-0.00144812427469677,-0.0710356401115261,-0.00602651846173644,0.000116223785925533
0.00589063424268457,-0.144403232540615,-0.0105143000398444,0.000254721582559557
0.0102946606593663,-0.111080886948101,-0.00695927773754222,0.000514620635944592
0.00576816305669141,-0.0289353687207718,-0.00111611002469445,0.000779517694136141
-0.00620058754337638,0.022791064197012,0.00168318813773179,0.00105099769781584
-0.0233847825800218,0.0301902464324218,0.00231239346601582,0.00142784300706836
-0.0361406039394379,0.00483254282531611,-0.000685442880171086,0.00164884044813988
-0.0327991420760285,-0.0251202544320763,-0.00532675275072451,0.0013167208935093
-0.0238797924829672,-0.0228902669726243,-0.00490526336329279,0.000324026303705003
-0.0221726751474862,0.00202149490816018,0.000291312855535396,-0.00130641622449806
-0.0215033864898954,0.017101020703501,0.00448305639142276,-0.00474421091157335
-0.0152773184516458,0.0151411342192772,0.00469142204011829,-0.0112356939468196
-0.0045579509764744,0.00117679416484339,0.00317531550015425,-0.0176099433434484
0.00478767941193004,-0.0142552260520827,0.00275005210593414,-0.0185698421881072
0.0089476890935879,-0.0181609441852101,0.00266350729121813,-0.0133098797113571
0.0116268499232447,-0.0102965110574152,0.000903334784491257,-0.00523270065074307
0.0144573439098565,-0.00355269005001942,-0.00121406872537309,0.00238485624437266
0.0137939996964103,-0.00510726523514087,-0.00104035810990981,0.00835411015402425
0.00825976085834041,-0.0105312795077015,0.00114992381266342,0.0126951304271273
0.00544462029170239,-0.0126838757922946,0.00527086784405659,0.0156033596059677
0.014012854536292,-0.00844062418797015,0.00840292554763095,0.0173420824173941
0.0255821521460409,-0.00372841096614168,0.00571961121113298,0.0180385209296319
0.0276014057558147,-0.0029910437297367,-0.000320787974991809,0.0174662125774401
0.020912171065692,-0.00435381782852511,-0.00610925961054093,0.0155392622201948
0.0128445718548633,-0.00903443256843228,-0.0114853288482878,0.0124867918443823
0.00698825427310449,-0.019833178006484,-0.0144764460107694,0.0078985045509898
0.00303569244442248,-0.0219112340856328,-0.0128933469763622,0.00144516530742055
0.001860934598547,-0.00599179647440541,-0.00844491333549939,-0.00624959657490658
0.00111548911791299,-0.0034013820617112,-0.00495556019603153,-0.0151920388044634
-0.00146501791421541,-0.0260687929310626,-0.0024640382088334,-0.0256625549772515
-0.00546031737964869,-0.0379894953999069,0.00187877752803559,-0.0348975136179207
-0.014670159305654,-0.0254023921512455,0.00582087079237541,-0.0369025782466825
-0.0294892619221509,-0.0138230915538415,0.00470607847570616,-0.0287114264034508
-0.038175482964414,-0.0142533280145954,0.000211981467929397,-0.0140010867291736
-0.0333441384011706,-0.014452401429579,-0.00266602319290083,0.00115652607001307
-0.0175909806352499,-0.0128763983425471,-0.00318350815981175,0.0121384528236911
0.00666635421237458,-0.012022989696977,-0.00282666964682323,0.0165685943300928
0.0296061776935785,0.00420641356094636,0.000200500852847447,0.0154855185988304
0.0354538045000114,0.0434747436626933,0.00472009262227131,0.0131559838937548
0.0237207176090418,0.0731581869233431,0.00455904600955345,0.0136297821887508
0.0148050573693832,0.0541494748205129,-0.00422511075063729,0.0170873171528317
0.020783613116788,0.00512650638743771,-0.0159914195844249,0.0199113785509465
0.0303610105881065,-0.0196322593612861,-0.0185497901592107,0.0202175384160449
0.0323410531541167,-0.0125314151668968,-0.0109198305939387,0.0213559874359933
0.0257491850941446,-0.00122933660086224,-0.00326687498129148,0.0251971769572692
0.0101004985135479,0.0130915083077101,-0.00101539574410665,0.0271315427880175
-0.0138233649824899,0.0366741534129382,-0.00219057347022662,0.0221646479866801
-0.0359545530853133,0.0302720564491778,-0.00203808932285346,0.0102228147302627
-0.0425137815020866,-0.0206766943824645,0.00124057737843528,-0.00627853616929392
-0.0327260144287554,-0.0447407664691677,0.0039479380520195,-0.0250024624966059
-0.0152086859351643,-0.00821946498223303,0.00477681974880656,-0.04014533059613
0.00148511679000297,0.0335448007062101,0.00436368785923813,-0.0431484957845551
0.00595088403757129,0.0477874477085819,0.00286492683282664,-0.0322019750799936
-0.00471267273881175,0.0497510190999063,0.00315455908404694,-0.0146798366863001
-0.0189434230058968,0.0504015818021672,0.00335086837127477,-8.1230985843686e-05
-0.0265826426740553,0.0498708366818378,0.00116725810305603,0.0049110850326594
-0.0262552473796045,0.046000668517581,-0.000224442320644167,-0.000213332327984771
-0.020049529273489,0.0381615001219655,-0.000600348814876955,-0.00743496438446908
-0.0126828296114122,0.0289396678008179,-0.00122613268822454,-0.00746916563089999
-0.00809602763250162,0.0205369340297829,-0.00274830011217216,0.000649388200382742
-0.00395333901509158,0.0134198988106249,-0.00423334664353567,0.0111327326072826
-0.00253552452963693,0.00630589581162838,-0.00358679350719774,0.0186986297601259
-0.0110273733226439,-0.00150333120334283,-0.00170029607716602,0.0210976431500122
-0.0216445427293779,-0.00844661479679209,-0.00110699520602177,0.0181340086588568
-0.024614282205539,-0.0138907109054186,-0.000763046885902353,0.0121761803410001
-0.0251593129611379,-0.0168060882243859,0.0011653171408508,0.00738270268961696
-0.0268299236014862,-0.0183803995723295,0.00230412301670488,0.00596095977401028
-0.0269439079412953,-0.0231570517715877,0.00149197965889298,0.00624602485667665
-0.0229988437778006,-0.028361788484611,0.00261190623298463,0.0050835867720501
-0.0177308765603252,-0.0264153909345597,0.00810494340422692,0.00100898921041996
-0.0148550370763457,-0.0118950534089011,0.0131073298998714,-0.00526577042262259
-0.0117910662508527,0.0111893964792743,0.0143617275655687,-0.011641236962598
-0.00760086054924492,0.034017826759587,0.0140371626199201,-0.0158215400671249
-0.00393945492321005,0.0544505864453807,0.0122568992638179,-0.0170825751446284
-0.000409340093143846,0.0586929966100312,0.00902298142125562,-0.0160082346230914
0.00260279721132211,0.0323738896522332,0.0073238634472562,-0.013310988995194
-0.00134267465018853,-0.0064370691361172,0.00867191366920496,-0.00996386140739451
-0.014047821154259,-0.027539888729612,0.0113421070783343,-0.00698443809827687
-0.0256491176696354,-0.0270028753443325,0.0117600613206329,-0.00482031490485673
-0.0322584165511321,-0.02082953566484,0.00737359632266107,-0.00347018157213582
-0.0350148355266841,-0.014208619502533,0.0011739420885098,-0.00307256460153185
-0.0295832460031248,-0.00605234469412353,-0.00180423203764927,-0.00379814442142239
-0.0132686403032914,-0.00283312195369513,-0.0017847747660586,-0.00518529581601341
0.0087865530306592,-0.0120910598036374,-0.00104906505726831,-0.00593509250563564
0.0219048508545115,-0.0291612889736312,0.000888768591897767,-0.00474006072089116
0.0176303092727461,-0.033563098588151,0.0052852189899424,-0.00181444985206413
0.00895094789055822,-0.0118505416600523,0.00934313021671636,0.00131663742042451
0.00820609310538985,0.0212814210896223,0.00977932067136563,0.00353288381653762
0.0123157208417569,0.0379158238724459,0.010520114037663,0.00463672347323488
0.0137578337280368,0.0320942966410071,0.0148574215613393,0.00486100697330659
0.00698566829406042,0.0187685489300213,0.0199804937979595,0.00461174554671902
-0.00637221853120408,0.00863562126675829,0.024871250626799,0.00441107381153354
-0.0209202685656032,0.00276848166189956,0.0300677395547944,0.00474197103899825
-0.0309782079348364,-0.00290891312920726,0.0306523464276905,0.0055653711606036
-0.028705040002426,-0.00400153756205242,0.0225549500664868,0.0060196327361793
-0.0161765011800927,0.0127613653813406,0.00921725238751813,0.0055430354726423
-0.0055986627096286,0.0348086793655647,-0.0038823445157409,0.00470956143627514
0.000409879491865429,0.0362631992123306,-0.0096129650213863,0.00388496700485493
0.00560409341152628,0.0258098590664176,-0.0063765904165416,0.00228654188529158
0.00825528059768539,0.0257606198683618,-0.0032404300353303,-0.000564506924399501
0.00634965609667097,0.0372383734892344,-0.00162754240451638,-0.00341683729653574
0.00300586439589383,0.0540727373311768,0.00545729051715865,-0.00469751659969258
-0.0014370276435919,0.0683877218641377,0.015919489607037,-0.0046241295125205
-0.0121874198949761,0.0678163408153665,0.0217082765618146,-0.00446707130276163
-0.0218109321758597,0.0587809772276322,0.02094340586243,-0.00462280225887013
-0.0215406431105178,0.0583022596954758,0.0182517611824916,-0.00450221013311593
-0.0199626168453498,0.0685774808632151,0.0183180108307529,-0.00348445275851284
-0.0230498618543492,0.0956275184053493,0.0283310542405331,-0.00137428931864211
-0.0291143637386104,0.144630754603743,0.0476669288279621,0.00156148239114214
-0.041862800782699,0.189541019841057,0.0589429274851725,0.00458892952305027
-0.0615173645666441,0.182625433710046,0.0535909765601403,0.00652551039429778
-0.0794539732489178,0.0946345270942971,0.0378124907800217,0.00648711493192463
-0.088193441981327,-0.0135244597407851,0.018802774126342,0.0048316239915051
-0.0825671902322729,-0.0241959936851198,0.00678908281168721,0.00299677001140836
-0.0689198905365429,0.0666489661214565,0.0038955395948431,0.00216064303518287
-0.0586632627053906,0.14724060332421,0.00215432581937569,0.00220740588405411
-0.0492695336800338,0.143283180171612,-0.000185813231668813,0.00296073406737804
-0.0369322559358792,0.0246349365046354,-0.0118031971260696,0.00487318225024445
-0.0195656156132325,-0.184694097934147,-0.0385910577990774,0.00686473603834449
0.00853937560121995,-0.327946757533489,-0.0586886333143349,0.00687356951175252
0.0419291433326738,-0.340557874852637,-0.0565376776605307,0.00491484911014625
0.0731074398954062,-0.298667735991843,-0.0418672515287621,0.00235438807546436
0.104673957051437,-0.164269241102506,-0.0216280334166051,0.000115217120759552
0.125663453105718,0.0297948479211685,0.00116460023366896,-0.00094335142704781
0.117574837524211,0.115408514150086,0.015354272569655,-0.000403959957158516
0.076241168356449,0.0922527293800818,0.0177464514963552,0.000747382161050764
0.0200288336366625,0.0814851006215204,0.0185833806001903,0.000834832965808797
-0.0193655731816978,0.100250065211972,0.0215900120070437,-0.000899910704587291
-0.036132343284169,0.0955002349772711,0.0210747623796676,-0.00354861321188126
-0.0445723408836137,0.0646138540762211,0.0149652750401554,-0.00531911366845464
-0.0499384553980652,0.0303861338898118,0.00783214212467437,-0.00531675698387937
-0.0476726976120399,-0.00254595884630072,0.00197982638740725,-0.00429330771034871
-0.0370456371543817,-0.0310924646977626,-0.00445579304123857,-0.00326991738520133
-0.0251350068009637,-0.0496140571143709,-0.00991057827976717,-0.00251351833374618
-0.0149855092110949,-0.0541734240810642,-0.0129357459961533,-0.00209408905366708
-0.0083222569285565,-0.0482355390745431,-0.0149242717673552,-0.00208447940153049
-0.00149500830621157,-0.0487115408062715,-0.0174061601729162,-0.00215839382574511
0.0130054734401787,-0.0605430597021078,-0.0208146066140182,-0.00187495774953361
0.0292787981810787,-0.0743258982623814,-0.0225928379381349,-0.00125931569910189
0.0377453220092211,-0.0867208487443161,-0.0229019219226664,-0.000687625449128339
0.0426515929899096,-0.0971999516129344,-0.0238717161112088,-0.000403604571539968
0.0513616232905015,-0.106145616518177,-0.0232953200547508,-0.000300476797910064
0.0601127170059097,-0.11181361139323,-0.021382846161424,-0.00013442235424353
0.0632090521911801,-0.110849232039488,-0.0194998262647218,-0.000163174681547572
0.0613599718913488,-0.102812939385889,-0.0169689154394331,-0.00234850925281778
0.0577936044341169,-0.0923558694748198,-0.017456403191395,-0.00873954042313369
0.044151455987525,-0.0940947442315108,-0.0225369457978933,-0.0163237642898815
0.0165679446569068,-0.105971227079294,-0.0264161495119905,-0.0190071902396974
0.000858090480997557,-0.0949728185831111,-0.0223248936937654,-0.0149170908933415
0.0116826857129283,-0.0478888980730669,-0.0121762742919318,-0.00681286295830536
0.0278084252008278,0.00686090294119986,-0.00414298724607594,0.00183370946682307
0.0288661351600336,0.0506972712384905,0.0012637362778803,0.0088074586898596
0.0177741121776017,0.0859254154086503,0.00599633682679365,0.0130688029091261
0.00699796509956499,0.105301514891188,0.00881686709998828,0.0148163135044718
0.00363062024033414,0.10666799341117,0.0122334325582438,0.0150064519775506
0.00703139123310656,0.113988544176855,0.0185109802545593,0.0144348980477701
0.0141176472062104,0.145302555484654,0.0248384680088562,0.0141277583113926
0.0214097374331212,0.134995026559115,0.0231126657191935,0.0146118534054072
0.0281958257288136,0.0314654134490395,0.010753490428785,0.0142910968630065
0.0323546715161559,-0.045326148534436,-0.00045230684904924,0.0106534885400297
0.024151126283443,-0.00885984316753675,-0.00584644253113968,0.00325446022144812
0.0103385899334132,0.0370176415984556,-0.0114436863543859,-0.00612512325475223
0.00118541248209265,-0.00191294595181504,-0.0145318416011809,-0.0158223475466982
-0.00898372187118741,-0.0890887971245734,-0.0134786031622002,-0.0246160511099041
-0.0208434316838076,-0.135421541786108,-0.0140101902076448,-0.0300906143914622
-0.0361058366781729,-0.104399134289993,-0.0153108008183673,-0.0288553708163815
-0.0496747864684227,-0.0292622546398982,-0.010891210683417,-0.0198331588045849
-0.0471830596879034,0.0208468438142278,-0.00432569710455005,-0.00631074131514971
-0.0310451198224958,-0.00513447099180925,-0.00572357461298043,0.00633491358353436
-0.0100624996314218,-0.0669977852245611,-0.0115338713183233,0.0142974317030632
0.00491063784234689,-0.0728968187228478,-0.0122158417788761,0.0172052668450674
0.00487914442647893,-0.00845138957222483,-0.00652700598259028,0.0169793495800363
0.00471779998801347,0.0475941271986106,0.000206352081556192,0.015269576573819
0.0147209227229528,0.0562304427519257,0.00259014397361663,0.0130074004569528
0.018243518556663,0.0595580996172091,0.00111057545800998,0.0112150238219984
0.00857614857461506,0.076976671516149,-0.000426866917917691,0.0101656638175111
-0.00168379405159005,0.0782563456089685,-0.000987555880251886,0.00922236164811655
-0.00237144377924115,0.0497857415441197,-0.00240622003040779,0.00786810083726316
0.0074093045675398,0.0140945802633239,-0.00542361616628475,0.00581697020559882
0.0197502550678161,-0.00872576280005524,-0.00862824533753531,0.00339748790978641
0.024770741609474,-0.0219847725618889,-0.0108935919290973,0.00142557389903237
0.0211562690895921,-0.0369653035170333,-0.01277921534962,0.000310888910405102
0.0170140058914052,-0.0553027594349911,-0.015159219321343,-0.0002822610756714
0.0189959699292941,-0.0717432972599335,-0.0176112047166656,-0.00125249100038708
0.0255752752947224,-0.0861281455154348,-0.0189848616735017,-0.00307645369719049
0.0291024683776005,-0.0953921863907323,-0.0197602536624269,-0.00515048481113448
0.0268837839054558,-0.090874861845058,-0.019094139381023,-0.00653392983013746
0.0241791815968194,-0.076450954612164,-0.0165397481076566,-0.00686913760890218
0.0222930677084785,-0.0702442854161641,-0.0149802060153712,-0.00618707123997829
0.0194653993558589,-0.084764448206487,-0.015142024093748,-0.00477318267107598
0.0143409038021928,-0.100699506079953,-0.0148631513934939,-0.00338332400605801
0.00594106592495845,-0.0888375775432376,-0.0132096976994826,-0.00268150318472745
-0.000107769194331616,-0.0591037660688697,-0.0135772262802136,-0.00247045387857091
0.00198736609500914,-0.0368331133375889,-0.016855648931616,-0.00216339421867674
0.00806096375309451,-0.0266799103658065,-0.0171805295209315,-0.0017222706612752
0.0108359476070103,-0.0241338133672325,-0.013536233770993,-0.00142901751545369
0.00702952077281041,-0.0292002936865173,-0.00991614803686258,-0.00119059001605382
-0.00575230878044771,-0.0519174842345343,-0.00497766652374798,-0.000542769679091338
-0.024813187220511,-0.0810944564985256,0.00396823867699,0.000276234762859227
-0.0434727893038701,-0.0804044405238669,0.0128773849988158,0.000760515182916753
-0.0546321240774482,-0.0553754397773179,0.0193535429775313,0.0010928456396333
-0.0515474783328417,-0.0380978991431572,0.0257799164441698,0.00131961157986618
-0.0363589106317678,-0.02326021848317,0.0327697862590851,0.00121576962593691
-0.0127180601523167,-0.00639262062877697,0.0368224267500992,0.000368611132722688
0.0127912612229776,-0.00713715561149719,0.0328923243199977,-0.00143786461560027
0.0241879268666949,-0.012695607306275,0.0215664837519889,-0.00393699869861692
0.0232933748523842,-0.0118428529325313,0.00688494112125411,-0.00652380183306913
0.032712421752079,-0.0125721645461629,-0.0102020330082647,-0.00804142178199939
0.0513848842049372,-0.00449062708750082,-0.0315409462386821,-0.00825720791323724
0.0496055114272949,0.0128440292751867,-0.0473490890215404,-0.00841044586761901
0.0174622788698045,0.0404363430852372,-0.0464759113198217,-0.00916944850266253
-0.0193204298088992,0.0790461484269779,-0.0359047968535697,-0.00929130365200042
-0.0351667318982576,0.110116087659052,-0.0217659153457081,-0.00698450255434174
-0.0279766739781498,0.108309556822956,-0.00472374315261665,-0.00229419616334866
-0.00829945545233455,0.0741111551362327,0.00960964588864135,0.00305929832686334
0.00814324534495739,0.0391006604162276,0.017425791250727,0.00734393872910266
0.00945338778397734,0.011583909795443,0.0205190589176284,0.00942238899837347
0.00389910783556317,-0.0199609384053,0.0213777829375758,0.00874387830253913
0.00343298389441545,-0.0463191579919416,0.0227569563972112,0.00595729435775114
0.00365590426455344,-0.0497650523810039,0.0251856380399827,0.00326076699608323
0.000901737201951712,-0.0290749392431586,0.0254952094603011,0.00229106756562044
-0.00184450838270204,0.000751959360919933,0.0239975492747516,0.00206713489190755
-0.00491244657033123,0.0223675963061477,0.0220047066053265,0.0010542005104047
-0.00661529439660236,0.0207286238868339,0.0173294581124203,-0.000405245703257433
-0.00566997302122995,-0.0177904086266556,0.0093631802519024,-0.00150158426434568
-0.00629153058439476,-0.0668105474885237,-0.0014375685237895,-0.00250375003476823
-0.0103565098573265,-0.0646196105542108,-0.0134488147464192,-0.00414610447077263
-0.0150957462758509,-0.0141517743500914,-0.0190439818595778,-0.00631495341717203
-0.017596203741489,0.0226124601332724,-0.014172521466898,-0.00744402517578116
-0.0156987901369788,0.0340272939990166,-0.00509994519373585,-0.00611562298586813
-0.0100139391409895,0.045417920450184,0.000539188236907723,-0.00304717224892621
-0.00354297846395427,0.058216189224304,0.00156443406401852,-5.17631365036866e-06
0.000908516133271101,0.0704070968478683,0.000534940729009201,0.00236185069303675
0.00466154984418126,0.0859876992818911,-0.00195420269044658,0.00421781555325231
0.0118628226952696,0.0910517687868178,-0.00462740317049775,0.00565365342200519
0.0196471147793108,0.0753163021482581,-0.00559830755252558,0.00663707006388936
0.0225257989438947,0.0555182503347218,-0.00639882173641071,0.007160116846934
0.0163201312759722,0.0417091769334691,-0.0080575098189397,0.00724393457815452
0.00287535822509879,0.0256697879500026,-0.00821055626417738,0.00682801525793081
-0.00656160673654201,0.00656265194042219,-0.00494387972001197,0.006107863630088
-0.00795859577487043,-0.00861010654717829,0.00138130617159761,0.00550831845943412
-0.00808185817473629,-0.0147867677194428,0.00670075892035415,0.00542379428340534
-0.0119945410708037,-0.00667830142896182,0.00879017728852717,0.00605552623935882
-0.0188984871026514,0.0177534171113743,0.00858787834214574,0.00690810509213998
-0.0243707615442535,0.0469866802822631,0.0077553237400568,0.0063613169818365
-0.025834740921258,0.0702305842982541,0.0106473538639374,0.00342498830979335
-0.0254848610681028,0.0938829484001318,0.0153355997449227,-0.000307127798118621
-0.0266872162525171,0.111046724520497,0.0159346012132947,-0.00291880661032476
-0.0288780835815336,0.103585877211517,0.0138286478041347,-0.00422351388418145
-0.0289415029325032,0.0835482735991048,0.0135391141651249,-0.00368843571131594
-0.0249366245670627,0.0691906369895516,0.0158731046747305,-0.000145347097919013
-0.0170889931796203,0.0621712201142219,0.0179730758695276,0.00501629974186811
-0.010463116816277,0.0636909128096628,0.0190323006663989,0.00699368237411891
-0.00509170078267575,0.0534721899942419,0.0211217520140691,0.00146186249789924
0.00494475584261876,-0.0112544225889692,0.0202124109417304,-0.00905735032414665
0.0124946890878793,-0.108157653733988,0.0112483454065329,-0.0159336428268571
0.00928563597010421,-0.143354583046479,0.00239452468088589,-0.013207789778814
-0.000469292506928967,-0.084684438996247,0.00491690593300064,-0.00222203924479538
-0.0169609783210415,0.00535732539537775,0.0161407300203492,0.00930288284940272
-0.0357339654410823,0.0529479369690177,0.0238750108019091,0.0112756372218164
-0.0437312697818038,0.03270894087449,0.020939617335599,0.0012868150661941
-0.0443839125698357,-0.00704170207889272,0.0105430926894505,-0.010294506278504
-0.0442021705511307,-0.0099388774563258,0.00576489269157321,-0.0124910025514716
-0.0326820841731449,0.00221431739143187,0.014447438525925,-0.00542945153019478
-0.00414888683930836,0.00271397909441214,0.0208316451032236,0.00421406908390913
0.0261893461830075,0.0180210584506198,0.0169714716387871,0.0110740815139945
0.0342648501157313,0.0482092872459716,0.0159059300594574,0.012567461845287
0.0191711795305172,0.0645725653201327,0.0169716037058189,0.00866886056699352
0.00750327729082857,0.0512505471831946,0.00812241412297449,0.0016772486362613
0.0141401530214076,0.00286407730321939,-0.00961313789971196,-0.00504983896137315
0.0215918232883671,-0.0332835226415922,-0.0199774493185106,-0.0087985317556259
0.00764180111215534,0.00160913441512981,-0.0136470863257599,-0.00888954971551852
-0.0177520702652096,0.0696460720867662,0.000695399496362104,-0.00665034823436732
-0.0362292778920912,0.111633430242096,0.0129164230698162,-0.00440513922682623
-0.0454680237354928,0.136471363294697,0.020042805114435,-0.00360550435592367
-0.0459986662182671,0.151188606881735,0.0219472500577888,-0.00344522622741296
-0.0410993755812382,0.141303094112475,0.0212398270602695,-0.00242872583792204
-0.0322079787712715,0.119963487456305,0.0203009537043508,-0.000881704987638624
-0.0156018351650571,0.0994029149166809,0.0181247687267106,-0.000116670424338213
0.00754204467154318,0.0209625171154693,0.0118748954335707,-5.32090181653847e-05
0.0289901153493242,-0.183281550614056,-0.002599619692089,0.000213561678226377
0.0386084064657905,-0.400998284347316,-0.0217122001141304,0.000582436465381342
0.0343804083824808,-0.422848999185689,-0.0320370775276553,0.000333529665872372
0.0261779454287685,-0.25089621125134,-0.029381346021799,-0.000413136321934175
0.0201946574068977,-0.0656075950868406,-0.020699926207451,-0.00103977311478201
0.0138838485200355,0.0251837813366931,-0.0118432433174436,-0.00115768048696227
0.00751060750465857,0.0430848455002061,-0.00776830275792889,-0.000781231557947362
-0.00206975274284952,0.0410212137667047,-0.00854967164817961,-0.000395685534329634
-0.0220115123317453,0.033559547452072,-0.00797105681317624,-2.13150588124625e-05
-0.0445392052538585,0.0248354204134925,-0.00291477878435413,0.000733897214434947
-0.0545752675796297,0.0282952297496906,0.00340297788641879,0.00188549733433495
-0.0510766615783308,0.0392776889145205,0.00539535548519357,0.00296775633064092
-0.041352266204205,0.0451771592537548,0.000902784069573452,0.00323839768777274
-0.0271660864961796,0.0408960509913416,-0.00586301952746565,0.0024095567136542
-0.0057810642515848,0.0358808531878668,-0.00632044250057046,-2.41754067907543e-05
0.0166034077651695,0.0349123369725387,0.00269457891913099,-0.00528054811772096
0.0255603819928207,0.0168527670503512,0.0117928254353304,-0.0118773948075258
0.023714481049628,-0.0134316253097521,0.0131815225405007,-0.0151771178957755
0.03204550427882,-0.0327695998221563,0.00753143364147517,-0.012908291576225
0.0511419148617674,-0.0443913721748992,-0.00286760873449278,-0.00672859184017573
0.0486944496563087,-0.0365076327230221,-0.00931154789299834,0.000774757343831776
0.0182271566177331,0.00523705186539011,-0.00495174511878524,0.00790448957660767
-0.00658028151816009,0.0302036154067201,0.00291430646748909,0.0136438056949466
-0.0155599442672922,0.00033430718864394,0.00423123957817501,0.0170988315941849
-0.022381568300482,-0.0378371851270338,-0.000843782940510955,0.0182245970673539
-0.0308028956167458,-0.0441036362249851,-0.00477540202889693,0.0179992047727644
-0.0335948599499618,-0.0411926182076469,-0.00480819389952129,0.0171322483518962
-0.0247084591912848,-0.0432598070272205,-0.00174281323451717,0.015553784144367
-0.014694031391597,-0.0208052074407033,0.00286222647305927,0.0130567000787713
-0.0113043270970377,0.020239245878854,0.00413049930358394,0.00916312972622239
-0.00593848444392176,0.0295610077623565,0.000525198914831463,0.00332176762373394
0.00439973454993377,-0.0163816372350399,-0.00402996775003812,-0.00399355743594634
0.00906811783256923,-0.0931527863069133,-0.00793468356504782,-0.0114872307503494
0.00641155999244036,-0.147857526824117,-0.0120768652933746,-0.0184369650565608
0.00602445642280152,-0.133896057635069,-0.0125851682086044,-0.0241045306859982
0.00124291919429347,-0.0592003258753151,-0.00594789385913406,-0.0255538099409503
-0.0131552811061922,0.0158846054040106,0.00275145377854786,-0.0198977016204376
-0.0251565359252689,0.0540929314304777,0.00800680256099244,-0.00875027313002324
-0.0304738037906373,0.0655518734309454,0.0142553112595885,0.00302964938699686
-0.0313214072730951,0.0602535079076274,0.0227468325358843,0.012028758273676
-0.0270225958257872,0.0435678078556393,0.0253869757971091,0.0176081143420776
-0.0188842964988944,0.0324113688816985,0.0215394617884416,0.0198307618919838
-0.00889395139700806,0.0260806340348807,0.0182571556436787,0.0182476004600388
0.000595332522755135,0.0144512598336257,0.017680827777588,0.013392891713873
0.0119373333910888,-0.0248014959422431,0.0164404870044638,0.00777734293703854
0.0340892619106388,-0.0841903341583058,0.0135935890041215,0.00374509392038582
0.0677094126084652,-0.0866453732218012,0.0138263602281546,0.00165277768572072
0.0973206716536367,-0.0250581361594149,0.0205576938031343,0.000918092362041607
0.10122047190856,0.0309588476251878,0.0307784920273802,0.00123424536091557
0.0668039159696345,0.0542069183794877,0.036825879328228,0.00216048117162102
0.00603719684545721,0.0512177938787593,0.0316157863716623,0.00263961410210119
-0.0470060974828916,0.0491194107105098,0.0148182114282995,0.00190380680931336
-0.0665424439982083,0.077826296923387,-0.00725050279931949,0.000333541957537918
-0.0569092046885618,0.108999547481352,-0.0229450107923432,-0.00120111837007216
-0.0349864548411113,0.0976222379823758,-0.0219562170808328,-0.00215482567315515
-0.0120645088770922,0.0367509024217359,-0.00964815745529806,-0.00258473390764019
0.00627546182373297,-0.0809837866986953,-0.00507204469852604,-0.00308844204113636
0.0278213662887478,-0.205412022465575,-0.0160663425358123,-0.00449183910909997
0.0563444588787349,-0.225166163323558,-0.029106876835011,-0.00690188102268432
0.0673463994422004,-0.151254995152052,-0.0319215193696374,-0.00896311142793037
0.0490509627383315,-0.0811933562066396,-0.0252870726641219,-0.00891425415449061
0.0311088440557484,-0.0393233320513084,-0.0156172859144425,-0.0063614910642688
0.0328987122908335,-0.0149317010830738,-0.00775616836070487,-0.00289128218653609
0.0337381853735798,0.001049795337367,-0.00053588267028485,-0.000703170531423382
0.0171498627773662,0.0252410512253303,0.00804767486776705,-0.000553381818772896
-0.000227501058615395,0.0496602245180812,0.0176779434258651,-0.00118722142995028
-0.0047030918399386,0.0563877430111091,0.0241977726107126,-0.00115966466490992
-0.00391816828064993,0.0544380035246654,0.0239626414404605,-0.000567801206378711
-0.00534154064287218,0.0522146280256805,0.0185030914573472,-0.000295707694064735
-0.0086843677565214,0.044961477762086,0.00915699548045856,-0.000771581039638167
-0.00984134162442837,0.0351356102948032,-0.00226296504627631,-0.00196496761779072
-0.00470827425146607,0.0208135013104832,-0.0136992578274443,-0.00357349879299902
0.00308510118172797,-0.000334253615382168,-0.0216230825050696,-0.00516628980914464
0.00853204128393071,-0.0150321081835603,-0.0226546214572387,-0.00627092382512771
0.0146131921228711,-0.0342132626357506,-0.0218684825454572,-0.00620094221394937
0.0229799175753349,-0.0828169628468423,-0.0245004978255829,-0.00489940583250775
0.023839919263102,-0.125177792017037,-0.0255409998866519,-0.00327256242732628
0.010379699010321,-0.110777009139816,-0.0217127509366696,-0.00198571586219348
-0.00193051929884445,-0.0596330917691767,-0.0183747703756297,-0.00101510210421191
0.00247382085966358,-0.0214313182845206,-0.0177100260902197,-0.000350657984177687
0.0217165237320889,0.00247281632412462,-0.0162893441832332,-0.000242529400626043
0.0444520264287706,0.0351258535385622,-0.0137690773317157,-0.000976712160101147
0.0589149479063748,0.0594289407768883,-0.0119883035997536,-0.00250090000683821
0.0602672886231559,0.0470246652967573,-0.0113054838313502,-0.00385905709438557
0.0497203390637638,0.00930080564045925,-0.0126326695499358,-0.00414565581988545
0.0383107144414978,-0.0301448043089643,-0.0167655911691409,-0.00367142404590064
0.0358273973010219,-0.0587749756163497,-0.0221345815026282,-0.00329451214532564
0.0314706240244359,-0.0604069593693825,-0.0235832627409292,-0.00322376735450837
0.0151109228353337,-0.0341442774077147,-0.0190977131241058,-0.00304091931488788
-0.00315584672863264,-0.0114531048812771,-0.0130017094770144,-0.00273198093923575
-0.0143676932336157,-0.0132092880124744,-0.0096572955568605,-0.00271689912668309
-0.0192368040222979,-0.0212275106563748,-0.0112491798255824,-0.00296232335925305
-0.0240303842227173,-0.0170317353877251,-0.0142079734642961,-0.00287627531387757
-0.0362500961845225,0.000735471887601907,-0.0118648218018173,-0.00195096812794216
-0.0504181125590084,0.0243630205886946,-0.00499648588314481,-0.000189217918243846
-0.0518000855525101,0.0396193584190742,0.000114277734885029,0.00174888886520709
-0.0331388310583714,0.045400912153562,0.000392443537074525,0.00306158308689202
-0.00304189566988968,0.0480176051696101,-0.0030368153615238,0.00352668744005249
0.0210359213993507,0.0440442152697993,-0.00951463022848155,0.00333565398461626
0.031794115735923,0.034316062093753,-0.0149488582590508,0.00273910711749012
0.0330357228289354,0.0315821346086318,-0.0156510453062131,0.00212814523556245
0.0260264484424116,0.0362117816748094,-0.0157353546876768,0.0018117863309928
0.0134421412498878,0.0422174307767061,-0.0141085063233408,0.00143986043648172
0.00563051182838802,0.0532206702128417,-0.00789520117542799,0.000720365348303492
0.00853942046996056,0.0664208698811721,-0.000966231399875422,0.000331259360331872
0.0128326164589457,0.0753774356861577,0.00550163160404547,0.00108122314317112
0.00378967282308522,0.0806439030639733,0.0120344256628401,0.00291053186767919
-0.0147211748257443,0.0857694980382853,0.0160387633673384,0.00507203936375094
-0.0261582982745459,0.0857231320331119,0.0146253739948689,0.00658073091482499
-0.0237935632395703,0.073300395017432,0.00879203294495758,0.00657762873831563
-0.0107363659290897,0.0571093624513889,0.00212236861789297,0.00515305569355348
0.00342229004989748,0.0393731173284748,-0.00537162851539308,0.00313011780989336
0.0161444655127108,0.0104102038510532,-0.0145087955791201,0.000809316338839036
0.0282971923799283,-0.021044917298559,-0.0211523725333418,-0.00185717161109733
0.0289166993261648,-0.0210131661170224,-0.022159353169894,-0.00395013092006272
0.0116918777786941,0.0368170859883374,-0.0188052918946274,-0.00408793354411627
-0.00970610779495927,0.0967021232863089,-0.0111401279013222,-0.00202978058666574
-0.0176441627448561,0.0743644040128996,-0.00321139886565769,0.0011674036547638
-0.0136630475035554,-0.00853348040941174,-0.00273262212688026,0.00396171088446656
-0.00614732230057907,-0.0527440940136478,-0.00591218755948137,0.00545676893810577
0.00265252227804542,-0.00676977570070034,0.000197580155890383,0.00593291593896738
0.00414422944190887,0.067595437090864,0.0157169333612283,0.00597837179990611
-0.00011138850856471,0.0917184302693491,0.0252294477495697,0.00550498060457355
0.00777815993940346,0.0817159772356383,0.0216834509263309,0.0037264113918166
0.0247715530383003,0.0968996777693914,0.0154331789265467,0.000332677511767034
0.0315611974764077,0.137778244163652,0.0146342928161822,-0.00301241762772567
0.0239316843483647,0.152331271594279,0.0148558109598273,-0.00408725265145967
0.00963990239445588,0.124563065602708,0.0124730284735662,-0.00285574686533985
-0.00172223106728139,0.0790344118378717,0.00949760192733514,-0.000915202100972117
-0.00380304745310313,0.0305752331995658,0.00750382640555211,0.000794284060561279
0.00014782601073721,-0.0476657536093015,-0.000451420389963094,0.00226450832013395
0.00183285603475234,-0.162695590433155,-0.021799602888544,0.00326494728209861
-0.00865613396654518,-0.214033036347509,-0.0397109423225484,0.00314990365821267
-0.033396727086193,-0.141993164768381,-0.0351679195311886,0.00183520566871481
-0.0557752247677655,-0.0459941556174985,-0.019446540084934,0.000151201338154923
-0.0583970355884857,-0.0142627104383701,-0.00981008025738059,-0.00104288967365975
-0.0421266511404979,-0.0279703003586009,-0.00794806554340777,-0.00151759181656364
-0.0187638757304742,-0.040711808924588,-0.00723769510730231,-0.00152558952606053
0.00227939473626615,-0.0311273876776283,-0.00315245854263502,-0.00128024043080453
0.016265787809183,-0.00792857260912699,0.00205530470606769,-0.00104935342484607
0.0228677243696452,0.0132488843136043,0.00424019651430991,-0.00146617183792037
0.0265285272259694,0.0194145333251913,0.00387382022031763,-0.00246935567118091
0.0271181072084801,0.00431327864256949,0.00250032103048256,-0.00287216399734242
0.0209733086051485,-0.0126035787581919,-0.000398685332390456,-0.00260768684864122
0.0108029981769085,-0.0152202386124213,-0.00265887397063633,-0.00296491495650264
-0.00142280172545838,-0.0174780474160144,-0.000689244175412434,-0.00371372681324454
-0.0162998135640562,-0.0297173010078954,0.00231868212788062,-0.00279202543823995
-0.0293931360271415,-0.0434385216688386,-0.00209428354718754,0.000557911400511653
-0.0357650405948357,-0.0511676693875346,-0.0112260128600659,0.00427171156591414
-0.0355534906955825,-0.0582880804716337,-0.0163371934841355,0.00606269617929672
-0.0292033782474168,-0.0763184570933639,-0.018636495080302,0.00556460803619824
-0.0183330324751302,-0.0986845094824496,-0.0205988894339024,0.00372783244215228
-0.00897328752337431,-0.0993568300341311,-0.018833043273716,0.00165912547612473
-0.00508043180039397,-0.0734412831685372,-0.0139593841699641,-0.000346530517523458
-0.00344450168104362,-0.0460352905337483,-0.00890980916661442,-0.00218661083828999
-0.000381322309381021,-0.0346990100729497,-0.00397086361949148,-0.00277564426912648
0.00453790882303135,-0.0332788543659067,-0.00149123117431238,-0.00168496555240066
0.0123419645200954,-0.0294611748567884,-0.00214200802180822,-0.00053916330446583
0.0202688068128315,-0.0198003945734101,-0.00143346212925332,-0.00085981807803751
0.0187962512753554,-0.00650268838483201,0.00211471970071331,-0.00193534903389378
0.00382832087903338,0.00805216865245618,0.00436266585576996,-0.00248748751977964
-0.0151629501707252,0.020973397303047,0.00339657559260103,-0.00261208822686028
-0.0264584242351736,0.0318652553308473,0.00108762827193968,-0.00275587140408662
-0.0261668209836309,0.0378874569294497,0.00168105986566964,-0.00276637194502399
-0.0161118242181697,0.0338982234423623,0.00696504516879366,-0.00163469872689277
-0.00537406384640448,0.0131047535182272,0.011730144069892,0.00155484128085064
-0.00386213737179933,-0.0246973633467765,0.0122585679333816,0.00528655475201241
-0.00795263551191863,-0.0516873355292739,0.0116050974027619,0.00673435058181474
-0.00773525395520935,-0.0433384211514084,0.0111449910982541,0.00542042710341043
-0.00166468838325758,-0.0128192361363493,0.009895030074547,0.00343851090046209
0.00477682335764223,0.0162973333486289,0.00935459576008171,0.00254373916115956
0.0105431999091966,0.0352352455122081,0.00809113334278267,0.00245724824360265
0.0151118568964388,0.0383538903479039,0.00392134508032258,0.00170988732677165
0.0160594461431335,0.0272917172394976,0.000632152718821409,-0.000628694237617731
0.0159864290651028,0.0161387563345504,0.000547469206250276,-0.00356856335500568
0.00609147295059932,0.0275359304390905,0.00101396465465029,-0.00535760056406324
-0.021524623661583,0.0693120700102555,0.00281488118086006,-0.00566709910415965
-0.0461061343251395,0.10228037104648,0.0106634727360213,-0.00488335305836847
-0.0490056553055684,0.0852406938624439,0.0240439500266831,-0.00305767264840066
-0.0294574744579643,0.0139224519706573,0.034796814572167,-0.000611392025970896
0.001739724104258,-0.0619326863795229,0.0355228086534674,0.00165281468890724
0.0223919353432621,-0.0618591865365631,0.0318320823599999,0.00330348906516325
0.0229192391584064,0.00605310581526518,0.032306450723068,0.00423300471679599
0.0115518808722646,0.0544340241671217,0.0320878891147681,0.00456676341642014
0.00377315188845052,0.0456630391152355,0.0216976549757997,0.0045377512871449
0.0146489866519312,-0.0114033166318282,0.000615171758424581,0.00406224314511153
0.0500138549485628,-0.0774569004646558,-0.015355279738571,0.00329639738655844
0.0774139299855532,-0.0728167293077325,-0.0128747868725624,0.0029097892380917
0.0524051664249288,0.00242811429454146,-0.000962708971188147,0.00301006699044088
-0.00106255133951295,0.059228007964565,0.00935736258639936,0.00277183506342032
-0.033530620714553,0.0715546298575254,0.0180209303939858,0.00117172127238267
-0.0385040220169501,0.0824594680574711,0.0252090711050213,-0.00199767034656677
-0.0294628197345549,0.100903165158074,0.0290638311896145,-0.00529985993377219
-0.0182596706861916,0.0883530521353635,0.0280411126936971,-0.00700197993275292
-0.0104146933758601,0.0463867268282896,0.0236107093867091,-0.00701381310003797
-0.00466532024910224,0.0189887287712982,0.0205424765651705,-0.00610121388968478
-0.00181615908408917,-0.00458139297347915,0.016360803672042,-0.00475839657091031
-0.00113188132851992,-0.0377037875819157,0.00412335485383804,-0.00349926705426297
0.00375770233109854,-0.054019558795121,-0.0104546033887989,-0.00260920112468806
0.0130253558462196,-0.0794480189024341,-0.0172056535319463,-0.00156471273781641
0.0200270054747975,-0.129219312616794,-0.0173723387099453,0.000134959290579714
0.0202146797786576,-0.138903986701573,-0.0152516315998763,0.00180006234898274
0.0135331645533724,-0.0843543826493708,-0.0106448942765581,0.00268841413557076
0.00445634131053546,-0.021551415520337,-0.00569301731935164,0.00319973941116123
-0.00401426998134596,0.00680535250648426,-0.00150198090952082,0.00304819812256493
-0.0106707358648127,0.0102528601336446,0.00601811191793761,0.00100635940878104
-0.0122046472656964,0.00897683343054137,0.0137966561846652,-0.0022832228975677
-0.010261324208341,0.00498856099338293,0.0163133153905526,-0.00447776717452572
-0.00843733018101143,-0.00460552097115777,0.0159318682088496,-0.00473680260220332
-0.00808566365716133,-0.0189063394471452,0.0142577740915297,-0.00530208883761805
-0.0111023859652272,-0.0382611436656765,0.0098074695210959,-0.00851452499968259
-0.0125483757799345,-0.0454316265416292,0.00460307291873118,-0.01205459979506
-0.00621017952236449,-0.0127726566567913,0.00482052243422964,-0.0112899939769202
0.00352576848727153,0.0300639202458425,0.00609634804221428,-0.00523079415346902
0.00854917642840192,0.025372182583331,-0.00255540163963989,0.00287535284836782
0.0082700933402975,-0.0245876183080413,-0.0145780957729402,0.00902075015440762
0.00733185807544919,-0.0730162912734954,-0.0190849583051635,0.0118983430989138
0.00634913912110284,-0.0804087136441838,-0.0197359610083943,0.0127186980758584
0.00470984117043389,-0.0500397143928708,-0.0212103755764381,0.0145410033234367
0.00393471584939679,-0.0185369635597486,-0.0241028950645367,0.019615558278262
0.00342949796878646,-0.00409860375541232,-0.0291380547200817,0.0235715954216571
0.0023430531608564,-0.000849814468983269,-0.032090965975611,0.0192161622343272
0.00232880345880331,-0.00322999705784634,-0.027363708846643,0.00720343753927479
0.00580516489435743,-0.00927671958287205,-0.0146517497945948,-0.0036967898802681
0.0104453587005764,-0.0168152743408598,-0.0015916610783924,-0.00742780362920563
0.0105263719080156,-0.0250815686702645,0.00418114067210744,-0.00630087966194701
0.0048168824802087,-0.0322694732951368,0.00688673971309828,-0.00625129581701005
-0.00385846161316078,-0.0341275966933164,0.0118701297028612,-0.0118102601029774
-0.0117119126324762,-0.0296641988422741,0.0175457109271711,-0.0248536797647459
-0.0184840736837165,-0.020455537487541,0.0206673291773953,-0.0408072520837152
-0.0263685186914348,-0.0110101179887817,0.0179528245834007,-0.0464633864912265
-0.0318104505424535,-0.004268099652378,0.0115248982656566,-0.0324002650303483
-0.0326075662529093,0.00451964317118442,0.00539014174184602,-0.00494822889839863
-0.036804800730336,0.0131246974451158,0.000567556344026846,0.0208183962181279
-0.046810802909689,0.023471932438152,-0.000206549825717774,0.0345910815649274
-0.0503178486704869,0.0455485049892365,0.00195062489112141,0.0353811000575015
-0.0365765051585306,0.0642764016359242,0.000597780452733735,0.0278109394302399
-0.0102267771769052,0.0489653055918331,-0.00627901744430947,0.0172748472573008
0.00924015146080769,-0.0134707069980188,-0.0136872691594943,0.00808813150343445
0.0111851794608973,-0.0811692545763911,-0.0160126905052997,0.00315812553151874
0.00427552292023937,-0.0830440420345261,-0.0125371927711075,0.0026973517818893
-0.0035084004269672,-0.0259651991703142,-0.00539760263249587,0.00443329477846047
-0.00840900721807396,0.0250291997103382,0.00372026697811444,0.00552341326525714
-0.0049625595699212,0.0770936919756916,0.0110202342777445,0.00376763057677798
0.00425296898353164,0.159095570178853,0.014818600093498,-0.00160446203413065
0.0118530440852721,0.218895880424433,0.0160343999760124,-0.00848230836065962
0.0160386676352691,0.185246477357081,0.00938055188314839,-0.0120249400096538
0.0201704011848406,0.0518940499763184,-0.00502473086422275,-0.00992192095934974
0.0346031756966908,-0.055305939251296,-0.0152345938274749,-0.00514393487325994
0.0497732905419378,-0.0218861141832109,-0.0156224745309604,-0.00103162573199217
0.0366685007036498,0.0732509034424079,-0.00898382020591324,0.0014563583992587
0.00153067195735142,0.130475123691362,-4.72213832389129e-05,0.00143356399869963
-0.0225020145740724,0.151707060931798,0.00689219996222167,-0.00206117323131171
-0.0277897433070205,0.162029516849355,0.0113128293919968,-0.00809010232592722
-0.0249425664191444,0.143424954245424,0.013940120106692,-0.0138732038910842
-0.0173567842952118,0.0324683130875991,0.0131632858623993,-0.0166707312158167
-0.0112440798481526,-0.119402495391742,0.00746225579404242,-0.0152192229665591
-0.0130766186198397,-0.151716862258712,0.0030107304074637,-0.0102767879450412
-0.015468590329469,-0.0727685407755054,0.00539560325950607,-0.00410902401774707
-0.01164210558814,-0.0552058817517236,0.00659468827513984,0.000978095475891123
-0.0057826301279558,-0.134597119448452,-7.98881198178544e-05,0.003691652192182
0.00333741721519272,-0.176240697072258,-0.00753353654037185,0.00452623805390561
0.0201582825923738,-0.113465715707207,-0.0128061401121718,0.00503805121263394
0.03554844184547,-0.0142990907161553,-0.018983469665137,0.00594231076419712
0.0381558151257431,0.0470266575690182,-0.0200377047715135,0.00682897161931811
0.0275794777611784,0.0720978661844484,-0.0106622464795889,0.00713513266373803
0.0144178237604251,0.0857962079965379,0.000198307667653285,0.00665185575318448
0.0136676768863983,0.0840337675716958,0.00341225847082405,0.00541051290703176
0.0246281177117768,0.0639245824369722,0.0018104727663527,0.00372082418246787
0.0312984788959936,0.0389393091075913,-0.000530541016464245,0.00213007936113901
0.0299968347080015,0.0178217698707461,-0.00272371766336931,0.0011208920076594
0.0291899179517309,-0.00101335465966061,-0.00350014784350298,0.000709140129040071
0.0299670963621744,-0.0190704385276945,-0.00399606317882766,0.000238584558825281
0.0302915959005931,-0.0336679208522183,-0.00623698747594627,-0.000779762882205058
0.0274554527325009,-0.0434918965608728,-0.00817697336302334,-0.00207221186628086
0.0171777077967709,-0.0503893646826853,-0.00743688233593769,-0.00301836351898601
0.00524800175073435,-0.0541527964530176,-0.00546699641129706,-0.00298052189922702
-0.00128317487641847,-0.0562789195312011,-0.00433389599531888,-0.00166646454381558
-0.00653044695756875,-0.0583543915664821,-0.00279321409139665,0.000485204507051692
-0.0126953806923902,-0.056778103561296,-0.000558538050107809,0.00257442998518998
-0.0172132543742966,-0.0508998699926225,-0.00109459126811895,0.00397059804812287
-0.0190726722580249,-0.0422016367445389,-0.0033888954278708,0.00457293493558743
-0.0168840842330643,-0.0315381126742355,-0.0041592977943134,0.00452823653861181
-0.00872256643367769,-0.0283051635966799,-0.00495341919609694,0.00397150382154717
0.00226340528123365,-0.0358231364275637,-0.0056885755038225,0.00297673363259373
0.00547711688138823,-0.0418643260923135,-0.00499750024572288,0.00184812066820558
-0.00164886906595137,-0.0414781829315936,-0.00346133708404748,0.000924905178470723
-0.00919171106867663,-0.0440785821210408,-0.00154927188749752,0.000362401270674989
-0.0119870078716421,-0.0497127217112607,-0.000672441403778323,0.000599571546134097
-0.0135449191285426,-0.0505791908876368,-0.00184752465376406,0.0016941772166022
-0.0139759989663109,-0.0584565922607207,-0.00714236740383742,0.00273976450207702
-0.0167918922339871,-0.075799605206401,-0.0112654784732326,0.00303667391355534
-0.0316383885182134,-0.0738654410185375,-0.00460772424682709,0.00274462093510998
-0.0502423455622875,-0.0457491337067498,0.00470505101491922,0.00215643600813425
-0.0533483970236245,-0.0165115794444244,0.00596895066875541,0.00131038529899425
-0.0412731012785545,0.00172334929841002,0.00493167908197541,0.000294751835138333
-0.0281614637146388,0.0147148718781886,0.00757226561591474,-0.00053507945096572
-0.0220936689192989,0.0313527417021749,0.0120223061275557,-0.000728761129067545
-0.0259120975257379,0.0637930274373059,0.0180016663510721,-4.13038654533803e-05
-0.0334033262556155,0.110573825040402,0.0271212871127607,0.00129640817146198
-0.035854298096009,0.134850511002828,0.0329010343094415,0.00238006287953379
-0.0337069793778859,0.109421844527187,0.0287435071478386,0.00229038204188696
-0.0340141826242354,0.0645678975711597,0.0198574935058599,0.00112758775179907
-0.0400268657397497,0.0324187382985203,0.015386378854423,-0.000253709042319988
-0.0416674235190249,0.0122152703342769,0.018555678921492,-0.00128852144087514
-0.0265604299192553,0.0164162077606972,0.0221860573298221,-0.00172213809423503
0.00325218842823331,0.0345120228603242,0.0191423516503704,-0.0015659175932732
0.0289347669673438,0.0132758776506689,0.0116387820760693,-0.00136843001873041
0.0363972195001094,-0.035737820600377,0.00162806103445653,-0.00154961213200093
0.0317586208887446,-0.0652952136824894,-0.0136388506239242,-0.00195706321645521
0.0290914558850671,-0.0777725742098656,-0.0271683455808099,-0.00263416256190369
0.0310956353536207,-0.0399412486049353,-0.0256249362504011,-0.00403254045244627
0.0323149556033143,0.0623400465209687,-0.0122400750359241,-0.00584653592698838
0.0296388347318396,0.135594802544531,0.00709119491832225,-0.00668884047622493
0.0177480582927781,0.139992130786293,0.0337897415856188,-0.00568971788167684
-0.000623680066921761,0.121354584985278,0.0574399124488314,-0.00355325494351794
-0.0144331176577243,0.0938610892507592,0.0647550902666199,-0.00139250639233572
-0.0296473266047011,0.0415591444450212,0.0577339469128318,0.000113508556120156
-0.0518686028329872,-0.0255277993282262,0.0478451316310171,0.000577763575643557
-0.0629384702346563,-0.0589250400106759,0.0398933559936391,0.000461372894510891
-0.0491024707271227,-0.0366810049992692,0.0270056731911332,0.00069636744822225
-0.0227308316508688,0.00284384506694411,0.00586916174810756,0.00118907846112128
-0.00630559358996453,0.0327314750233944,-0.0129043155881389,0.000947387574719019
-0.00206233601741027,0.0504965826590435,-0.0185722732597033,-0.000707231393559434
0.00398796121309259,0.0255357074769386,-0.0154527783848869,-0.0033658870533037
0.0177913693293513,-0.045664512701836,-0.013598077489104,-0.00565267270410847
0.0336041678710319,-0.0874244696785471,-0.010857793941828,-0.00618670937991729
0.0424318769369519,-0.0601065064444924,-0.00301816799062806,-0.00449647595979237
0.0416357666703539,-0.026848673750704,0.00270544522980774,-0.00146599308119944
0.0342353353889947,-0.0294411262436809,0.00285618026114024,0.00129962392711314
0.0271269026131499,-0.0322071683863492,0.00101547444275703,0.00260503878760167
0.0236271594939063,-0.00576606709766929,-0.0006531649673562,0.00226764668002847
0.0217337357518443,0.0275907893438719,0.00101962827028994,0.000938425719405474
0.0225691252783356,0.0330283998367464,0.00645181338531086,-0.000320315240537055
0.0256778393729324,0.0130146535811087,0.0108535990144121,-0.000680154735796917
0.0283253758297998,-0.00577380838810379,0.0127677812828244,-0.000281399119751785
0.0252896276474356,-0.0102372376829652,0.0134486460465048,0.00027324370040321
0.0118984521703764,-0.00813023364124399,0.0147630348152455,0.000704498897977212
-0.00474302235540906,-0.0118424509596266,0.0224545256268351,0.00102763569461357
-0.0137583937442324,-0.0193330026164208,0.0313523360418001,0.00146469301756541
-0.0132584892081468,-0.0171519902861713,0.0309548982580762,0.0021600283468228
-0.00682863949043045,0.00189206027359094,0.0231764962937523,0.00254411628603032
0.00300994073898265,0.0169295681382214,0.0133147538685856,0.00190511547346548
0.0129118607933945,-0.0122675496943117,0.00287795211210737,0.00042528388072882
0.0191293411382572,-0.0741225780499115,-0.00885977661538642,-0.00129314700501539
0.0206696236092664,-0.100348395668275,-0.0191042127232541,-0.00280250445271698
0.0186206598581726,-0.0691855901311753,-0.0240942603088201,-0.00348448114096705
0.0182938725847992,-0.0256747043109825,-0.024038792283043,-0.00282009632573068
0.0200186806887306,-0.00303741173583687,-0.0224365607342485,-0.00116055458302704
0.0168277286838901,0.000866264008089197,-0.0240360582654345,0.000626508134353733
0.00917651569732307,-0.00167773312705246,-0.0252708116586719,0.00179224427464206
0.00268737950707646,-0.0017172797828928,-0.0188406727683112,0.00206369273989719
0.00192702351964049,0.00207533008778882,-0.00880473215967648,0.00188046422290318
0.00894717933601071,0.00962157332180784,-1.77420589387231e-05,0.00163586744483274
0.0181553505693032,0.0187817886733746,0.0103262260446127,0.00138184977288625
0.0224754705127779,0.0265800078106841,0.0187139035801978,0.0014037408268251
0.0194835786385268,0.0347521404089785,0.0210029229388628,0.0019048522662146
0.0101255279119576,0.0430778401393686,0.0188864498956498,0.00260336681150216
-0.00204956410166107,0.0533665246016012,0.013196404821869,0.00302514778042904
-0.0154376089929918,0.0635727159611461,0.00744361827811813,0.00277196144787315
-0.0247932948733985,0.066004753497269,0.00497752569930993,0.00171811331827585
-0.0248241463187049,0.0567544338928621,0.00481210123779205,0.000168836757203214
-0.0219154950121952,0.0157962362627075,0.00292076349476571,-0.00141388178499609
-0.0245242582860422,-0.0528983679029542,-0.00276120070487451,-0.00263892870101343
-0.0330111508606143,-0.0898922695342494,-0.00816879133354343,-0.00346890896599014
-0.039505477519879,-0.0621506053231804,-0.00891935519898122,-0.00404473538549424
-0.0360466823460412,-0.00228658885482126,-0.00507641281187875,-0.00386636378872111
-0.0148539334221252,0.0126443372328559,-0.000812733512404152,-0.00265511744938353
0.0269056003740814,-0.0475135943296027,-0.000282794484744697,-0.00126972610776982
0.0675381698018052,-0.0830718710799156,-0.00189022098519395,-0.000564684646530588
0.0788149390938024,-0.0240324118955219,2.0044989492909e-06,-0.000159048350785491
0.0636283992338763,0.0572967854148155,0.00406496458222047,0.000703580162856877
0.0524994932313162,0.0986561694621279,0.00255123264446361,0.00189676082206237
0.0588549837628464,0.120873036312181,-0.0054502858107695,0.00267007138983666
0.052906367392902,0.14701441363801,-0.0127531839194358,0.00171268638381712
0.0157075669044349,0.16404683370113,-0.0137551556956147,-0.00310142058070549
-0.0230074480954592,0.126095614309018,-0.0105809304178048,-0.0115424851585395
-0.0387995455498232,0.00643820253658783,-0.00880495345211643,-0.0180865423813824
-0.0430981009263905,-0.112539435531425,-0.00920574170013344,-0.0176711344329953
-0.0526407695544189,-0.120164821419907,-0.00865637832009252,-0.011111987654183
-0.0629014885882288,-0.0270825170562059,-0.0013516632588206,-0.00213030893430054
-0.0613886392065469,0.0735495749272706,0.0133867832990058,0.00663565807661574
-0.0500890259020538,0.120187312778049,0.0242845171444364,0.0137828815664169
-0.0377590323797055,0.117717728167561,0.0251525352685507,0.017689622533902
-0.0252191583334146,0.0909245881327722,0.019548985791749,0.0178869323980867
-0.0105841571337504,0.0482621421399814,0.011231162710537,0.0163021307315642
0.00174248838305801,-0.0254863489067208,0.00421354304873945,0.0151424592714553
0.0135314110024831,-0.123765458080528,0.000373940336174536,0.0151137024405116
0.0303853719531938,-0.176137345982045,0.000520145218226664,0.0155470480615803
0.0447961369636558,-0.144622343627221,0.00251491796576484,0.0150870681644423
0.0428931721549648,-0.0644100482258842,0.00148892424043407,0.0115805978142037
0.0232957440498866,0.00664004035735138,-0.00286760073961142,0.00302926588085034
0.00233833283382783,0.017699662128312,-0.00881653327649345,-0.00953667755669052
-0.00829281828364727,-0.0155181431941906,-0.0150769189118567,-0.0227981611721293
-0.0147898847651001,-0.0324533172868226,-0.0214400715214148,-0.033926259541374
-0.0236964420112449,-0.0198053416350221,-0.0292082483046293,-0.0397317058897637
-0.030822192025662,0.00273106791741622,-0.0347598435550326,-0.0367200728816935
-0.0310050249906959,0.0313607325857481,-0.0325547496871243,-0.024701127561101
-0.0244208046726197,0.0612328285638221,-0.023475534210853,-0.00826124923645454
-0.0147213621527336,0.0643701107283259,-0.0112353758983408,0.00697201446233933
-0.00672173094656465,0.0200752456565665,-0.000831209034918221,0.0179958255886829
0.000943263983415644,-0.0416845317230164,0.00453805325814275,0.024161834028996
0.00696424766393738,-0.0699220564254034,0.00562063540703057,0.0262645660340557
0.00567257279504338,-0.0576620125218255,0.00349831228274277,0.025520946608722
0.00197270284060078,-0.040430066439972,-0.000249129155392019,0.0228330000701031
0.00403701090113747,-0.0317394231408578,-0.00313515559223521,0.0191206463134782
0.0144072487691229,-0.0128722080202647,-0.00442642189388068,0.0146814489195959
0.0281115450921264,0.00865836142363,-0.00510583338406301,0.00972722156164101
0.0328215561430786,0.006254407474797,-0.00617303347245806,0.0056479897690011
0.0216397448683463,-0.0178996516652849,-0.00876031338507064,0.00367148070698145
0.0039362038532876,-0.0429631392988215,-0.0112389891864837,0.00328043685237068
-0.0059309907231954,-0.0505237397786452,-0.0104805294517269,0.00286556994440955
-0.00666338959989281,-0.0402940933976631,-0.00858575419300444,0.00108982787164463
-0.00491735144160695,-0.0232715368890835,-0.00761437795089391,-0.00239640916468235
-0.00264843356185262,0.00335937038255307,-0.00494968744182373,-0.00691368372500981
0.000397377821948613,0.0270148437255807,-0.00466584119919829,-0.0112232083957803
0.00381092925220729,0.0237272386974322,-0.0105749352583435,-0.0140693478359572
0.00643861803215605,0.0114724092005697,-0.0165870842047878,-0.0146242678734769
0.00743150428646935,0.0208689025857923,-0.0193703004821448,-0.0126641310728425
0.0094253892122287,0.0472264793739804,-0.0200585043981628,-0.00879480446285223
0.0110798015614105,0.0640087965049103,-0.0159630108879618,-0.00434292293276634
0.00972325239444834,0.0451073694303291,-0.00689287137410555,-0.000349907726111522
0.010297128965769,-0.00283213404312344,-0.000940851626067427,0.00296709282252658
0.0126818495143951,-0.0282029180313699,-0.00260789001304272,0.00535564096430294
0.010054107252556,-0.0119040016428731,-0.00650923673271952,0.00618689033260802
0.00146953450900146,-0.00722170989721659,-0.0064855212234365,0.00537716224603098
-0.00983893860265635,-0.0262178305474369,-0.00291338369657869,0.00368015070910134
-0.0224991206574882,-0.01906429182317,0.000970419839033812,0.00198441383531367
-0.0318269109495936,0.00692126189901596,0.00275238820785191,0.000153928035542406
-0.0284003212464271,-0.000822115923671939,-0.000715079526267311,-0.00262676751587188
-0.0131180517943672,-0.033127471291639,-0.00857887690724021,-0.005661247733141
0.0016610514769371,-0.0218899810549562,-0.0132184921276279,-0.00612262952602174
0.0088077084103618,0.0525316921794055,-0.00783088608312113,-0.00263448901431293
0.010252391078088,0.129741500770443,0.00237522669607451,0.00203681702266548
0.0100729091318574,0.149160774642383,0.00666047194676623,0.00461011668168874
0.0117555934892429,0.122060573036213,0.00631469463016663,0.00434610690655154
0.0153521166176628,0.100793278094723,0.00804454197031489,0.00203936382965959
0.0152544905326241,0.0992179629148164,0.0115191846992388,-0.000999437924696338
0.00729489866477833,0.0974618735901926,0.0155867267687713,-0.00326621151290827
-0.00462588133443265,0.0901605879582323,0.0188383809153701,-0.00436545331522286
-0.0105441166086804,0.0772149480885901,0.0187059216098209,-0.00650965353145566
-0.00114727081094127,0.00107958789339689,0.0164989888805386,-0.0121461269748134
0.0205607458572176,-0.1551850427869,0.0106870530783284,-0.017727321728149
0.0386222831638247,-0.232421850246083,0.00284032664898332,-0.0145518619632049
0.0434208612934583,-0.13466563742769,0.00044157989830354,-0.00134171526443776
0.0395515112361272,-0.00472667638862154,0.00446411947091578,0.0122220634425696
0.0358272000072865,0.0442142789081955,0.0117698921873324,0.0174734232224894
0.0357955685139921,0.0613253336355476,0.0185104929045457,0.0133334374808638
0.0327642298387559,0.0841888577583497,0.0204468671913497,0.00371191039427014
0.0191468406797696,0.0877213498569429,0.018458176924718,-0.0064717203139812
0.000560569471571293,0.0624181081790107,0.0145374059469191,-0.0142884612395268
-0.0135185050333994,0.0218638399571909,0.00483759353093991,-0.0182738941820773
-0.0217500922997818,-0.0168475505592884,-0.0103887957271178,-0.0175368485716838
-0.0260627746338339,-0.0361690296652935,-0.0223896025337135,-0.0126715707221263
-0.0375100329731963,-0.040846939400462,-0.0260616496548985,-0.00576957530578125
-0.0579618547530368,-0.0517338040593233,-0.0214513679609716,0.000676182494506057
-0.0679002297940732,-0.0722084386471146,-0.0118596012174332,0.0048807467543398
-0.0590092629225017,-0.0900016284690531,-0.00184389791092276,0.00633074397861671
-0.0400719302776605,-0.0933032848670581,0.00743161222873558,0.00604827567092755
-0.0211470313799007,-0.0803038969331709,0.0138760059723192,0.00629348059113954
-0.00573672178628164,-0.0640451107049521,0.0189506538852511,0.0087935293818028
0.00724639577573719,-0.0624358174822194,0.0241140606913946,0.0123748764125435
0.0220770584575786,-0.0722704767570658,0.0240878282805265,0.0137150051241654
0.0391153393864657,-0.0595990871788406,0.0183130492779993,0.0111570409634749
0.0580240681788889,0.00516558649698268,0.00983498942401173,0.00618822705577179
0.0827052260927602,0.0602332237020978,-0.000287005838789808,0.000921205866945966
0.106142662032011,0.0348089798304348,-0.00916960384843068,-0.00363470212838319
0.103111344543397,-0.00363110762928803,-0.0150893994637819,-0.00680958346074826
0.0623124206862878,-0.00106480823802612,-0.0181383161515803,-0.00818535393152392
0.0172103224722521,-0.0051140372616761,-0.0175719218640046,-0.00789646653353306
-0.00527378220542157,-0.0291295281270134,-0.0124479116989501,-0.00645530045011494
-0.0194579616906198,-0.0335676590759813,-0.00360605544601577,-0.00437710738605782
-0.0378445587519363,-0.0201449374747391,0.00197506352786556,-0.0019407281731809
-0.0472125112598818,-0.0482696511902237,-0.000650420650074922,0.000560097006313473
-0.0380967629769325,-0.134881378925254,-0.00778333308481423,0.00261792461627206
-0.0183811316921664,-0.20622405679286,-0.0142652360065633,0.00374940615888416
-0.00555529154776112,-0.191607460096065,-0.0152623010951736,0.00409978614555859
-0.018531918057146,-0.113031241543378,-0.00966156193035998,0.00438403130444778
-0.0497836688460634,-0.046329432533743,-0.00229780613754033,0.00470134008616398
-0.0690956552063901,-0.0327547156639686,0.00207047004869084,0.00446339876301588
-0.06541564967455,-0.0466320469959326,0.000482288057504914,0.00376024258351055
-0.0520822918381805,-0.0295649855233497,-0.00602560551166844,0.00311223933799416
-0.0400480540736567,0.0302766259640387,-0.0115885757433815,0.00236216536627379
-0.0327540915861849,0.0876929669700821,-0.0129102744008993,0.00121932025452922
-0.025831441268241,0.110630571041486,-0.0138576731562488,0.000278440951021929
-0.0114676641469909,0.100454362751633,-0.0188747190754985,0.000633783713598807
-0.00318107349504101,0.0750447763271436,-0.0258703968900208,0.00264124303036266
-0.0150250272030937,0.054061480281335,-0.0274115496860251,0.00510036236738629
-0.0277538028910474,0.0436043337477935,-0.0201146144114987,0.00637098429334416
-0.0185741965167313,0.0468628492063741,-0.00919554548247914,0.00600475080384541
0.00916186511005435,0.0661172131659269,-0.000233064693355364,0.00448149254554564
0.0318490514034061,0.105581033682685,0.00599167093289733,0.00237339057488963
0.0337106348342122,0.169316523076932,0.0124415420557522,-0.000156531469280381
0.0196865298415034,0.22323757080165,0.0176836116957782,-0.00260019512385273
0.00198256491047916,0.214516009240475,0.016082274739192,-0.00383512648012024
-0.00642082950169846,0.146729025108099,0.0117479289429124,-0.00431241393344971
-0.00629527574298605,0.0783094404406633,0.0132260102895255,-0.00666960143745319
-0.0123486662191585,0.0453865816861761,0.0194850699364058,-0.0121378692354521
-0.025474735977682,0.0351563470776885,0.0231209750313057,-0.0167732259203041
-0.0312565831323646,0.00789855319443411,0.0203423309463979,-0.0147602025095001
-0.0221341322375377,-0.0759789994828633,0.00755485379692557,-0.00555897979131643
-0.0052792215918265,-0.184211421278263,-0.019645026482499,0.00568000466652473
0.00291753561193488,-0.211247989260191,-0.0519480259188277,0.0131253776000059
-0.00676221787696464,-0.12224524159003,-0.067088940081765,0.0138967472403415
-0.0215985641989851,-0.018781801259162,-0.0578600545445559,0.00892865953310868
-0.0246331114735664,0.00475101175251003,-0.0405149452653504,0.00171854859091948
-0.014050446806994,0.0214004586586825,-0.0236654153740956,-0.00374700446381369
0.00174790352446148,0.118783486135747,-0.00482352189819191,-0.00495268328952542
0.0109647121204073,0.216255695297897,0.010827787361104,-0.00254662627307265
0.00621573910744277,0.238637600829568,0.0177977941484323,0.000677538970532328
-0.00977811368094317,0.222275967316191,0.0177539264515308,0.0026948186999473
-0.0187742727533818,0.167327580289211,0.0144841176146457,0.00286584671362472
-0.00670794918179701,0.0111951841403381,0.00716251206235791,0.00126975003728334
0.0150342740994503,-0.180881307307162,-0.00374044279091852,-0.00162915925593195
0.0292736728042588,-0.239006056837835,-0.00830150022037763,-0.00497728203923166
0.0264291898118967,-0.143793189464925,-0.00256283773384005,-0.00748434004675252
0.0145607696979433,-0.0298942179421842,0.00307032188438117,-0.00824955558620287
0.0114962069189867,0.0109521956092297,-0.000487078063971564,-0.00753624252977238
0.0171304936516926,-0.00409544475169327,-0.00901677047749005,-0.00636337647000841
0.026420404674448,-0.0267609567054485,-0.0141676622135565,-0.00532850269651626
0.0356017664202413,-0.0357709019322813,-0.0143715760429461,-0.00421789538963859
0.032165252915819,-0.0398989262010896,-0.011711635297066,-0.00256514530955061
0.0170319377173974,-0.0505015015204043,-0.0115206062111864,-0.000426656317986818
0.00366454953930745,-0.0612736101942053,-0.0172559542153735,0.00161531742335207
-0.00367371616503001,-0.064635134091194,-0.0246248627434379,0.00274953801247912
-0.00569431309109245,-0.0614246055865895,-0.0276020960843506,0.00231780422670044
-0.00428944803669229,-0.0538341481791875,-0.0250371966516985,0.000735627935909939
-0.00228927315199101,-0.0463344440384865,-0.0228851984793369,-0.000913164755788853
-0.00363240046182937,-0.0450295070956448,-0.022994568695448,-0.00123675528001086
-0.007357945161232,-0.0495642321119454,-0.0207144172589739,0.000793788458272178
-0.0050006646671195,-0.0564715720679849,-0.01597244474426,0.00389932374473826
0.00420774348465843,-0.0562218681631902,-0.0104178906840597,0.00449530131187141
0.0124768679913128,-0.0436973574726662,-0.00623288514388007,-0.00101896543202297
0.0148320828652407,-0.0353541020211625,-0.00574273970032066,-0.0116039092642421
0.0121404388045457,-0.0384213362548283,-0.0064649082355314,-0.0203126244972111
0.0068681420434212,-0.0374624909456475,-0.00639271488505501,-0.0215796287626775
0.00285283580539847,-0.032005770612463,-0.00542744283544943,-0.015774990886113
0.00143934567714161,-0.0273800183392277,-0.00380451746727967,-0.00630451981591738
-0.00648377634805677,-0.00112592135624505,-0.0038284346078323,0.00370718830529274
-0.0200102327085535,0.0474876402113222,-0.00490808541950375,0.0123763435401943
-0.0259069066637264,0.0678013981377501,-0.00545349615684402,0.0185483893566122
-0.024713195165799,0.01012847090362,-0.00834828771785515,0.0219162461881442
-0.0194653625830948,-0.102963439937624,-0.0139019184383793,0.0226799206556203
-0.0122005942104168,-0.163603005163395,-0.0170754253724474,0.0213280774412048
-0.0122849439335917,-0.11556223024781,-0.0154423261981303,0.0195131910213679
-0.0180884716705335,-0.0278900983741251,-0.0109449882431852,0.0185577292099087
-0.0210201050057593,0.026270098833517,-0.00663415213793425,0.0171284210692355
-0.0210313505102279,0.0412137645477607,-0.0057677854885029,0.0127977808419304
-0.0203199681725303,0.0332223692862501,-0.00859726196349139,0.00451664408150802
-0.0180313666786063,0.0124017499532256,-0.0120900393341103,-0.00658451940540093
-0.0132351891101581,-0.0133846278701754,-0.0139809218133588,-0.0177986611164375
-0.00749832620725907,-0.014998887157506,-0.0128675653394306,-0.0266864001347583
-0.000760191740074296,0.0320183642071656,-0.00935061743508399,-0.03050422154492
0.00925324164136775,0.0817358014539166,-0.00581940578317296,-0.0265525639748837
0.019062334658284,0.0774839658487492,-0.00289120848948927,-0.0157679017385238
0.0177056250087237,0.0421069954730238,-0.000989278730394618,-0.00269750406500491
0.00338562244560845,0.024273822783602,-0.000933255150827122,0.00828938896850695
-0.00982321681573572,0.02437506137105,-0.000539576703321138,0.0152258177090282
-0.0149143955793597,0.0237693833022849,0.00136511586179686,0.0182649066051203
-0.0145924644632421,0.0180582721869905,0.00297905897126018,0.0187713402586675
-0.0119099810218306,0.0107748078900675,0.00529615042578745,0.018185285543423
-0.00986305268749307,0.00452102418260343,0.00840311009964696,0.0170259342906648
-0.00771249103631641,-0.00116395086422753,0.0101515027907698,0.0151124855824804
-0.00845750110110457,-0.0066171741549837,0.0110205790186126,0.0120883327311641
-0.015649167459815,-0.0105377044179012,0.0119661542189917,0.00792516407178533
-0.0235187912610574,-0.01039358904471,0.012090792167247,0.00328496352095814
-0.0258623407965145,-0.00920238402103332,0.0102256012435877,-0.000927559855123352
-0.0231289413331657,-0.0093366580472238,0.00740699800723738,-0.00368114039955478
-0.0168539143340528,-0.00920223716782996,0.00472853066197275,-0.00394720395539148
-0.00653396810828744,-0.00931122163612639,0.00110414044705434,-0.00224142165022344
0.00404299396591752,-0.0105574688885624,-0.00180557157297352,-0.00083436757458653
0.00890822486584167,-0.0134735651246752,-0.00122660343163234,-0.00105662036747119
0.0125435837805841,-0.0176301341719919,0.000759948721754951,-0.00255060273589651
0.0206082252824265,-0.021508616751761,0.00339619666910591,-0.00453845379901875
0.0295126174921276,-0.0309992408935982,0.0080295104190231,-0.00588731771991003
0.0390839329751305,-0.0534715151316754,0.0126670543373187,-0.00598596804274606
0.0503988248802551,-0.0775857131132396,0.0128558579631381,-0.00539734326725522
0.0561256314539015,-0.0763260946549888,0.00952685850219489,-0.00502887521010344
0.0457176511570871,-0.0359097304195549,0.00984381298245609,-0.00512517448986517
0.021244140889246,0.0146315303497881,0.0147995188991203,-0.00515713389184756
-0.00170560617739772,0.0428791308183863,0.0196927703372785,-0.00509708641913827
-0.0159133544638925,0.0555337955860425,0.0219526419638434,-0.00520996197832679
-0.0216082755128037,0.0657324985007958,0.0226907731299727,-0.00498807508671285
-0.0195595076434198,0.0846546575936565,0.0241712027211805,-0.00330072021367108
-0.0160440090553116,0.113431936884572,0.0223185191371518,1.71741402622758e-05
-0.0168069794836501,0.136636543543745,0.0148164091851153,0.00220048632126035
-0.0185522254401212,0.141570319184044,0.010751616889629,0.000430564909336375
-0.0176274374036948,0.10839281346902,0.0157779714497683,-0.00401982550386385
-0.0181182396266302,0.0174344043427912,0.0219596059078893,-0.00827656483938646
-0.0194905467970025,-0.108585393080173,0.0207056349212431,-0.0112281371366648
-0.0210555537864594,-0.173792056504137,0.018097976169836,-0.0126831624891143
-0.0306166496102231,-0.126819309567091,0.022096740709377,-0.0119481141665398
-0.0450472842551684,-0.0535049740953037,0.0276389031729064,-0.00873813709291901
-0.0429278090470832,-0.0307609207881782,0.0266467641965484,-0.00463127615987197
-0.0156853339949979,-0.0487306254560366,0.0145659737173064,-0.00146078293846249
0.0165890103201284,-0.0716303929416363,-0.00337449393164069,0.00047102212449933
0.0282254828086791,-0.0665722137919673,-0.0127972463856076,0.00175370924667075
0.0199065047222911,-0.037160148543313,-0.00929047778406483,0.00284494149863573
0.0152396943169659,-0.0138700540643953,0.000534225155744777,0.00390854459388103
0.0286250741320519,0.0125694999708734,0.00990572201803235,0.00501046027967021
0.0642055300060513,0.0550082612391926,0.0138153185326985,0.00559070534274564
0.0993293694936279,0.084778413874217,0.0113745808015148,0.00445844775104937
0.0984235654915651,0.0930326811339835,0.0075918347399722,0.00179119332453334
0.0699405428310855,0.0768932215713598,0.00561076166329988,-0.000586411452275785
0.0354141581704267,0.031270363869438,0.00256579297793019,-0.00169252280360417
-0.00394764348227389,-0.00134159480471024,-0.000637849893437488,-0.0020764199559392
-0.0385249511520574,0.00031425339000485,-0.000415506124643812,-0.00269133517205682
-0.0512851345198414,0.00451956116022429,0.00360986040109445,-0.00378070020089858
-0.042146657070328,-0.00552563215480513,0.00856917870358465,-0.00473404056075444
-0.0247838836732511,-0.0211913808142402,0.00966638156645865,-0.00489988876987847
-0.0122661958116816,-0.0340959714536931,0.00691571816525579,-0.00437488696605544
-0.00896085079688864,-0.0420928940804237,0.00396057113344668,-0.00384430767039163
-0.00959511714317143,-0.0462101094263024,0.00168503979350913,-0.00262527343497724
-0.0127619595124399,-0.0474471419907797,-0.000617337695544213,0.000775387811717435
-0.0162778290028804,-0.044655775069283,-0.00308944085312591,0.0051778754709828
-0.0114259054138786,-0.0381285272615821,-0.0050361373723034,0.00715325717891377
0.00141867368144668,-0.0320044940344551,-0.00661894619942073,0.00541980275493598
0.0137955743627393,-0.0272409248559727,-0.00943380802159533,0.00286660118709707
0.0199939201094326,-0.0202838374207343,-0.0128914600434879,0.00344161969334753
0.0201455925031809,-0.0117145109940254,-0.0148683052255832,0.00778930725931968
0.0188552804823519,-0.00350154142281556,-0.0152494683096226,0.0125759188772714
0.0200633826419267,0.00324708452630076,-0.014643894394659,0.0144185095545437
0.0222929393116368,0.00533194337221954,-0.0122199690208053,0.0126515926437715
0.0239889014764089,0.00311757722738839,-0.00946341082156392,0.00806722074102303
0.0245332064479578,0.000742270405694433,-0.0079245929751763,0.0022712629782945
0.0216069758799222,0.000632345370801302,-0.00605821705054201,-0.0024893823432542
0.0171996193166388,0.00150880493430458,-0.00448382948448484,-0.00468516853938277
0.0159179720513386,0.0031164978902807,-0.00551255958927358,-0.00436458356445305
0.0178213304427495,0.00874706565665936,-0.00820021461344335,-0.0026725394131026
0.0181941595146491,0.0205091463630603,-0.00874764585328355,-0.000753476313838472
0.0170405636025,0.0309590018902727,-0.0076016886116826,0.000711300908407122
0.0171601001167721,0.0281186359986622,-0.005086569469463,0.00127494797830994
0.0116109409125974,0.0139379980298461,0.00103000612030901,0.000854089532214098
-0.00276124336420394,0.00309859664002401,0.00842458552524327,0.000184974900224932
-0.0192190431927592,0.00733406274886325,0.0141687086372043,0.000245913096095427
-0.0358279617374408,0.0225956337701606,0.0181168965513634,0.0012244947654177
-0.0527221620314274,0.039267602971343,0.0215698087853498,0.00239681731651543
-0.0665797675055493,0.0563228823076126,0.0242517560154978,0.00286110532479029
-0.0731694298118775,0.0723135652432965,0.0228307411209117,0.00210414626405217
-0.0716608388266501,0.0721149416009407,0.0148477161992801,-0.00122943907547454
-0.0611584115646226,0.0368035994078687,0.0029579335883405,-0.00757186211991169
-0.0390630015180522,-0.0155073952806618,-0.00644203044740583,-0.0124574059570059
-0.00550150845382311,-0.0363820127053882,-0.0119846213992409,-0.0113117873707849
0.0351662263103011,0.00674135774395827,-0.0173153232750382,-0.00559183127611772
0.0623636193205651,0.0789424226029859,-0.0192638550695318,0.000547395394257907
0.0577674875688581,0.0934250862393591,-0.0140700531581553,0.00496516700172977
0.0348899389417268,0.0479519108461713,-0.00779971551458103,0.00755022643108423
0.0131454499063483,0.0178429022155118,-0.00324473000294079,0.00890779434636555
-0.00393840262061101,0.0125693825851539,0.00148720591823018,0.00976571307887687
-0.0131712026568348,-0.00659638621450663,0.00302043009838284,0.00972113554092824
-0.0132506433602605,-0.026739366163465,0.00136679954124786,0.00627401545559182
-0.0179661472134229,-0.0207944781596074,0.00331209516947096,-0.00109424211378458
-0.0338854840416075,-0.0249236628823866,0.0094562801215315,-0.0064700878731465
-0.0455333728227583,-0.0713033267362653,0.0129224269013156,-0.00365404328829759
-0.0454168880088335,-0.101945861855853,0.0125565444800384,0.0050976929621504
-0.0384108993787263,-0.0687768617550525,0.0125433569913013,0.0111968124469193
-0.0194206173456862,-0.0230735167492517,0.0136405924826301,0.00720521186737736
0.0158977666825999,-0.00836409353029688,0.0155285972665687,-0.00863493057847971
0.0479855823901881,-0.00710146078616743,0.0167819564249599,-0.029627821329262
0.0518233469031076,-0.00084017470133288,0.0138455672903234,-0.0424616201986381
0.0342353907441499,0.00994938068599684,0.00412628347976457,-0.0378268458073901
0.0193606082231107,0.0299574218391684,-0.0115927426996533,-0.019021821978888
0.0151912549551727,0.0736856904224457,-0.0233985057826039,0.00238652857679012
0.013937241146317,0.1157349115899,-0.0207848067799019,0.0167139528884832
0.0100593223118015,0.108899495286443,-0.00892358267539674,0.0209931276977662
0.00662281426534343,0.0680305330325359,-0.000899552078490785,0.0175052698971518
0.00582320818279645,0.0421995855775199,-0.000878140901398958,0.0108549602274932
0.00765100856322094,0.0373203482391012,-0.00202716403980262,0.00548083698175376
0.0118095525921598,0.0277208116720855,0.000706522234227945,0.0032223472677313
0.0122075924417398,-0.00261046894944288,0.0043649014025885,0.00311712832759222
0.00815849758758049,-0.0399913526535138,0.0056118081123112,0.00360172569290631
0.0121460771859742,-0.0623464252918579,0.00093587967109118,0.00387490420454079
0.0236624391562891,-0.0805054817099388,-0.00874860353487374,0.00405250597801625
0.0247191744326645,-0.0961622146146305,-0.0128886979322888,0.00439023690711201
0.00778644498023201,-0.0836416965365505,-0.00664544571440375,0.00422792905232654
-0.0155394115501457,-0.0388033563097845,0.00304728549581393,0.00273961960733683
-0.0319610238593381,0.0175225541294033,0.00870299699294126,-0.000207703130032051
-0.0416202027956557,0.0591879316773519,0.00605926640422998,-0.00411153327497301
-0.0462164969771253,0.0771516540071284,-0.0016485755525656,-0.00800524088379913
-0.0366694897131719,0.0852334578318047,-0.00418560981991841,-0.0104677411443893
-0.0112063616185494,0.0838063679266715,-0.000424846315592403,-0.0100994330751586
0.0164431790187677,0.0573742344681711,0.00106287442624326,-0.00708503632702938
0.032964167914604,0.00920621000680363,-0.00331215502561539,-0.00326394900681029
0.0372869581763761,-0.0744956794291241,-0.0120426438132532,-0.000756471995837449
0.0368355448406106,-0.176934128690598,-0.023670472368076,-0.000540137832060372
0.0327279907338626,-0.187976133958012,-0.028512196845487,-0.00200619421159432
0.027882227349348,-0.0769203057941292,-0.0133134612988726,-0.00387301466805295
0.0330031640872924,0.0457114159602383,0.011745968032037,-0.00433061015614281
0.0343043734148372,0.0969646853982153,0.0272189831015974,-0.0020043324280141
0.00739455507130708,0.0899323618752448,0.0335464439885509,0.00199281722056925
-0.0314659076482795,0.0691821513761764,0.036006659891709,0.00520365797056598
-0.053847197014342,0.0469195728569489,0.0307082312002445,0.00663561134046815
-0.0534195730841932,0.0226090832058609,0.0194120727757185,0.00655941589196174
-0.0327462532766587,0.0208874388135747,0.0151755293769114,0.00560689627240086
-0.0108956778746781,0.0481068671315075,0.0160353759753776,0.00477992128341397
-0.00931534663994778,0.0516208354361938,0.00685471590816748,0.00419061880299745
-0.0174495793793332,0.00441454426650061,-0.008383222042338,0.00319381578119445
-0.0173115675325573,-0.0434305346059392,-0.0151340126259713,0.00186477399484943
-0.0196091428658325,-0.0587529136662943,-0.0118710384183095,0.000635218506310728
-0.0354478033531194,-0.0556012175382899,-0.00544302042832191,-0.000327353566326361
-0.0485555092079211,-0.0513980918015486,0.000808624286899297,-0.000952930933352602
-0.0472452947851613,-0.0535823918305151,0.00688837805000341,-0.0012384146006145
-0.0370297564630367,-0.0573937514949128,0.0111822014151813,-0.00133880499788489
-0.0214804907944527,-0.0587699918086227,0.0138557952023894,-0.00137830720595968
-0.00152546268530919,-0.0526056379894956,0.0150194646811517,-0.00119082117669663
0.0278297153216027,-0.00605316260412569,0.011653687787764,-0.000559115428011691
0.0603871993354729,0.0651391568801372,0.00756712847818876,0.000240318985399512
0.0835277201413325,0.0814620671958517,0.0095041039469457,0.000799201080768998
0.0947704231758359,0.0475543565780101,0.0142908216718318,0.00110251210214901
0.076955680680747,0.0217065794238189,0.0147303798200303,0.00125160401926924
0.030603281548081,0.0129929734163898,0.0110116420604155,0.00119412608278551
-0.0100465411024965,0.0124202483347232,0.0090015159974952,0.000785174777021232
-0.0224584473849731,0.0126178225736124,0.0104819409824982,0.000418806224104149
-0.00954993531628855,0.00742273952184649,0.0117734322159675,0.000603797529823861
0.00689106255541469,-0.00099917016502224,0.0126353778309694,0.00101875406989451
0.0103920970399269,-0.0117079060783411,0.0182670490900574,0.00128197778337583
0.000870192484725724,-0.0228578304799367,0.0262969717776325,0.00144963841471295
-0.0108718980383906,-0.0272584217354906,0.026866356393776,0.00158938370295417
-0.00891711442863128,-0.0308916268238801,0.0145645709607343,0.00161270966776493
0.00622275395974212,-0.0475686336723478,-0.00867342047999061,0.00144342926736856
0.0188131173264657,-0.0599970336871551,-0.0303410170033776,0.00112580769806816
0.0241811070815896,-0.0337653358086417,-0.0348602829697544,0.000779662681134024
0.0318425987352788,0.0254906672496611,-0.0207767093274621,0.000732356316908139
0.0391512078348714,0.0781045718230761,-0.00166779053250859,0.00116049519291172
0.0288519365702967,0.094401617169249,0.00771524007397587,0.00151675394772427
0.00258817120830247,0.0786240981315935,0.00331524004937681,0.00119855002113804
-0.0149378813725381,0.0732354978065492,-0.00391408641099384,0.000480335429493732
-0.0137824255137929,0.0989031625971727,-0.00326850069480121,0.000355117425518055
-0.00717278200955043,0.106838241624067,-0.00237716558745173,0.00151760484004703
-0.00409107549916862,0.063165842035789,-0.00680797687920516,0.00318638475861279
-0.00569492999948976,0.0170670474152982,-0.00515877345847872,0.00399718432567748
-0.0213002141169429,0.0247342435847212,0.00703115574453254,0.00378849443718569
-0.0524406476830938,0.0609169938316323,0.0207367387137923,0.00320879018210037
-0.0712567141159779,0.0716077050545779,0.0258844723454248,0.00246982476802478
-0.0580026318728582,0.0683369458899288,0.0199968616071693,0.00136724056312634
-0.0284755069608676,0.0730712006463789,0.00828898505247735,-0.000379624248911135
-0.00138970344621726,0.0364856856013703,-0.00269966541816737,-0.00286197593314529
0.022211296436308,-0.0544466094275678,-0.00657557176874298,-0.00515979534629482
0.041479392210042,-0.116846462616127,-0.00367056018034909,-0.00580121088019084
0.0472001281361553,-0.113515436711873,-3.42832817829836e-05,-0.0043947723345878
0.0396753032594344,-0.0792940188224186,-0.00238200974545027,-0.00197094761733854
0.0334859634239456,-0.0417603911606871,-0.0129512595447378,0.000180366534337571
0.0374008983149023,-0.0169299651476735,-0.0258709498561418,0.00130430383836264
0.041672766514736,-0.00442312721007913,-0.0314398159808445,0.00126407437131222
0.0393934800492985,0.00996511452991501,-0.023431956163366,0.000472421347224736
0.0344377485252453,0.0240682230430522,-0.00973369147891073,-0.000478420859745313
0.0138148530142945,0.0307074449352894,-5.4537784533109e-05,-0.000938080636571287
-0.0319042502409486,0.0296163735097485,0.00436890407065115,-0.00057204922383835
-0.0774863542613804,0.0238925505177242,0.00537834900289599,0.00021444007760681
-0.0943417201922308,0.0179171473473036,0.00525045952480187,0.000791304173192844
-0.0811564786012564,0.00990089406257189,0.00360584656539079,0.000916559325285173
-0.0570785204630859,-0.000212728827867111,-0.000812443409642584,0.000441392045220234
-0.0415902760996543,-0.00947992603699846,-0.00710623415443068,-0.000968991898910101
-0.0366410768033689,-0.0130759936403988,-0.0103585755181301,-0.00294731241821917
-0.0288659996296263,-0.00988398653935792,-0.0074758688784927,-0.00417048256677192
-0.0129783943339973,-0.00734494835865005,-0.00201985483860394,-0.00381563055653116
0.00690472102815105,-0.0080540783740013,0.00255264097071208,-0.00236052167778928
0.0276640578799081,-0.0123257459629148,0.0048348079108996,-0.000895845577713664
0.0453627649533848,-0.0221127106550839,0.00400205100466273,0.000198387705100565
0.0587992597444478,-0.0343012765383248,0.00544229936729356,0.0016307326938777
0.0650756936047699,-0.040228335335054,0.0120417028657598,0.00349699417591365
0.0496890787638242,-0.0305931996776362,0.0165640346985108,0.00464105100988081
0.0114912008476234,-0.0101343459585359,0.0146568010121532,0.00377976718798328
-0.022174781558268,-0.00393088435755303,0.00764069632233739,0.000879634764555121
-0.0281646331105288,-0.0329634632426862,-0.000551405113727775,-0.0023929552643307
-0.00952692309546797,-0.0725739052686275,-0.00389630337906757,-0.00466899448240388
0.0123666975647491,-0.0781453413793646,-0.00263891047679827,-0.00592933938375228
0.0185269917646247,-0.0523730333702251,-0.00305594119438142,-0.00592127350729226
0.00731113181668656,-0.0241242457232835,-0.00482104356748971,-0.00392310526297305
-0.00673119015061728,-0.00572877931187133,-0.00244606601622993,-0.000689809841576706
-0.0112567946689704,0.00272786341895044,0.00235758003673289,0.00175146506034617
-0.00716344861760792,0.00349452052131026,0.00177354907588266,0.00236075227091542
-0.008453298458965,-0.00243054669263736,-0.00471288092749271,0.00158642228989607
-0.0206200937476873,-0.00778776032704297,-0.0101996740241896,0.000271870963232402
-0.0253840169924231,9.81517633339042e-05,-0.0111992018694787,-0.0010213370047624
-0.0174149080271851,0.018792162281858,-0.00730819667259787,-0.00174382513546618
-0.017347570822429,0.042012800022379,-0.000599850421147866,-0.00158130262081517
-0.0283813555546143,0.0772863901309411,0.0069746909776694,-0.000863183618634595
-0.0314777505365218,0.11194044822275,0.0146316753267186,-0.000250893010513169
-0.0281567169999815,0.116106332642243,0.0199827511855562,-0.000111408781457209
-0.0290691844735039,0.0784060822098482,0.0210892812480152,0.000137933778388393
-0.0271489023157093,0.018465995165505,0.0192856191126012,0.00119983330205028
-0.0183153619361047,-0.0207845408860611,0.0178256735589475,0.00269027883848996
-0.0151604878333497,-0.0285460245137359,0.0162163298181428,0.00376316061138403
-0.0181706189290477,-0.0518095584166715,0.00957503195469381,0.0039660918090608
-0.00497077002943259,-0.135305253925717,-0.00505731814928386,0.00334487143401675
0.0360767689792034,-0.223734153973154,-0.0203864941973246,0.0020610804479052
0.087361212940714,-0.207017915008292,-0.0258074378980258,0.000176428991243443
0.110245427522766,-0.088847853689033,-0.017731383042666,-0.00187280557164117
0.0846328957010939,0.0333206938698985,3.07796553187245e-05,-0.00322515451930916
0.0378304724694249,0.100784756471017,0.014129647449301,-0.00348256244689353
0.00110587465420678,0.113436661470527,0.0136505752307732,-0.00322610901422411
-0.0251943864729351,0.0890696859095395,0.00268412126683854,-0.003054523060105
-0.0431739612189537,0.0448409133006206,-0.00519635907217363,-0.00314840415758152
-0.0461815922478867,-0.00495544123663466,-0.00446251427665936,-0.00331091109211356
-0.0375977492467418,-0.0448221265889452,-0.00284593315094024,-0.00277629753709968
-0.026465560896096,-0.0644986127155805,-0.00319380389625382,-0.00137472524004531
-0.0135202848482251,-0.0637266150974585,-0.00297615847635781,0.000442338855745764
0.0025827546492058,-0.0445631235239443,-0.00250004112419225,0.00238349134421616
0.0148420278908784,-0.0183216855837183,-0.00146485351722156,0.00390492609030152
0.0167841793381121,-7.95524205735865e-05,-0.000346751086512782,0.00479311292764054
0.00821035919755569,0.0107164333760949,-0.000614983954206001,0.00525791782288249
0.000150091905775872,0.0217403289351662,8.08931919916217e-05,0.00519379228979106
0.00959289419739697,0.0163913097891154,0.000777273409594746,0.0047780009598063
0.0332751056564713,-0.00422158452205617,-0.00239691682039316,0.00453584189646532
0.0508308756727119,0.0161771183203403,-0.00650735772742528,0.00436709398723701
0.0412716336825873,0.0733870864416931,-0.00423604513464296,0.00346520288044491
0.00905088752806753,0.0796208653985138,0.00543967147533674,0.00116471064545832
-0.00745312900050366,0.00319915838341789,0.0104862526162793,-0.00231448815882965
0.0061173424179527,-0.103940990342963,0.00413304168841033,-0.00614313572239358
0.0303238425113241,-0.173624913569521,-0.00416299775833119,-0.00944794133421151
0.0565760330109297,-0.162371174931959,-0.000595110305585601,-0.0115456883235985
0.0769452486561986,-0.0870823806693533,0.0143162843620356,-0.0127336544096074
0.0727221494137692,-0.0115778132360501,0.0235363198072531,-0.0131829661656185
0.051746109750481,0.0416391864808329,0.0231389935233611,-0.0111738701569307
0.0479472129542831,0.0817269141722498,0.0211750313121952,-0.00545125180599179
0.0639607458532804,0.0806323573415433,0.015561217158617,0.00217670153703693
0.0786550101281143,0.0252731715509083,0.00277397249439467,0.00844659695685088
0.0817750024299542,-0.0349496354081813,-0.0108527415640245,0.0115646391354048
0.068977599873074,-0.0460028617846437,-0.0132984640565465,0.0118429450329744
0.0488473771358114,-0.0158169743189527,-0.00225244037847152,0.0105556536895966
0.0329683567358815,0.00975205111444343,0.00956832111227103,0.00896136634760008
0.0185935452993363,0.0167777426699012,0.0134474603031273,0.00761176914097738
0.000861028684269599,0.0200406954277941,0.0123560369594989,0.00635648717342736
-0.0253623935691325,0.0213763872369188,0.0103559981689932,0.00531325014855696
-0.0610632516619698,0.0237372987152069,0.0129377598961869,0.00492341635558567
-0.0858426869535745,0.0384697862831171,0.0210437268527405,0.00525946125348472
-0.0814989901751182,0.0416232794715747,0.0244403638048789,0.00541378599121476
-0.0555512327008008,0.00665622587117629,0.0140792317231607,0.00352633282504428
-0.0292849927245944,-0.0232827868921147,-0.0130603099491513,-0.00130242805172219
-0.0149613110270873,0.00373670191306175,-0.0431934114169005,-0.0075940539356998
-0.012504237353294,0.0682765321307756,-0.0482814261242673,-0.0126876770122811
-0.0186661567707866,0.109750020797733,-0.0305349164250063,-0.0146898064067468
-0.0122573210808121,0.0850065053256825,-0.017408344421638,-0.0136862093259238
0.0143939890341794,0.0247918311855218,-0.0145302931629313,-0.0111054472234382
0.0239089070779773,-0.0152129833439879,-0.0131267863544472,-0.0074507351041325
0.00191850565532478,-0.0543821550629298,-0.0148532473528186,-0.00265862290340248
-0.018079707347076,-0.117485883069382,-0.0199167882395191,0.000595570938691522
-0.0148465041567685,-0.153983698590171,-0.0147872168342741,-0.00137704417049155
-0.000211485400667538,-0.116751311264106,0.0086086964559068,-0.00682091691450647
0.0129250593095303,-0.0410888859625467,0.0403419619526613,-0.00942044775343473
