-0.0166882618860825,0.0203259020564106,0.0205528187024998,-0.00297454270153463
-0.0137150072713306,0.0194530931279124,0.0169347609514737,-0.00304377983106405
-0.00454007895142898,0.0139386782054019,0.00989973418172789,-0.00291356149700074
0.00426446262438638,0.00127575424570518,0.00215952023776238,-0.00243108789996289
0.00899355679396935,-0.0125208441569838,-0.00281506499466955,-0.0015982226229763
0.0107242121339609,-0.0249449969423059,-0.000356041018879914,-0.00017484898080686
0.00934272409243996,-0.029120346747791,0.00853316724144491,0.00173675602097574
0.0025840088315879,-0.0162297444564768,0.0150043967269186,0.00303085935689089
-0.00535773640107388,0.00669750295070588,0.0147521029916206,0.00300726724854125
-0.00676651376965032,0.0231930142944187,0.011821169433985,0.00208263074609785
-0.00323702784396966,0.0252403222967219,0.0100628853539899,0.000732853470530384
-0.000771455367127225,0.0195200076793009,0.0119585494392059,-0.000982684122837824
-0.000781506916986625,0.015669825932344,0.0164608246714754,-0.00263210780648685
-0.00338354358861099,0.015263166650501,0.019133798302312,-0.00323130889516565
-0.00960732172543167,0.014312509939964,0.0187885144267306,-0.00219774054453849
-0.017046665869925,0.00706324206736513,0.0171042271191173,-0.000225262066400825
-0.0232953811416071,-0.00678037319794082,0.0138238174787638,0.00124389072654341
-0.0279063632866278,-0.0139541697080962,0.0103987613681475,0.00137517758377677
-0.0309206627108984,-0.00453457524810973,0.0113420404766964,0.000526230305991188
-0.0322818946378004,0.0105105124788193,0.0137999924924001,-0.000246308268034553
-0.0256473970066087,0.0177120091018044,0.010628673202436,-0.000243689419014176
-0.00762291071851557,0.0114626067743533,0.00314374649342897,0.00040909789861695
0.0125820144257838,-0.00918704057643397,-0.00298281573775951,0.000816226304764551
0.0239781926937718,-0.0290190647862184,-0.00355758923182754,0.000105026332668271
0.0248739840792643,-0.0302795977940587,0.00155817382459415,-0.00141468658409093
0.0193362045408845,-0.0191701320675405,0.00631886421684239,-0.00248047344994244
0.0118115885778541,-0.0137426167129602,0.00641740409638929,-0.00222114280362443
0.00614019796113006,-0.0138850557653922,0.0034257659621211,-0.000988406557982094
-0.000415102079851584,-0.00578675065824951,-0.000152763033689937,0.000380067452986999
-0.0109305645412841,0.00736527642422023,-0.00336510267412962,0.00161909928935132
-0.0230566268407854,0.014444312625855,-0.00440052895481485,0.00285245666989051
-0.0328606064726184,0.0163668845436633,-0.00205557927913403,0.00386987391870542
-0.0341115317427959,0.0132706428767963,0.000642346904072024,0.00403386553734071
-0.0265175883704271,0.00412958480102921,0.0032769481893494,0.00303680752623157
-0.0164488747718896,-0.00957751195981315,0.00834073884818333,0.00152545549408497
-0.00601033547137975,-0.0270885676874547,0.0106865748229353,0.00073934292759237
0.00525801891218475,-0.0395141012662953,0.006625712996358,0.00114499361179273
0.0119711452630013,-0.0350654586554438,0.00344633597468424,0.00202463952373742
0.0103558364219567,-0.0227553721993317,0.0036945869213116,0.00263027644205258
0.00787300983279421,-0.0230854178093729,0.00337444834745138,0.00244792744708375
0.00997466689809481,-0.0352282788244181,0.00132193680113331,0.00132319102125742
0.0120010148486042,-0.0390265074195431,0.000247877080681903,1.13886209346832e-05
0.00961362917491677,-0.0245161814208229,0.00262147997739191,-0.000496371055006804
0.00478443549083742,-0.00657519535424646,0.00356374464152864,-0.000184965179986972
0.0017661873555873,-0.00117103754626573,-0.000119824259319707,-9.32980382594659e-06
0.0012415906437779,-0.00250391584109773,-0.00497395048983335,-0.000710467311283678
0.000113300999605503,-0.00122017568031543,-0.00818280654271909,-0.00200307540551163
-0.00143208284963932,0.0031288237701868,-0.00837445308718256,-0.00292231397108485
-0.00024357265443235,0.00777552671553185,-0.00661799641244847,-0.00290378556741608
0.000986858851113885,0.00627211216509667,-0.00593976425647418,-0.00226121538736016
-0.00345423312998201,-0.00227672293247119,-0.00791017044162588,-0.00170902984285176
-0.0103673277484197,-0.00971233444642145,-0.0119949636225862,-0.00170790396427566
-0.012883954787086,-0.0107616559771528,-0.0127506625595218,-0.00215228661879379
-0.0109977694061792,-0.00841490037319268,-0.00596346151022933,-0.00231956419446211
-0.00633420472456905,-0.00772621894075566,0.00158702847530348,-0.00128036351368075
0.000329453703617807,-0.0115845942203655,0.00340454603901786,0.00097644731494937
0.00446635764863909,-0.0149285450286452,0.00192062334728304,0.0029313833044756
0.00354742495052297,-0.0125579981329937,-0.00117057784661262,0.00288083551907738
0.00247768107135421,-0.0143989658433976,-0.00391806305253552,0.000985934492267545
0.00278482283876919,-0.0222821721246137,-0.00407545682052127,-0.00114547153971655
0.00226197003170678,-0.0257158695358714,-0.00340407699024419,-0.00244504688853676
0.00165504103699416,-0.0217571049470967,-0.00128150702981732,-0.00301832588841732
0.0044112097679118,-0.00955077661940988,0.00260555011852573,-0.00291324462969867
0.0101056353087649,0.00358628690634349,0.00618747863556566,-0.00167557126850811
0.0119310260587972,0.00594213480204859,0.00761074901284121,0.000655021088715961
0.00815888586439248,0.00244509590017466,0.00565170693483419,0.00297879105698983
0.00158918526365054,0.000988586576000431,0.00103415565185954,0.00380026600486715
-0.00554327708638793,0.000972717916283477,-0.00463549143207187,0.0026367638993296
-0.00752639741763355,0.00788834098637213,-0.00730185147422182,0.000256286456933028
-0.000423390406441899,0.0212396324021252,-0.00648450100510564,-0.00168422126530988
0.0077924194502543,0.0235351266761837,-0.00735389042444124,-0.00176382106241318
0.00610043832555163,0.00945417118496054,-0.00726114082078554,-0.000620004347932817
-0.00471471733152568,-0.000918968500885867,-0.00165211742350255,-0.000109136136229033
-0.0131642045477569,0.00232707637228259,0.00363331057041596,-0.000566767460364012
-0.0190275152745854,0.00740166022856731,0.00546394845298328,-0.000897309358743228
-0.0297629076292044,0.00669563547924775,0.00634610772944756,-0.000477696363043934
-0.0364221835159399,0.00370652778232365,0.00538644455839221,0.000564035587825153
-0.0314240468409627,0.00639092401919277,0.00433682655175694,0.00200617538554364
-0.0202711516961852,0.0144531092851701,0.00722904196693272,0.00353043008405481
-0.0160332323882494,0.023508517120586,0.0124128849378763,0.00456672323253445
-0.0273223863234679,0.0310277332785421,0.0159502663079836,0.00458525550250281
-0.041811279128136,0.0287562905756227,0.0156822913472361,0.00311865641609359
-0.0415808460390527,0.0162856434435863,0.0116630517198474,0.000443766789694791
-0.0267033157665164,0.00352137891962199,0.00720111803173679,-0.00164953454863246
-0.0134046420966421,-0.0051962271154511,0.00482019881029534,-0.0017903709777423
-0.010239050234959,-0.00977445756620766,0.0034322431402469,-0.000751636632087436
-0.00987155077362661,-0.00779129405108578,0.000601156525676433,0.000181140984245636
-0.0045281775899015,-0.00288911340838302,-0.00229685456658933,0.000509862609525177
0.00613804511673054,-0.00533049184835307,-0.00205687980275006,0.000587531588773749
0.0180659907157967,-0.011801255251017,-0.00176490525579267,0.00102304339740818
0.0247020577196468,-0.0116573671917988,-0.00369860331578641,0.00145700335638208
0.0226901327367912,-0.00544771852634325,-0.00409873468142455,0.00153802498398136
0.0167871530055208,0.00246743310282842,-0.000866934808317489,0.00194441377676309
0.012914602524579,0.00425785667322748,0.00226470763335056,0.00276163456771658
0.00749441774001896,-0.00189701907316542,0.00261113318099309,0.00307728167046666
-0.00355269003560346,-0.00168979367591485,0.00363777979398382,0.00254418126440921
-0.0110491267028302,0.00838787374635712,0.00595636521534082,0.001618705384676
-0.00858817796891717,0.0105135469441168,0.00615177009109422,0.000857730995120804
-0.0028694238180725,-0.00658305417540105,0.00300124017344394,0.000514789354270194
-0.00101993706014347,-0.0256042652549137,-0.000969807930224116,0.000277223137236894
-0.00381406086241362,-0.0246365203848489,-0.00279192377197562,-0.000327178074201147
-0.00573807941677706,-0.00601296177059086,-0.00265925478127462,-0.00102954162933379
-0.00194791805249047,0.0134013611808373,-0.00114126959531438,-0.000914655890197481
0.00609180543902172,0.0211366450392924,-0.000229913807305064,0.000173754586603456
0.0135789317778203,0.0184355294566177,-0.00233822155804731,0.00118131915842435
0.0137658374536445,0.0131721535796645,-0.00528288970901888,0.00117090448913116
0.00542007110246465,0.010519457791833,-0.00670689089222574,0.000223659039722806
-0.00340679414377033,0.00829037745842395,-0.0075860310586453,-0.00100652148874874
-0.0084958788767178,0.00242874381367453,-0.00957269922937475,-0.00195893421174913
-0.012269043086432,-0.00352714112302981,-0.0124806514438389,-0.00235167292383925
-0.0145516269480013,-0.00691895707915456,-0.0144583649156668,-0.00228408069476116
-0.0103531329024711,-0.0099410577057409,-0.0153839696630879,-0.0020560143439197
0.00294917694732021,-0.0126782124579487,-0.0161082291477879,-0.00186134648713098
0.0186000939833023,-0.0151224686449783,-0.0166065616320482,-0.00190622900511812
0.0276556322807984,-0.0242271918362289,-0.0174307297379315,-0.00204343110408102
0.0294116401182335,-0.0388579233506723,-0.0199819836171489,-0.00164984904682997
0.0298909107356255,-0.0461637709714366,-0.022127986447403,-0.000751855246318939
0.0305385506040174,-0.0422332270069611,-0.0206125354814978,-3.00022785838247e-05
0.0254636289051965,-0.0286735319179531,-0.0167250147354315,0.000126322988104239
0.0175106723181068,-0.0120608411976819,-0.0135875942904745,-0.000245501186855769
0.0149429705974102,-0.00308113689856207,-0.0128511642372639,-0.000650768498953686
0.013388861530791,-0.00239449221824852,-0.0128937509848443,-0.000574606168438232
0.0068642699954504,-0.00394178827509714,-0.0116028479639466,-0.00024183376612146
-0.00105852315266807,-0.00412728259142821,-0.0102564271895048,-0.000186243908449571
-0.00561825259948072,-0.00327997593360321,-0.0109390175133456,-0.000494896910856675
-0.00744907771721517,-0.00239728015876799,-0.0127236456429505,-0.000935040463895268
-0.0115863810079337,-0.00189426799437589,-0.0151460602863907,-0.00112895484914743
-0.0180090504944418,-0.00181922081139765,-0.0179474918566395,-0.000815790621095392
-0.0203603331177089,-0.000636042783451377,-0.0188966040553564,-0.000221236727009462
-0.016532383499107,0.000759723322267323,-0.0177588196842866,0.000310923044804601
-0.0097139017936177,0.000206982191766465,-0.0177266534627792,0.000570425335950676
-0.00405569982825246,0.000952505219885777,-0.0188940436949021,0.000327621921218339
-0.000258159711378391,0.00578265007244548,-0.0166633890382049,-0.000293657194387707
0.0075342403120282,0.0103317467677318,-0.0123199806106694,-0.000771608288599071
0.0172908544046158,0.0129137876561019,-0.00831703719946696,-0.000809292108759426
0.0158387019715758,0.0188503676120085,-0.00344305193087394,-0.000397640558835017
0.00472931828065523,0.0218368510228056,-0.000871822050604999,0.000410575071846098
-0.00323974151545117,0.00521398782032204,-0.00437784690811896,0.00128387730594382
-0.00463679976700939,-0.0302887979666535,-0.0110618006490106,0.00171141196137593
-0.0028636170295121,-0.0583783567879446,-0.0129143814484559,0.00156461017006163
-0.00429161379867747,-0.0566210392768409,-0.0106332634354568,0.00118831291109494
-0.0112853172560061,-0.0347752581545134,-0.0105447026522248,0.000737619081301632
-0.0189069113641643,-0.0125382847218412,-0.00954707904472469,0.000345254334337659
-0.0253673987299271,0.00535727953754818,-0.00629364421143758,0.000798607071331222
-0.0317858902295332,0.0175031743306432,-0.00463422479933774,0.00242412723461606
-0.0329927222158161,0.0223538314660918,-0.00339131136595679,0.00398414258891267
-0.0230301630404998,0.0185811015260571,-0.00392837178839877,0.00376804682916981
-0.00652139301620371,0.00198864040165726,-0.0105982819103387,0.00159654537662259
0.00641906716441715,-0.0153289208888644,-0.0181104753414036,-0.00108560729841965
0.0106798866080232,-0.0125310723963106,-0.0190578740685401,-0.00288089526977652
0.00804121163503443,0.0157784566015674,-0.0115237216048099,-0.00306926337149535
0.00797948404143424,0.0507563782191802,0.000888216851686444,-0.00174745697956735
0.0136847365223585,0.0609187122327818,0.00878062974958554,0.000173827847423862
0.0141476895899305,0.043869489396033,0.00975164455411781,0.00148184737911626
0.0080453798654384,0.0250794830733236,0.00916814828799907,0.00164111125742807
0.00301434068761855,0.0161386292364947,0.00658811764711757,0.00135547729275734
-3.91075643145743e-05,0.00481957145349638,0.000557626661146785,0.00138141681321642
-0.00172241159474277,-0.0137921181106826,-0.00428685436654482,0.00149916052379738
-0.00278009562733528,-0.0276367632654901,-0.00824239208683773,0.00100584944660662
-0.00173697738678135,-0.0291045459121087,-0.0129819109185414,-0.000209626908896587
0.00159512005779436,-0.0197700840257849,-0.0122284629672843,-0.00141269084744495
0.00282200618422358,-0.0105672914767825,-0.00469039853603311,-0.00158198675222935
0.00378323958723657,-0.00901032833637542,0.00111496854583275,-9.2457636604368e-05
0.0071233448300592,-0.00771921887768844,0.00140331961138069,0.00268586233725733
0.0111532700465729,-0.00111240730439534,0.000105517637206584,0.00525634668463375
0.0150161769296637,0.00757170407911267,-0.0020132161380238,0.00579353111076
0.0156428458026302,0.0159221428643178,-0.00683126911327649,0.00331637859591906
0.0138337403949864,0.0223376108105652,-0.0131049088848919,-0.00157637741812546
0.0125545779705502,0.0196562313233115,-0.0197820573740144,-0.00692305839937083
0.0116533462339569,0.00621794330416094,-0.0257458931237194,-0.0106053209373162
0.0133919198309812,-0.00612843656658127,-0.0245143192155757,-0.0112081552057107
0.0165791879822133,-0.00702400185887087,-0.0151688767269851,-0.00839009534421863
0.0187475437128768,0.000193322310347613,-0.00651126827241287,-0.00370175155488507
0.0214907015888601,0.00689612643483137,-0.00181795582833854,6.96462914534807e-05
0.0217300447447226,0.0101618380456906,-0.00157478466977389,0.0016646729123956
0.0181677940551821,0.0116109808404871,-0.00587259248761793,0.00210970290289956
0.0144203414085957,0.0158189085005586,-0.00819052576256051,0.00242000667184087
0.0127921346089722,0.0236249388213016,-0.0060975554735836,0.00219278544620759
0.0147171490869281,0.0287941270858038,-0.00469426402362193,0.000741234030527992
0.0174061317702146,0.0232924153364801,-0.00707098903664946,-0.00147189531132764
0.0174676416095227,0.0099024414657808,-0.0103231949308211,-0.00318293648360203
0.0155505131856595,0.001343096805543,-0.0109252028056682,-0.00376756105164133
0.0141062967623601,0.000655176546859041,-0.0104180943975537,-0.00360086063526977
0.0122058826886851,0.000833729968731701,-0.0101290978806956,-0.00358346757787051
0.00784059891840903,-0.00204891861219587,-0.0101623004596473,-0.00374178241491826
0.00565943388899066,-0.00375389394640029,-0.0108527115885075,-0.00276824589130262
0.0108079389876538,-0.000931039135075917,-0.0104474405376174,-0.000598679920702202
0.0177947258230759,0.000199120668752314,-0.00999244474376613,0.00103611307638689
0.0178916165816057,-0.00938472888727854,-0.0128489531108574,0.00128314975734432
0.0133036429350532,-0.0222235394126704,-0.0168066597478566,0.00080887613698085
0.0113519209638934,-0.0211292405336891,-0.0170637851936365,0.000317410770172425
0.0113511801383622,-0.00888206829688062,-0.0134412951513558,-4.35145921286358e-06
0.00710929877250729,0.00176988792354394,-0.00966884160865866,-0.000192279051521975
3.18119152429835e-05,0.00773830242894602,-0.00746105760247995,-0.000374627482259643
-0.00349011189071596,0.0115585312371487,-0.00478337682510613,-0.000710444956471283
-0.00353261351970753,0.0175382914955894,-0.00122936402362956,-0.00123638267223501
-0.00492468574295691,0.0263821590142975,0.00238673922774781,-0.00173116738366627
-0.0128239916541118,0.0327630022093865,0.00570652191576302,-0.0015382922082988
-0.0244883728403687,0.0314615770659226,0.0054508625666665,-0.000238804454334764
-0.0272834286199021,0.0253264438255939,0.00212674112988547,0.00136799553142919
-0.0171494400757977,0.0181189179799289,0.0003691378526214,0.00214651685494663
-0.00552572825254356,0.00985413465058984,0.000619645964698114,0.00216999517467871
-0.000661848248014588,0.00422387850727322,0.00104400855275231,0.00223940219506824
0.00331477559138689,0.00227515040884411,-0.000121680570905829,0.00260345077182575
0.012521769216131,0.00118943389313846,-0.00224843339807925,0.00285093489627752
0.0186821885376767,-0.0011366528191849,-0.00378828051425195,0.00246492101635316
0.0100499244561232,-0.00140857859293462,-0.00381486687909271,0.00144831364215893
-0.00706866192847949,0.00536625573746275,-0.000753401518063853,0.000406161950029015
-0.0187049600237261,0.0132183321112025,0.00365392899970202,0.000257576696782971
-0.0225602026588768,0.0153164902058698,0.00486875333052686,0.00149783494422315
-0.0203071601461982,0.0157570008877988,0.00201751888187278,0.0032366045256663
-0.0130813620575506,0.0201785510203458,-0.000663847336294496,0.00412296538603136
-0.00597875501247042,0.0221032123665316,-0.000225666849806683,0.00375008106055504
-0.00492215815548757,0.0118998344222392,0.00181558072771272,0.00246164299528731
-0.0116577688844642,0.000343565634267729,0.00387705931112083,0.000914615666436932
-0.0220936041904249,0.00409780455709285,0.00679468311279666,-0.00046206541048983
-0.0286171319278569,0.013712464868225,0.00968322379470272,-0.00154264679908895
-0.0258593280389026,0.00889658497131847,0.00930768942603212,-0.00187917844768541
-0.0147677694918934,-0.0019515976230506,0.00800111711166369,-0.000406797314094535
-0.00663602920797767,-0.00346800587143713,0.00895807906178165,0.00321007116764639
-0.00543102600630374,-0.00540554361561615,0.00831703863412012,0.00700437597954057
0.000402879487447686,-0.00908065761824826,0.00624220575721318,0.00837435241974791
0.00778475784648741,-0.00517653113517107,0.00693400004351987,0.006533316964288
0.00250926309025968,0.000599833439822412,0.00674625520754584,0.00255903211373811
-0.0126958282328072,0.00334088182970514,0.00283215683859117,-0.0019828101308356
-0.0211827968143471,0.0026763085856089,-0.00161923131265959,-0.00576384584074235
-0.0125040447375714,-0.00149360693834348,-0.0055519149426022,-0.00714938397550583
0.00511581262513764,-0.00225370399747305,-0.0075831416232268,-0.00463154504245588
0.0152261373707334,0.00539451541071247,-0.00490974011306793,0.000897191733180123
0.01105443508888,0.0145859554215792,-0.000129773008422684,0.00571716659191304
-0.00169251250008993,0.0139255649232973,0.00283005164760111,0.00669805101637099
-0.00951785487306904,0.00575567036768549,0.00499734625044594,0.00438164681765531
-0.00576263972804779,0.000652963704734676,0.00738580296391776,0.00136993227684905
0.00161852927085266,0.00368711532377669,0.00897289449551238,-0.000951256254049885
0.00446130896383146,0.0105471304768214,0.0097159361431497,-0.00253938158158907
0.00311245573149053,0.0104935767634238,0.0109817160413705,-0.00356197567352461
0.00132973854509759,6.68809725987863e-05,0.011407757663213,-0.0040584167399479
0.0025780670131462,-0.0118039085544547,0.0093832669652497,-0.00386908836170785
0.00767057484790852,-0.0149354555837607,0.00646363324811756,-0.00279979741792165
0.0139458764621372,-0.0123194021868543,0.00468803404052417,-0.00121431249933945
0.0149564977263244,-0.011784618706555,0.00255303652978371,-0.000161988458283276
0.00755271617085369,-0.0135538856768556,-0.00132667450534706,-0.000340845866185734
-0.000400656728660928,-0.0134522747637716,-0.00321661417215525,-0.00137977943026892
-0.00297900237074533,-0.0110455752404423,-0.00392134119996255,-0.00217672840934492
-0.00403176686477433,-0.00991557273836242,-0.00561440965436989,-0.00197632516501213
-0.00758297612437666,-0.00678244542114936,-0.00427544694310148,-0.000942303547138805
-0.0102445393440815,-0.00117547617385516,-0.00129539738624495,0.000324263145142281
-0.00725382218888848,0.000495878949267283,0.000674811874922295,0.00105035653056993
-0.00391513385612953,0.000586867987191771,0.00475600144573233,0.00100285993877641
-0.0071100626726317,0.00208056199369034,0.00857273804293611,0.000857679906159548
-0.012936364220348,0.00221571853293003,0.00776698111059845,0.000782044905111997
-0.0116387885341961,-0.00607356863771776,0.00276975587851567,0.000438163732429243
-0.000995130752765146,-0.0231921739710904,-0.000562746260192593,-0.000224748565343909
0.00375552784702227,-0.0299076284726788,0.00260441292243864,-0.0014150109462943
-0.00774224635217886,-0.0217388335896501,0.00813236182368082,-0.00302136030749845
-0.0209089718025845,-0.0170425886396697,0.0101935257646561,-0.00418963437458223
-0.0223392195627053,-0.0147324703503594,0.00886020216018354,-0.00426278795638225
-0.015839443289587,-0.00395093266066709,0.0070665780669193,-0.00348577454101969
-0.00768108269128149,0.00860821036496236,0.00477193197153412,-0.00238542848000697
0.00153918755058411,0.0124012510718431,0.00102828353698498,-0.00110165027344638
0.0148405851172236,0.00547408911264757,-0.0017570514006546,0.000306707641833118
0.0263678331575035,-0.000625613821392337,-0.000455552275181449,0.00157953849543448
0.0233078477548378,0.00510395101852841,0.00213664265158485,0.00216739000325407
0.00777244379210124,0.0143955097626904,0.00233426077430527,0.00148959043360812
-0.00578267580755348,0.0242097696124535,0.002741834671547,0.000188419878050504
-0.00891559282814599,0.036085965031196,0.00559868725817557,-0.000113060362657372
-0.00878573805913154,0.0359994350625144,0.00868127779396516,0.000759289168288944
-0.0134165299646842,0.0201899019943105,0.0091417981874531,0.00136759791327648
-0.0184879893758566,-0.000446592844665333,0.00744469900394907,0.000796553927503125
-0.0225326187722426,-0.0219070568733672,0.0057100990927551,-0.000542648813062054
-0.0342837199332274,-0.0334171026644091,0.00669350090699404,-0.00161821400585348
-0.0523347687145411,-0.0208646933910975,0.0115717074557661,-0.00169220402818553
-0.0585216595481592,0.00272254041632405,0.0145161962890902,-0.000763532068641346
-0.0494947386332706,0.0177064425226764,0.0129162191200821,0.000449170303632904
-0.0364955430376099,0.0224958474386309,0.0106132681053053,0.00104253400583204
-0.023115346908508,0.0142165084786262,0.00862901326655861,0.000881550514450991
-0.0109759660553314,-0.00694106124331799,0.0066174060629177,0.000483062278911219
-0.000648640777199061,-0.0224318279227773,0.00490562482259016,0.000173755112455705
0.00524715975654267,-0.0185832647763321,0.00462286582011611,3.59966432440559e-05
0.00346564596074923,0.000173205555996855,0.00676543727629077,-9.04316167712262e-05
0.00179575499343429,0.0146873722802954,0.00890226674652906,-0.000389341761863929
0.0103031667409849,0.00452179723613001,0.00711705241496014,-0.000401466750903483
0.0273146409534793,-0.0115410182381355,0.00158256916359531,0.000346374260601568
0.0362514936925578,0.00329330679766399,-0.00214462231187287,0.00140589178558487
0.0240727596394647,0.0351122997652012,-0.00248403196643256,0.00181536954441953
0.00205928565645254,0.0409932225947384,-0.00512217879510601,0.000920424616310049
-0.00895584861534063,0.017865735091214,-0.00764320935304143,-0.000983329185299849
-0.00405794802464917,-0.00400292804242868,-0.00420842138976151,-0.00244519182760506
0.00833377691738061,-0.0091608870354836,0.00119888630934338,-0.00215754941652922
0.017972744001351,-0.00319330521531396,0.00329630451463105,-0.000389410712574514
0.0177275388076632,0.00448105225986073,0.00339753846543783,0.00130391192232185
0.0117334110490515,0.00777271385512471,0.00492313792526708,0.00153308736840374
0.00886105123668763,0.00284749881481392,0.00713624731139986,0.000520965282397375
0.00836813947128678,-0.00844590807587147,0.00813284467805363,-0.000214828073696082
0.00785681929796189,-0.0157585260506553,0.0089194810228879,2.69828761564339e-05
0.0106335675871012,-0.0132312028017554,0.0117140905985791,0.000453169599377302
0.0125277226089949,-0.00661798383922644,0.0160425036100186,0.000579752438876947
0.0102024081722486,-0.00189681598888482,0.0181644542448244,0.000731816960312635
0.0113186567896772,0.00327223224408821,0.0155320588401886,0.000904922026322022
0.0182143908561906,0.00679838609939691,0.00979709608224796,0.000806915623465889
0.0240692965816957,0.000780312337956,0.00436416263779403,0.000487675887694895
0.0238106315384826,-0.00984489396430526,0.00205902476433186,0.000284005277304841
0.0199706631112982,-0.0127759269874529,0.00256514835442677,0.000343425328183192
0.0174311658901819,-0.00680795209814173,0.00329699638260175,0.000408997611226439
0.0185230653812265,-0.00048435853972952,0.00196259012582996,0.000452155026263844
0.0225723286119916,0.000287188643250418,-0.00198173844514182,0.000513615139633465
0.0250475778594015,-0.00334617049843032,-0.00479987358144222,0.000267023332499829
0.0228706043936379,-0.0053003978503119,-0.00494131262802725,-0.000243582746721113
0.0190853117880225,-0.00425331033742376,-0.00472219160129562,-0.000838689602411627
0.0175101076172923,-0.00548648393456442,-0.00303404572707574,-0.00134275103852494
0.0168399741128262,-0.008753714397576,-0.000390077118547333,-0.00106248207053704
0.0151080733102727,-0.0103020530323817,0.000947380458417647,-1.71763953500702e-07
0.0131671842054381,-0.00977764147241943,0.00295087354078075,0.000681959586507722
0.0112270747045473,-0.00922646726749354,0.00595010983770454,0.000361800864713339
0.00780892795436646,-0.00857241798272947,0.00924084269219428,-0.000293832040866152
0.00349070332577081,-0.00784211972651525,0.0113286722030429,-0.000458941140404389
0.00313966096426328,-0.00949213305510145,0.00902176520790991,-0.000304306578484911
0.00804663120712983,-0.0126825305502393,0.00597889630375761,-0.000265410470450516
0.0123123462561166,-0.0157190557835451,0.0055958050460374,-0.000229913805019602
0.0119217211822872,-0.0145719298750756,0.0057693276190954,-0.000135005967920399
0.00917906231982379,-0.00818557144291345,0.00722979589332442,-9.09127588339797e-05
0.00710537175413631,-0.00194529667344711,0.00939084304946338,0.000144751488919504
0.00611641904194193,0.00335037492766607,0.00888860112559291,0.000967249949862355
0.00514789135527087,0.0068291563211597,0.00559563320673576,0.00207667328073752
0.00515468218250526,0.00666939371134149,0.00261519781343744,0.00261863681464954
0.00767371138764106,0.00141378541707545,0.00019324225596482,0.00215641342825956
0.00826767864570781,-0.00708110106797781,-0.00169166720363209,0.00108871207500566
0.00377422770831762,-0.0100651251293233,-0.000201117706980392,0.000111608694146144
-0.00171591414370754,-0.00594850934156795,0.00214923867667667,-0.000491244892843657
-0.00545958949341862,-0.00252881336501288,0.000395462829549936,-0.00054940278071717
-0.00781387178073141,-0.00451366918205186,-0.0036749871257225,-0.000201297063086494
-0.00889866200648186,-0.00827195988356666,-0.0064361450219692,3.67333400024176e-05
-0.0104262833321766,-0.00739137809690141,-0.00637836149362682,2.73888802189018e-05
-0.0128851461822395,-0.00159827288840905,-0.00294631532534998,-0.000438878125831332
-0.0153518633055659,0.00292838755380534,-9.47873686694542e-05,-0.00158741029277066
-0.0184602880448201,0.0026482410870432,-0.000178380494481031,-0.00301744054455667
-0.0203592000850295,0.000227706292878537,0.000278761055370533,-0.00422537073962026
-0.0189513428541763,-0.00221767945702636,0.00451174292786507,-0.0049791206715017
-0.0158607550449592,-0.00356723037641753,0.00969725913498715,-0.00462751301894803
-0.0122971994056997,-0.00321007888101565,0.0110515033870253,-0.00235297796594666
-0.00844138086457517,-0.00455877108124148,0.00874005866079059,0.00129983548361521
-0.00478666913911253,-0.00853168581563089,0.00488259834835534,0.00419524397799339
-0.000971314091983885,-0.00998776322403116,0.00126684197617047,0.00452753917437903
0.00215058746778489,-0.00851134377736997,0.000421190884237442,0.00281358349952147
0.00350290803022271,-0.00511399626249832,0.00320006357387513,0.00113672395540109
0.0043671875379984,0.00698492482392608,0.00782437883131278,0.000724453950795685
0.00170289621495323,0.0251529186300575,0.0119512849991046,0.00100128592014187
-0.009200820140073,0.0363185542099544,0.0115965231946741,0.000832691215932418
-0.0247714611713726,0.0383442884991152,0.00793431704819786,-0.000127366939747764
-0.0370105739485546,0.0376755379729904,0.00680062547215241,-0.00148267737676583
-0.0427139219049105,0.0355069869565831,0.00547562443346751,-0.00259867315799627
-0.0446327577790348,0.0343778162740977,0.00239852247085928,-0.0029863730121811
-0.0441791446559784,0.0407190743011829,0.0037032049484452,-0.00229549396228822
-0.0401434734580065,0.0481371874983608,0.0115830700409148,-0.000230857245914416
-0.0328159819428739,0.0405500127540211,0.0196160937528387,0.00272531192566937
-0.0240607670095338,0.0138569401605922,0.019923493464698,0.00494470345397803
-0.0137001294682157,-0.0197673995204418,0.013765399809364,0.00512039094989486
0.00029727803619916,-0.0500368494148037,0.00468995703856195,0.00352934898061513
0.011761506374056,-0.0670705618767006,-0.00372577317060557,0.000972582704863175
0.0110251407852167,-0.0604059664030196,-0.00731098482533413,-0.00203624579922351
0.00504586060796717,-0.0358253348718017,-0.0061661526897763,-0.00460054971215532
0.00388659066358398,-0.00274778989743008,-0.000765098133163191,-0.00538367748038521
0.00181374337543663,0.0293305278324735,0.00582797840255403,-0.0038548511219796
-0.00398561767269647,0.0486402499445784,0.0101556412188796,-0.00107410168449664
-0.00639194221543275,0.0549747762029825,0.0132643634671913,0.00151797993802482
-0.00580586548393157,0.049367884006999,0.0139191276274557,0.00306603762216244
-0.00912538954821212,0.0347327950001944,0.0110998190369351,0.0027981555586236
-0.0109504113585952,0.0197288949364329,0.00835556017391526,0.00108586973709748
-0.000504004399076781,0.00507442489551994,0.00791810080880574,-2.47033646798825e-05
0.0131203179953724,-0.00547130697571196,0.00958565612026072,0.00075207087598034
0.0153563434464922,-0.00655149310516723,0.0111056103243911,0.0027117811781843
0.00774989723041018,-0.00296801012988979,0.0116179122542444,0.00419093054423009
-0.00146402024436044,0.00177643027464128,0.0135622365950889,0.00402899579078296
-0.00426354162111505,0.00209460347291109,0.0136452393432707,0.00243228456777297
-0.00273693373400296,-0.00772447846321722,0.00834142241577268,0.000356977212961113
-0.00272378334232237,-0.0182811318059727,0.00308947170950548,-0.00160278560232946
-0.00139132356748372,-0.0258230756816267,0.00132291018009667,-0.00309218554682024
0.000532383435780361,-0.0337766696012062,0.00100708906271253,-0.00370634598094861
-0.00135958482010924,-0.028015839092055,0.00250261177678028,-0.00317274446373379
-0.00448805583810404,-0.00688827154088013,0.00472668174353201,-0.00153350546557763
-0.0051631020853417,0.00946010296912896,0.00486063452503935,0.000530820972314138
-0.00582612844620471,0.0121548004973769,0.00415142138951608,0.00201069260706797
-0.00510474341312687,0.00435609735278629,0.00298246368243556,0.00234584705814584
0.00228111846015683,-0.0118792476745679,-0.000671857887411753,0.00172626472725545
0.0139205429975466,-0.0309084099935143,-0.00544796077925799,0.000595154275050859
0.0247330088556848,-0.0407511715469943,-0.00760882915332685,-0.000543277094178556
0.0333286138962043,-0.0438775728347505,-0.00917352657549442,-0.00115526694336559
0.0364201610739202,-0.0467754753313515,-0.0116369259457612,-0.00123213082132111
0.0336138926826028,-0.0447256945254152,-0.0125106145226684,-0.00103527506656554
0.0312143099519948,-0.0381368901072574,-0.0125510016093353,-0.000791532087144969
0.0301605021517616,-0.0333570295759915,-0.0114811227290487,-0.000726113218834814
0.0255932604727601,-0.0312337588325509,-0.00661905785041787,-0.000778656350820199
0.0171522056526365,-0.0262564778605177,0.000595730051102947,-0.000727815898933881
0.0100081130213136,-0.0187510488567234,0.00453990609183462,-0.000513026575232742
0.00790556540145021,-0.0136402512969701,0.00388498463573369,-0.000276677298149427
0.00833420144985649,-0.0129265205901143,0.00191615560889873,-0.000197569707883604
0.00805267770454132,-0.0147469233285669,0.000158483441206823,-0.000390856611177611
0.00818992352257629,-0.0158389931381813,-0.0013549215619807,-0.000777674666039577
0.0097239373399445,-0.0158017957483404,-0.00271425297910965,-0.00121617491011712
0.0106053131713176,-0.0147579087452152,-0.00361791870972927,-0.00170101688278166
0.00896306210871058,-0.0133957201481724,-0.00395754205715414,-0.00199650473770731
0.0070986590719555,-0.0128657900633021,-0.00526347507231113,-0.0017246005597421
0.0056531543712371,-0.0141890411142734,-0.00804732374861841,-0.00118509637609959
-0.00017401805381194,-0.0154126447584007,-0.00983275646153123,-0.000987506101762564
-0.00966186759605756,-0.0119507301903364,-0.00876909376863128,-0.00104183176066109
-0.0193362758048191,-0.00677972526037309,-0.00635481085106695,-0.00088211507037724
-0.0263952730703833,-0.00486080225732028,-0.00593239650164849,-0.000385607426028051
-0.0273031977862555,-0.00383220854061603,-0.0067268420137396,7.36885902232066e-05
-0.0274827831049602,-0.00170482937568136,-0.00493707113890706,6.66393942313706e-05
-0.0349549823312002,-0.000970294897195847,-0.0016063153376483,-0.000435489004285218
-0.0466940869183883,-0.00633879453237706,0.000547164034944763,-0.000697927706233576
-0.0513823342218526,-0.0192331178195035,0.000479940434497964,0.000572938640886809
-0.0438857665384865,-0.0272951759977333,-0.000302650061020118,0.00293138064226265
-0.0275080859009659,-0.0189681075042664,0.000888402577629613,0.00375877996165433
-0.00686952922510552,-0.00731373345404195,0.00162347176320789,0.00212116902458053
0.014061186767123,-0.00460829956394767,-0.00127556354869696,-0.000156978927438683
0.0290212724293819,-0.000622618766932553,-0.00310398714783642,-0.00160542378345702
0.0302017883894901,0.0137602090757161,0.00106982639508123,-0.00210705426538527
0.0204564693036069,0.0292860484649117,0.00555768084874475,-0.0020552854898636
0.0109411826856846,0.0277541984061445,0.00461570228097312,-0.00192190904734934
0.0109151306655608,0.0128222918891743,0.00210456053222009,-0.00169147812907702
0.0181245924729331,0.00657770897957709,0.00215094534780981,-0.00116363985614454
0.0196849968318737,0.013287896267181,0.00202716212656238,-0.000323377266078248
0.0113858717966111,0.0237815356133354,0.000517446621201512,0.000564945102949149
-0.00242293951747916,0.0337258026255585,0.000850818759431243,0.000735571561934925
-0.0160728072331331,0.0398207337315805,0.00257469543567466,1.04235234040201e-05
-0.0240359808298303,0.0391005390492482,0.00465425467982788,-0.000761255263098937
-0.0270518748218302,0.0360299431128818,0.00717047289096722,-0.00094994626180447
-0.0271821286158827,0.0340491273277294,0.00866331201124276,-0.000449210017984203
-0.0254530375287893,0.0222835330675609,0.00562382782510964,0.000596251254015776
-0.0244005616452323,-0.00224467279431853,-0.00362709556312002,0.00156464918929561
-0.023417405761647,-0.0164197047132372,-0.0125613873982805,0.00198059541031763
-0.0180380567905367,-0.0074866706426529,-0.013838010313664,0.00243968512342529
-0.00821385203098126,0.00441191288227005,-0.00854464116164725,0.00343519946385516
-0.00269896789889548,0.00430352937348876,-0.00367110180718986,0.00406374591016338
-0.00478631051328242,0.00410045290380392,-0.000772400913399505,0.0033296580195105
0.000131959394727231,0.00558087864205803,0.00254324530540855,0.00136861834835464
0.019797322574911,-0.00287911446400479,0.00493995045636272,-0.000845074668028461
0.0390990637753298,-0.0148885819348417,0.00699175254958061,-0.00225935792584328
0.051162943008428,-0.0269650225716446,0.00788895303010368,-0.00248029819864139
0.0588679649558013,-0.0429162158339164,0.00504990303417667,-0.00180215818722924
0.0554248192370874,-0.0451322174455813,0.00254590162534028,-0.000884227761202427
0.0406303515858426,-0.0218972948539294,0.00460335410454233,-0.000252568240443244
0.0254208924577862,0.00774202566616039,0.00893004666098958,0.000136735194586109
0.0153356440140081,0.0260090789911359,0.0096280642840353,0.00040092860341557
0.0111528098154336,0.0305990191769881,0.00443294442935878,0.000557342469638507
0.010804463301702,0.0261053078199233,-0.00284436681245732,0.000526380495340218
0.00794027520010894,0.0226633440217086,-0.00866034222523665,-0.000235216807645118
0.00172584383685328,0.0274098853132947,-0.0109705643296776,-0.00183613315711385
-0.00373715156618647,0.0335943682161323,-0.0101209489047369,-0.00313871962322882
-0.00679365645267805,0.0250904981246164,-0.00814569132230282,-0.00284681425466514
-0.00641375170155358,0.00368136863009617,-0.00574015473544094,-0.001324069302312
-0.00194056048138956,-0.0130028339158956,-0.0048221191380233,-0.000246733789631415
0.00313393920078345,-0.0198888222138875,-0.00641925673793935,-0.000106459460674792
0.00438855921519501,-0.0187062745651418,-0.00623594945961743,0.000484953498149464
0.00598655819189603,-0.0115248161848308,-0.00144420577353451,0.00286213869464847
0.0131615317458055,-0.00687598077745621,0.00278725634878056,0.00619417056126024
0.0210861849227385,-0.00850435188909614,0.000640479243535341,0.00796084147281643
0.0265287419462504,-0.00992657952170929,-0.00815865745891749,0.00656782186846441
0.0295587215985236,-0.00362165147141613,-0.01472869205263,0.00248361824391474
0.0243158968497723,0.00812685831897152,-0.0114026654549738,-0.00210104658742759
0.0124334605464395,0.00885520444956008,-0.00600374439761114,-0.00452871090672967
0.00400172025265448,-0.0114864148873996,-0.0076606057617401,-0.00413735752224492
0.00162496490048865,-0.0315726820530792,-0.0117100654859835,-0.00241819135679715
0.0025838968988354,-0.0299517430116916,-0.0108645170356509,-0.000930377868002442
0.00181198652744703,-0.0148953023207075,-0.00690022538509891,-0.000378184367745944
-0.00810594931547612,-0.00062897606306745,-0.00484153990980245,-0.000717395801535376
-0.0273085873176026,0.00579720426935546,-0.006873843545896,-0.00127220776061985
-0.0423536571849126,0.00676110296270764,-0.0100249897890449,-0.00117640275551994
-0.0420511277685855,0.00730831380090795,-0.0105196266088524,-0.000309871457119922
-0.0354394063996544,0.00844742354565653,-0.00956271203712387,0.000719213776647527
-0.0332855729397102,0.00968372028328916,-0.00830535759923745,0.00150843590941292
-0.0348574956541068,0.0096031532367597,-0.00630400802488535,0.00209306601651773
-0.0374968767527767,0.0131663001403697,-0.00430522706465605,0.00224259414996908
-0.0355556131486697,0.0219877279487523,-0.00234285953161799,0.00170454513714129
-0.0264667621830475,0.0268674280683414,0.000332882510633485,0.00105288424642417
-0.0150556650898722,0.0232986670664291,0.00311231576213769,0.000776878266667532
-0.00633778992450695,0.0171522569582186,0.00381063490024381,0.000574722217034599
-0.000871062116652478,0.0155036127521197,0.00296407311674608,0.000437163430734509
0.00307311809057688,0.0148948173118414,0.00361487534485365,0.000723113760149061
0.00726447841995014,0.00681591598261447,0.00380305572274426,0.00144377395541075
0.0104623775548057,-0.00504601433278168,-0.000106070322730147,0.00238193325243655
0.0121778587715391,-0.0231367507664778,-0.00717402951619238,0.00307969442433606
0.0192944259242599,-0.0491628364247691,-0.0137402748140437,0.00303290880560034
0.0284563582940942,-0.0524975863980839,-0.0153200356387659,0.00219932904857309
0.0248873529205495,-0.0204226197335015,-0.013117598536736,0.00089383176228402
0.0111180769080507,0.0137679750587956,-0.0141399067143835,-0.000441464555648381
0.00253988888410109,0.0258643374214798,-0.0178142274656661,-0.00109212505870868
0.00488972090442817,0.0194740125626443,-0.0182069175067681,-0.000744387421043947
0.0117592267660297,0.00620403246789101,-0.0160657794581438,-0.000184210310793765
0.0128257712022628,0.00137673659300395,-0.0118075885237556,-0.000266705833686446
0.00325874522350201,0.00842668919765324,-0.00635572650827392,-0.000623255056661427
-0.0150591658386825,0.0156262272683291,-0.00345363276725854,-0.000419623375000891
-0.0306786537482804,0.0143078029248403,-0.00151377264837003,0.000198465700241734
-0.0307153001813776,0.00296274117082505,0.000417038799101505,0.000855339479857302
-0.0204701923467216,-0.00894602489485493,0.000947325093216604,0.00162965425768816
-0.0143454853610883,-0.0138708767032559,0.000712941815877453,0.002141581878601
-0.0111253762061883,-0.0160890738948333,0.000790354460166635,0.00192841601718117
-0.00332008212194563,-0.0176773627143088,0.00201706371764721,0.00133956408809981
0.00469977586839233,-0.0166183102353443,0.00335769962023934,0.000775031637297586
0.00787069208234929,-0.0134755690955315,0.00264663756794963,3.19579176289491e-05
0.00956052335490238,-0.00880378161219232,-0.000477938793472486,-0.00107914704924101
0.0131801918494951,-0.00383354259225772,-0.00404962289079344,-0.00229875788614925
0.0179205229921564,-0.00637927732731733,-0.00644260947004903,-0.00316429900181827
0.0235221793169227,-0.0150352756633262,-0.00752854727072242,-0.00311962982456706
0.0288710913652033,-0.00943453916578847,-0.0055780110884936,-0.00199246633971604
0.0289057533586962,0.0110287951811876,-0.00247846668188008,-0.000243317827275254
0.0237783553722657,0.023306811125759,-0.000418749043791128,0.00130437135976213
0.0193562025794619,0.0186370211347074,-0.0003253823615725,0.00166343393950437
0.0182391025536651,0.00166457222353735,-0.00483099382725675,0.000502863949140234
0.0196461332531167,-0.0121569347921434,-0.00940150493870207,-0.00149496762061621
0.0224221910753356,-0.00775960516542594,-0.00937283109115619,-0.00302494556632612
0.025957497841077,0.00382240491948695,-0.00989720586489471,-0.00324871087374062
0.0251751653521105,0.00576487094649671,-0.0123219972896427,-0.00241844394525034
0.0128483367915713,0.00194500570487024,-0.00942147145387567,-0.00111475490824948
-0.00633757876873699,0.00265883253883192,-0.00289277571880146,0.000177975922114973
-0.0210096668509808,0.0105542943674255,-7.53630920248202e-06,0.00095916123558635
-0.0283236243650305,0.0221189465205891,0.00197160756347843,0.000898536428878319
-0.0310193399777346,0.0296362458932996,0.00430545056355112,0.000233692938756114
-0.0299617229026904,0.0298970568267383,0.00401219618743431,-0.000522002518071002
-0.0258397720277829,0.0296896110170671,0.00461655638844568,-0.00111100565919084
-0.0207059100344978,0.0317671807388957,0.00558194919866161,-0.00162114691051212
-0.016100837903711,0.0256605580554017,0.00453574900664089,-0.00218169401620126
-0.0116382979314643,0.0113351827911924,0.00330069703735264,-0.00268789112189745
-0.00486521620969537,0.00454961362305956,0.00217499651589719,-0.00296402818223396
0.00141720924648915,0.00347726008333608,0.000509908586784858,-0.00306711085036857
0.00462125221312288,-0.0018934449020879,-0.0021911660612468,-0.00330840583231423
0.00779869345817838,-0.00376204075170559,-0.00504428095463887,-0.00366858463671793
0.00922120164092686,0.00384976996771219,-0.00740834136176246,-0.00343196572528678
0.00542484027697404,0.0127352767166948,-0.00906259808678591,-0.00205081294116219
8.48279514834155e-05,0.0150020421602712,-0.00784852196727365,0.000155701554246022
-0.00560346960970585,0.0141473914206133,-0.00241085494042273,0.00235874274164474
-0.0131003766180347,0.0155094958155256,0.00271291218264656,0.00351456632788982
-0.0180031704254741,0.0178927121635442,0.00357883209558702,0.00302115956798425
-0.0214992096355815,0.0201417114584086,0.00305179007670787,0.00134525837486948
-0.0249235352897644,0.0198980574004951,0.00233200826750826,-0.000348013849792805
-0.0211264189086904,0.00449630872853218,-0.000845439537524412,-0.00117431687985089
-0.00845410302357496,-0.0263000925274874,-0.00620138245144635,-0.00127334611613474
0.00435580138978356,-0.0371022094668736,-0.0103293342068129,-0.00124467923420783
0.00986949922970677,-0.0136738696421938,-0.00979421220535099,-0.00103198471854833
0.00816542163606028,0.0113253156184423,-0.00565650252295501,-0.000343395151663397
0.00124801031372168,0.0190242477571461,-0.00137399539548985,0.000558533432946358
-0.00626524782957569,0.0169749079841372,-0.00120516597542394,0.00116762820143692
-0.0102175863349125,0.0101138768630919,-0.0065293052134393,0.00065869521524659
-0.0104667713050989,-0.000499207897438891,-0.0113690108881114,-0.00127737146454797
-0.00722380741025826,-0.00833342783477722,-0.0106265621353594,-0.00318986980570219
-0.00421247891844992,-0.0068634353558293,-0.00612564850782465,-0.00320003850003343
-0.00350381759732132,-0.000823882223538186,-0.00310517878825575,-0.000860051946407436
-0.00186734870776791,0.000637999398682995,-0.00292047897984175,0.00252763172437169
0.00231770183960026,-0.00466395371116524,-0.00392084166708305,0.00492411637501073
0.00750887914139394,-0.011500519158697,-0.00597564162603654,0.00541770203579081
0.00974600382352021,-0.0155437893574618,-0.00633550423022112,0.00465213333371065
0.00615760471841168,-0.018099590093883,-0.00446256982896719,0.00377411339586385
0.00170866811334193,-0.0182219929663045,-0.00331425358136411,0.00317295804892342
0.00251954674084764,-0.0165068265525733,-0.00144566957236276,0.00249276633024162
0.00521133860782651,-0.0167589641059544,0.00130081696338311,0.00177645873020512
0.0055562116059913,-0.0169953749808305,0.00218102159233777,0.00100892090352779
0.00362037929134475,-0.0156470848722704,0.000900076535379643,-0.000130743234710955
0.00110214957031082,-0.0149116301075633,-0.000482031883082348,-0.0013319710851669
0.00241138142207392,-0.0152101599649765,-0.000750399144184525,-0.00204183882051276
0.00405706984789818,-0.0150576486680888,-0.000273251847648543,-0.0023136726261908
-0.00222184840071926,-0.0137001086779842,0.000643870032537263,-0.00224702868328197
-0.0100300551809041,-0.0123785662166052,0.00132647480836136,-0.00175749756995261
-0.0100854524540623,-0.0116307704003086,0.000720656721509786,-0.000929959209359293
-0.00595872468988984,-0.00952894158759741,-0.00124192901517977,0.000137345321430382
-0.00295522635733866,-0.00224903851170052,-0.00306020373189962,0.00131042045156519
-0.00166669308893099,0.00963809766382155,-0.00297174729316045,0.00240510086159607
-0.00323719976621586,0.015702559349881,-0.00265208883042944,0.00295470044287871
-0.00418139000978549,0.00833007803518391,-0.00564321609070177,0.00201461442742761
0.000741680645445915,-0.00447067226399567,-0.0090363028749141,-0.000488743115946006
0.00358772959999167,-0.00645176707734677,-0.00651999502855163,-0.00255280884927932
-0.00224981276045707,0.00253969216917535,0.000332139023247685,-0.00197775542088546
-0.00744758978393132,0.00496963644033271,0.00511015892443337,0.000907620842291623
-0.00554273353832006,-0.00567747331516988,0.00619324004702647,0.00368664593298636
-0.00140753898010808,-0.0220506039991573,0.0040238144668559,0.00455627315551489
0.00234301213507392,-0.0340227536216754,0.000802780977571519,0.00345591977723627
0.00291811222778214,-0.0334261808060255,-0.000711717243752462,0.00137241482235192
-0.00339492804823269,-0.0217350741776989,0.000966174378404534,-0.000624987292161652
-0.0104826767707109,-0.00762605529668422,0.00764569506760939,-0.00199062743253109
-0.0140015470665262,0.00391212466907814,0.015153331716097,-0.00256504351656626
-0.0182456080617719,0.0131504275690445,0.0199211832013594,-0.00208130537087258
-0.0246433845028154,0.0206349596758805,0.0230854273439294,-0.000517176046543223
-0.0312475436842998,0.0264357017035835,0.022433281874315,0.000973535230348451
-0.0360086080020806,0.0278083834126122,0.0174767937061277,0.00113709695647284
-0.0364706467174658,0.02272402015264,0.0116325206942134,0.0001989608332115
-0.0328117651014197,0.0156435037540342,0.00856943993205573,-0.000780223795970576
-0.0295815826995997,0.0135179509565798,0.00886346070493791,-0.000888796724229715
-0.0298587306933792,0.0167235951134711,0.00946803089028282,-1.12183065027266e-05
-0.0293725642755122,0.0207351062771791,0.0096445336817037,0.00087577038960242
-0.025896217914196,0.0237644063905259,0.00822473275124021,0.000821970707352885
-0.0222551358558386,0.0273656531832709,0.00555715838026297,-0.000287503091973385
-0.0169493212160297,0.0307780070974676,0.00374016809259317,-0.00195056977068249
-0.00740511348727403,0.0263729552345784,0.000842063378149339,-0.00337501233496204
0.00568175472267578,0.00478107160070243,-0.00326797100939928,-0.00392569710741986
0.0188413866221704,-0.0264461298989721,-0.00521046880629281,-0.00347081481932838
0.0250483582245077,-0.042842063921299,-0.00358142567078739,-0.00231018743900192
0.0228486659627403,-0.0340277154546746,0.000296905340706989,-0.00062639626012136
0.0168648273452485,-0.0109510916306961,0.00532017302163706,0.00150159258554763
0.00848967224970147,0.00697617488062869,0.0102718095951082,0.0033466591808902
-0.00106564760398343,0.0133612083216228,0.0137517306780685,0.00388817961482093
-0.0104046461248695,0.0180737251273048,0.015573779494696,0.00297090096279305
-0.01669994271522,0.0209281116904251,0.0163331463565083,0.00160829485295595
-0.0174701132280544,0.0189619449855677,0.0173653134016982,0.00101960624946652
-0.0156567975711905,0.0170029000842172,0.0186900203732066,0.00136736417793874
-0.0136935236247074,0.0153987582119303,0.0184729671885462,0.00198184866769973
-0.0120379570031815,0.0122948313354996,0.0145649375388514,0.0024495776335035
-0.010599901634745,0.00604318330115766,0.00648284730998223,0.00256435642513084
-0.0105702402742839,-0.0038701249103478,-0.00148147796336492,0.00163850006799788
-0.0150022163512272,-0.00860118329972696,-0.00361202175099504,-0.000925292521777206
-0.0218117793705033,-0.00536595031958019,1.13091360312984e-05,-0.00430975786004497
-0.0242544714606211,-0.00517408321627562,0.00418148199313839,-0.00636083330086288
-0.0226913164422398,-0.00765117359922566,0.00702426594599799,-0.00560086320421725
-0.0250282803803687,-0.0042859745777666,0.00918072621657932,-0.0028643686257982
-0.0283989254104697,0.00268158793856288,0.0087258353431709,-0.000190777503727551
-0.0229614483493392,0.00810165612317853,0.00811261762794396,0.0013235464769857
-0.0113119095256114,0.0131569047656417,0.0110429706198299,0.00174177925952935
-0.00130606146653556,0.0172931831541504,0.0109711623840502,0.00151403641137477
0.0031361384435083,0.0162642753077515,0.00526755136508361,0.00142803802906735
0.000431797328065919,0.010828901586951,0.00273523947769514,0.0022394294390091
-0.00425617344563467,0.00571813788846379,0.00554564253225921,0.00360723262471923
0.00131750572232766,0.00576719096978253,0.00803018143829023,0.0039205319672123
0.0174981656788631,0.0119047785875924,0.00904373191567991,0.00225192543797011
0.0307742970462075,0.0166989825590152,0.00973345249430315,-0.000384161329129559
0.0359643065890723,0.0119356194910893,0.00798171318201508,-0.00239509557326117
0.0340477756261177,-0.00700881194110133,0.00141249113872455,-0.00301227132357206
0.0244369658808386,-0.0324310993879992,-0.00783056152397382,-0.00296121099823524
0.00993250207899596,-0.0441606799431661,-0.0117271568670373,-0.00333148375151053
-0.0047718480949135,-0.0376919260313542,-0.00891742512193778,-0.00365285559805143
-0.0140758221275152,-0.0273655242433067,-0.00731653700672026,-0.00295945309093667
-0.01500463520369,-0.0265081079716193,-0.0092615770347512,-0.00150271714602132
-0.013869538859564,-0.037793018932204,-0.0099815540241613,-8.13613348565967e-05
-0.0188000439973422,-0.0452468584247106,-0.00696299065741244,0.000660163007521641
-0.0256642075953516,-0.0310143066434948,-0.00245600655995133,0.000537410953946097
-0.0186593878268173,-0.00768500527845521,0.00217156858135417,0.000300099864712693
0.0083317221929219,0.0024178725968676,0.00548073084105768,0.000680235295591096
0.033527842031564,0.000463720359570811,0.00432591435142481,0.00156083437215594
0.0315719195183693,0.00101375574495375,0.000752235878338378,0.00192558777732388
0.00952718017806026,0.00901747697217091,-0.00228029382070423,0.000562139378339399
-0.00716039084202569,0.0167949970167948,-0.00334301284704692,-0.00215144548772412
-0.00918785925322278,0.0173256189475719,-0.00252424832697073,-0.00452714529341776
-0.000581411690560456,0.0119042270134867,-0.00365185756972146,-0.00532001119572215
0.012293203841253,0.00871558320261888,-0.00493779115410693,-0.00463801994469247
0.0172006176979309,0.0119750312574798,-0.00153341514899859,-0.00320599752441262
0.0114386545464427,0.0147937164371877,0.00311675106811951,-0.00102376880947928
0.00552393326008607,0.0120366388670736,0.00344279638032056,0.00193891174005969
0.00456444126583065,0.0057181684744746,0.00224946373708863,0.00487274905145412
0.0054464162133031,-0.00193709811130047,0.00218880087696281,0.00669780762906421
0.00585607905156546,-0.00714520949753101,0.000345561980408056,0.00650400973243417
0.0067610348639414,-0.007044809973395,-0.00388170550050067,0.0039389861382653
0.00834549696101173,-0.00183406307128546,-0.00741631350662527,0.000189450108254175
0.0117452328440374,0.00448868462407995,-0.00785666187075495,-0.00276375259471119
0.0172029234566281,0.00573845713909596,-0.00530824188776766,-0.00394460820726854
0.0200119100147923,0.0003622748739825,-0.00312546248765696,-0.00337960071219925
0.0180275978467541,-0.00991133195121151,-0.00350593928034068,-0.00197007400881156
0.0120462540942331,-0.0201025858514519,-0.00436358213200676,-0.00147681010483289
0.00522421319235013,-0.0168650677271499,-0.00201682750819537,-0.00272593593842986
0.00269775470251228,-0.00308650410862966,0.00518606389889806,-0.00442863516856429
0.0024894299752107,-0.00213088223238486,0.0118900153913704,-0.00455596015990406
-0.000114547084357633,-0.0130412371711445,0.0124015636281573,-0.00249716807080684
-0.00313716171348258,-0.0151796687470917,0.00814005826298639,0.000532943704202688
-0.00112322283210804,-0.0040331482918417,0.00345551068190274,0.00288986984646094
0.00430002351151236,0.0128717451336946,0.00205302548090591,0.00367074089933831
0.00653951299221643,0.0289081581795364,0.00473450092743704,0.00322557356083803
0.00150387848186132,0.0365991675856503,0.00885410163956113,0.00259411967155682
-0.0121517127554043,0.0360632663942523,0.011274503446568,0.00262211023512488
-0.0279146652542221,0.0372997834296102,0.0112588427779226,0.00347720820500385
-0.035316903236332,0.0379992920102104,0.00917487732154077,0.00448317328434786
-0.0319769070997572,0.0271720914215733,0.00418577384683316,0.00467796474614974
-0.0177077471238201,0.00830424714776918,-0.00228824499150768,0.00356606764143792
0.00463461874078861,-0.00382962389945644,-0.00806332857807578,0.00137819270813416
0.0167014479284734,-0.00453497645468918,-0.0121147961937655,-0.000927856543039405
0.00738396721916134,-0.00616958047989468,-0.0134557537774508,-0.002259991489428
-0.00607942010830803,-0.015717036149741,-0.0127842274706816,-0.00250341438581584
-0.00475387345915976,-0.0259777150178082,-0.0111228807503464,-0.00244084629567063
0.00824510297111933,-0.0272715830299619,-0.00791157020004031,-0.00259382312053867
0.01804481763278,-0.0148494531331269,-0.00210066045408745,-0.00283898074375822
0.0203359068957064,0.00919899877112484,0.00590145834005291,-0.00276890561836024
0.0203836361662355,0.0343846303595127,0.0126555668411704,-0.00173010649118913
0.0192436026515593,0.0446280947422976,0.0142456944152442,0.000360929629095699
0.0132436462437282,0.0428759361553904,0.0137222976704301,0.00237538833712943
-0.00372902647816265,0.039079781785906,0.0130278063435167,0.00329349291868514
-0.0243855888473128,0.0244316709795988,0.00813211858248739,0.00305275529223122
-0.0324303839433944,-0.000432553293298471,0.00103760039254481,0.00219568049038096
-0.0291081506404544,-0.0141238177395019,-0.00274398248190342,0.00145313851237697
-0.0258970657213493,-0.00728815234369425,-0.00208656445613065,0.00116880879798539
-0.0282299228778486,0.00266527858294615,-0.00106701360923139,0.00108783375845434
-0.0339457947350464,0.00222878854105654,-0.00364246144994805,0.000959405947635616
-0.0354082305772344,-0.00577628185768583,-0.00675869476487936,0.000912031163563433
-0.0257755392679174,-0.0180962864727252,-0.00843005306547448,0.000894729135772845
-0.00748784311578856,-0.0280553199589918,-0.0131822507894822,0.000478405852703119
0.00964574455930468,-0.0362607904494461,-0.0203613377876543,-0.000504549752633921
0.0190546580197745,-0.0436996064523231,-0.0232955122995079,-0.00188324156775074
0.0209254840763797,-0.033125060832211,-0.0214672820752071,-0.00338702976428076
0.0189727106338275,-0.0037870820878367,-0.0175690783114837,-0.00460251515145306
0.0135600459279829,0.0196315259793986,-0.0119255064331018,-0.00504888542187056
0.00866011834989344,0.0246875535096452,-0.00689168097643079,-0.00428095127222552
0.011170264727195,0.0175741840747814,-0.00433959215402205,-0.00236407781980667
0.0152203326147884,0.00991856185814491,-0.00324367853279061,-1.57550283519034e-05
0.016363405506895,0.0120407802269119,-0.000866710876778491,0.00167174799911108
0.020274113923563,0.0136414622563734,0.00283285927712487,0.00199166326284458
0.026539578909991,0.000273359643437559,0.00240534761598917,0.00151389113894376
0.0246111944195024,-0.0129373777393379,-0.00310958816949907,0.00109478431889079
0.0112619178788517,-0.0136215230502532,-0.00676959309331878,0.000842059041400583
-0.00108269652998079,-0.0119094231429148,-0.00464390596557791,0.000616090259958964
-0.0028760808518967,-0.0153414700352975,-0.00283827533203946,0.000321685196813449
0.00177713241142994,-0.0204826414351483,-0.00589516886389576,-0.000164151552135044
0.0047203420685637,-0.0210275822676462,-0.00886758684592919,-0.000866946093116952
0.00374986996641544,-0.0161060692348452,-0.00937274316717346,-0.00139248888481845
0.000382497432662702,-0.00772477222046762,-0.0100525131197834,-0.00101791996716768
-0.00408738633511035,0.000413576663663821,-0.0115947444028548,0.000293859699148515
-0.00941199985873903,0.00390826143652757,-0.0119022342875252,0.00127542080608761
-0.0161452028580716,0.00741995417962865,-0.00818117291873018,0.000804326885161659
-0.021349248484069,0.0164831700926454,-0.0033994083657653,-0.000518470440206987
-0.0209918435501808,0.0232396873724873,-0.00225511988353799,-0.00144217026911154
-0.016085086844964,0.0207952771964975,-0.00167612758347738,-0.00168216625469175
-0.00480100233273078,0.00884493485685084,0.000969703552508541,-0.00146224577733797
0.0169534048366837,-0.0156699533370526,0.00119780529562249,-0.000842500195902506
0.0394665468701294,-0.0442126244953879,-0.00301069869746696,4.05644321023003e-05
0.0449213769268119,-0.0526909099452105,-0.0074283439016687,0.000641932358622812
0.0320272410078937,-0.0310421644924441,-0.00767535769911488,0.000277844276271431
0.0149661904462656,0.000728211698611703,-0.00251234070004143,-0.00097205726262374
0.00332973621242451,0.0209364767500559,0.00484777487021673,-0.00185393836185215
-0.00171996200237768,0.0286624032972791,0.00911887499538345,-0.000780006051263923
-0.00347336029676479,0.0280294820823902,0.00836805525118255,0.00221952741403025
-0.00477343101557806,0.0213241258896588,0.00555634744585015,0.00505918390476893
-0.00515422346983789,0.0148099245642511,0.00290820691775026,0.00582820173229853
-0.00446993189778005,0.0114467529439444,0.000348076711139963,0.00477166991812368
-0.00276572773952305,0.00735878570662302,-0.003709417544479,0.0030325069597201
-0.000860249853765969,-0.00294728574114194,-0.00977426677852417,0.000839693249152946
-0.00145561600849308,-0.0234009877394408,-0.0147465373884786,-0.00161748125051499
-0.0023227936000266,-0.0447158718538964,-0.0165285544878752,-0.00381908973876259
0.000795800848732046,-0.0450559457074268,-0.013424529712397,-0.00517733488885288
0.0076487401001162,-0.0213914306664739,-0.00493617753103468,-0.00478237734245359
0.0122091109249423,0.0073235419274983,0.00419491961342197,-0.00240148368720527
0.0111835135956309,0.0283213320296186,0.00879364436129914,0.000773067597477702
0.00874445146005144,0.0404636466715152,0.0100475116272183,0.00293961690086039
0.00283751626825211,0.04721665156475,0.0112316673008352,0.00349919517978582
-0.00870506068174943,0.0529542342274616,0.0129996684055025,0.00324972378859996
-0.0202007902749132,0.0554557615392804,0.014361506827256,0.00270975396719566
-0.0283405555809324,0.0499402141887639,0.0123893640471251,0.00192884374427557
-0.0316108060848057,0.0398335118889578,0.00613166631254088,0.00113797606572015
-0.030837892565626,0.0316807090610189,0.00129342840976823,0.000594103091082825
-0.028406766617803,0.0252036825550882,0.000305457019557837,0.000230707979423177
-0.0197227817937538,0.0140750849024331,-0.00119594605018761,-0.000185047260082761
-0.00646975012602222,-0.00392174842290328,-0.00393490999195387,-0.000555145602842569
7.81947046631787e-05,-0.023339295307769,-0.00751983385109404,-0.000605019767282105
0.001023640869411,-0.0377774116863263,-0.0119791684986579,-0.000567072991461589
0.00698413145612552,-0.0499615391908882,-0.0150681479951916,-0.000915019052670114
0.021116436397596,-0.06871691141353,-0.0170876834112751,-0.00221101380725481
0.0348324643119451,-0.0777943174230639,-0.0173848068932577,-0.00422086297013511
0.0360914053253615,-0.0515105720187883,-0.0113644948976001,-0.00475580511005933
0.0249454349082467,-0.00761777201350163,-0.00223681227578713,-0.00227960006328575
0.0118180968726967,0.0203119800932163,0.00327935654330106,0.00135636298517182
0.00472843115890997,0.0276081594905202,0.00434609131115476,0.00310305207663664
0.00280317541079389,0.0240857068523575,0.00206130171478252,0.0021125785181731
0.00103542277195221,0.0173290506418955,0.000322436641996108,-0.000250029703548041
-0.00111534133081362,0.0107228583639228,0.0011864816596183,-0.00206716508409105
-0.00298546377790114,0.00648337662151355,0.00152156511306293,-0.00242600780565573
-0.00467224757240557,0.00869495094729552,0.000405972677086915,-0.00209893652286411
-0.0052448232375029,0.0125962569219695,0.000292735794913632,-0.00210910627483571
-0.00375841612839348,0.00786415508454132,0.00130915331757022,-0.00206462819976745
-0.00167026141125877,-0.00465211468170214,0.00146038781919323,-0.00132761741792383
0.00074303367966138,-0.014697558039683,-4.00428822752534e-06,-0.00048097597119015
0.00461054819947159,-0.0171588941584142,-0.00293019800632316,0.000183193515660312
0.00570809803783188,-0.0159971863469935,-0.00611260817763015,0.00127116097715069
0.00257427308896452,-0.0159172367627346,-0.00630442081585688,0.00243864731916022
0.00332013962423647,-0.0178020564946726,-0.00418632791400079,0.00251824039090182
0.0127933845160177,-0.0178069650799855,-0.00456904184821832,0.00142340295850354
0.0242501522662582,-0.0160410160734205,-0.00875215767033234,-2.74953313642388e-05
0.0264234288603948,-0.020276887781078,-0.0142227385949714,-0.00130619529530376
0.0178635236265437,-0.0261909767956794,-0.0158348798455434,-0.00229425786255931
0.00950327196771219,-0.0192013874877255,-0.0121453876273426,-0.00303711128692206
0.00893239681565603,-0.00468217788711515,-0.00642582121343939,-0.00368779903286003
0.0132448827955925,0.000413455863817982,-0.00108462809697013,-0.00419076704688032
0.0198540278233731,-0.00773585477635218,0.00125225954495829,-0.00399248148746868
0.0279457078163562,-0.0209807713028157,0.00130453505521078,-0.00274791020077882
0.0297582206572869,-0.027833223413573,0.00150996554494988,-0.000831307396331359
0.0227981401584169,-0.0234897515987066,0.00266592864102127,0.000975538326082939
0.0134393946261456,-0.0139819821462685,0.00405159770768009,0.00148400437066341
0.00582535443652084,-0.0101079687261059,0.00281237358405289,0.00028233716847895
0.00407339228810291,-0.0144797559573669,0.0013075268926603,-0.000989879804573427
0.0113841173044925,-0.0180317274159857,0.00270199682772611,-0.000407654761607727
0.0183306488323703,-0.0156987585694151,0.00397212335537918,0.00189862955209594
0.0109502919113709,-0.0111044935928403,0.00278887173595421,0.00408459225568393
-0.00407284482461078,-0.00455736183903341,-0.00149850385713984,0.00491429436234399
-0.00945220851603184,0.00126640397245727,-0.00849276206224543,0.00464615255264414
-0.0027904142011482,-0.0018888578887492,-0.013921808809451,0.00386010647058
0.00636734278813458,-0.00842250591153541,-0.0133446720952619,0.00273899542119252
0.0125335931425515,-0.00532323109925404,-0.00810592602857742,0.00145319052673388
0.0173218668723394,0.00537462209702473,-0.00367378116364594,0.000356060886508588
0.0212808561249427,0.0139854503659999,-0.00234523808708491,-0.000430621732238045
0.0226917974836235,0.017125435272707,-0.00117516515035992,-0.00101189525169406
0.0210226104816558,0.0159219288627735,-4.60497705494309e-05,-0.00145150092358112
0.0189258652263572,0.00922924210908732,-8.99679615422068e-05,-0.00177196058377755
0.0227280376518453,-0.00203059314047708,0.00144248901966991,-0.00191799512484861
0.0277450448187331,-0.00862121134897133,0.0043630214503888,-0.00185162690282328
0.0205923897433624,-0.00416930470842759,0.00699287615323088,-0.00163773854445342
0.00214877803164942,0.00507758604849108,0.00878598922246414,-0.00116582706013317
-0.0159760599393359,0.0105231513798451,0.00858514661908869,-0.000162718023593537
-0.0245745882270462,0.0138049982787585,0.00726530695120288,0.00149104243809805
-0.022905908541436,0.0181282610483352,0.00618286935569456,0.00362178717034116
-0.0136128771585798,0.0181203891422419,0.00312800933627282,0.0056994423137874
0.00143989265789264,0.00957596786548291,-0.00245354124550984,0.00692713472332332
0.0124094198558406,-0.00085328456567544,-0.0063543869508793,0.00655142526403251
0.0108991650756527,-0.00227001377163716,-0.00595228403854503,0.00434007351193684
0.00407887889699433,0.00747548668074412,-0.00225162763388866,0.000937202597538233
-0.00324379560044223,0.0186574503214966,0.000777166461020674,-0.00220792438360376
-0.0134304093528937,0.0148465822015787,0.000457371996236512,-0.00363021031855655
-0.0172866626508637,-0.00303819253036112,-0.00276381341463522,-0.00326035738424986
-0.0121458177795746,-0.0076290422796798,-0.00558313880006781,-0.00199644297502017
-0.0125605824533537,0.0102131378373829,-0.00505350894838906,-0.000394047571025237
-0.0181719893514258,0.027112082521731,-0.00423066494033146,0.00075706333451981
-0.0175120140269593,0.0291201656584083,-0.00316342579585886,0.000769982652719891
-0.0125837731795321,0.0238186690854834,0.00257564255538527,0.000609213266826199
-0.00754329526336031,0.0196435002113155,0.0116602597335715,0.00190794703074912
-0.00139289849941288,0.0191044133610638,0.017471205367432,0.00429127515644032
0.00682885955968435,0.0180114349361159,0.0164336618255696,0.00558626361969856
0.0175229421401408,0.0110850179458607,0.0120240630625807,0.00469507418507894
0.0343241539087536,0.000392218344308248,0.00779681157859754,0.00250359132132229
0.0526786154896939,-0.00804516474835395,0.00485658338481879,0.000367963184632645
0.0537738877970766,-0.00879544422771281,0.00439742976154954,-0.000730020405692955
0.0349273865150376,-0.00458227017340543,0.00508491181963548,-0.0004130025840191
0.0147148038577235,-0.000232391182460831,0.00483596025820629,0.000422574690701072
0.00629246600843224,0.00319270088880187,0.00156019633353241,0.000527267216568232
0.00469531533904859,0.00591635930116515,-0.00379124306379327,-0.000195579143384018
-0.00135082602238807,0.011817788152967,-0.00505296610180765,-0.00100209038106638
-0.00782983365971232,0.0162596639843498,-0.0022399333978765,-0.00127119503511398
-0.00504716623070758,0.015341111650675,-0.00229005373688388,-0.00120278710324459
-0.00103492096162101,0.0185840710466103,-0.00535756691404552,-0.00153991529430408
-0.00549832126364191,0.0255164372396462,-0.00620230679324085,-0.00245240547367282
-0.0105022253886489,0.0216040448518298,-0.00527600899706128,-0.00308203961208997
-0.00884873421698942,0.0040631951428717,-0.00510902374321902,-0.00270976904098373
-0.003213957023427,-0.00993707662525533,-0.00263555144400521,-0.00148291727534601
0.00265855097092008,-0.00843734866192997,0.0043433035515138,0.000311526238508915
0.00721740709652222,-0.000996820328988891,0.0114617204187032,0.00191035500432171
0.0120643475583689,0.00126997823294477,0.0153324415202804,0.00238397343286559
0.0147594108122884,-0.00615107520009587,0.0160356190853403,0.00187451527120467
0.0118064855875276,-0.0223674546063114,0.013056669635746,0.000966787730843008
0.00661103915286218,-0.0294958008149227,0.00926435536290444,-0.000170353097127591
0.00448464343239231,-0.0131150699636584,0.00978691045671155,-0.00131289686750414
0.00885074132555936,0.00993179855089701,0.0107143391268191,-0.00189418943501796
0.0164809206867795,0.0121718379837959,0.00643285129421215,-0.00186946501187741
0.0187995062013326,-0.0042085894588101,0.000720946249152669,-0.00192553849519251
0.0143972017230142,-0.0159272908736462,-0.00204664042009498,-0.00239944203501001
0.0107603781919385,-0.0168876634875463,-0.00263491775281543,-0.00295662995647488
0.0104566354197369,-0.0140805864869197,-0.00305226241794187,-0.00327730354926933
0.00865111053503908,-0.0076321410216192,-0.00348639699625047,-0.00320176251460658
0.00612558068686258,-0.0073826871307748,-0.00566590122235709,-0.00252309307565241
0.00842324296167153,-0.0203758782946643,-0.0107170581044923,-0.00154242102906664
0.0159848684994315,-0.0280171764223305,-0.0149711669355833,-0.000931930148649008
0.0203157061389062,-0.0214062113101249,-0.0144520404841361,-0.000676000165959669
0.0127759520805698,-0.00341461246516006,-0.00640491746441387,-0.000276044215123871
0.00196919807966933,0.0228866550757401,0.00744934053212484,0.000587452315532117
-0.000229776196529694,0.0390308499750553,0.0170936823113465,0.00152578930186314
-9.31775136591233e-05,0.0314397054159058,0.0152236337503861,0.00149580381646746
-0.00573012262852338,0.0135561630309752,0.00873420646208882,-9.36542375315793e-05
-0.0149912119536223,0.00441541971236497,0.00706655541574159,-0.00279170762963258
-0.0262588026550403,0.00486523607923907,0.00970852510783707,-0.00528992528845519
-0.0368697706876174,0.00683068937948343,0.0110718823519379,-0.00650331395911496
-0.0384608467708063,0.00561696087457593,0.00784067217249559,-0.00627138098014697
-0.0263690970264429,0.00198367236039528,0.00263580276374914,-0.00455003291183887
-0.00958429805097,0.000288716485899315,0.000267643845774237,-0.00158863327191044
-0.000355553556875284,-0.00223905616296573,0.00150489446719787,0.00127458970854212
0.00385456140745065,-0.0109592831361743,0.00241446047181513,0.00273427722556735
0.00816693088196046,-0.0164044858148459,0.00189487497333459,0.00288990896311623
0.00790300784689892,-0.00494535897490824,0.00513129739635181,0.00276780634005936
0.00342798344882159,0.0143247290720837,0.0096734635233002,0.00302502401457134
0.0015975666227775,0.0211926596770381,0.0070993997588194,0.00347520506681348
-0.000474039587857317,0.0113634158574223,-0.000414870397338759,0.00350519128918473
-0.0117397159992332,-0.000634325181620463,-0.0061901372478217,0.00272948461472423
-0.0289426208684056,0.00435006357968316,-0.00633273993718363,0.00147809128492599
-0.0423720425104651,0.0180106239440064,-0.00312481975504574,0.000575557221558647
-0.051725732187301,0.0181032731183898,-0.0027856074255346,0.000510560501409082
-0.0558836508310503,0.0080547326427772,-0.00340255450524745,0.000770627233052475
-0.0472977859434532,0.00256247575962683,-0.00139963940769231,0.000465909774565872
-0.0285420383499625,0.0051991996289575,0.00278463163913772,-0.000416914212227359
-0.00855013844427444,0.00346080169664372,0.00599975355907872,-0.00107431330027053
0.00859961298801954,-0.0142949947643154,0.00343981080233079,-0.000800733641861029
0.0179590349569896,-0.0287184248696886,-0.00200681927013844,2.89393517970761e-05
0.0209688474961078,-0.0196223418036934,-0.00335918730451117,0.000438089499148532
0.0230141175992625,-0.000186421959635384,-0.001383671179031,-5.80054800183064e-05
0.025292291957899,0.0162675793621304,-0.000124162500272397,-0.0013381490889076
0.0292496751273314,0.0253140221347987,0.0012217917782003,-0.00196380262337857
0.0295332260515035,0.0244009828573052,0.00294153549176038,-0.000498922584072951
0.0185697814761961,0.0219689995920563,0.00244511742749793,0.00213780332082281
-0.000314820985336119,0.0223688687945731,0.00150825065236592,0.00407646556725766
-0.0160610428719079,0.018582402727979,0.00293084154402324,0.00470249488952573
-0.0193648031134497,0.007028845215687,0.0066593354679002,0.0042766912613333
-0.0111026279316546,-0.00550267205495907,0.00857768510656316,0.00319025700266669
-0.00265847875375652,-0.0117964892966948,0.00452613779970472,0.00213241084985905
-0.00174361706372572,-0.0121451725181859,-0.000551118614573238,0.00164817069357131
-0.00427089851653819,-0.01259418703812,-0.00273639398646422,0.00188177551385873
-0.00361025670326576,-0.0178692558712119,-0.00423969551755105,0.00254680534876232
0.000183212398060035,-0.0233929125917922,-0.00434823030650447,0.00263757703961302
0.00322061147169871,-0.0218155674668103,-0.00195521812288193,0.00163239872913541
0.00542761749364699,-0.0133319737941839,0.0026717778781445,0.00062264683170019
0.00642337806844286,-0.00290898637381813,0.00814815426755924,0.000709166979133705
0.00428825821478028,0.00508812560148214,0.0119654865351897,0.00147953976626333
0.00256498282124879,0.011061434727429,0.0141211369468676,0.00189904916442515
0.00571556496720286,0.0171323170737477,0.0153414007596883,0.00141503403509237
0.013710576156927,0.0219385048017962,0.01644616025282,-6.81091240813843e-05
0.0211121629590858,0.0220853716599907,0.0139702940182844,-0.0026841636113661
0.0227426429478384,0.0178294823144923,0.00636811944106626,-0.00620171450698203
0.0209863520399003,0.0113272303536238,0.000502045434056853,-0.00985289004861384
0.0229731250969321,0.000466490447653192,-0.00185664344672933,-0.0122482822795012
0.0322058964283059,-0.0113910369514968,-0.00476788155595436,-0.0109476075962755
0.0435258154013532,-0.0172944023733778,-0.00687476227006124,-0.00503847293524867
0.0453714022776207,-0.0174650137592777,-0.00710495491506362,0.00249376500166979
0.0293612100808459,-0.0158002628769123,-0.00752938445682425,0.00715152848742535
0.00223680709167003,-0.0141375502669446,-0.00536828643416851,0.00691723707609015
-0.0200375835358716,-0.00747988901314814,0.000726603251535275,0.00367566711707394
-0.0291944043388844,0.00474094293219533,0.00799714382853635,0.00101183516703974
-0.0291371534274987,0.0153390337276321,0.0135096532890929,0.000730892593796366
-0.0286372736608492,0.0208623902586308,0.0159258898295075,0.00177291881201642
-0.0288450037742353,0.0221733987983955,0.0168160157001388,0.00222187891340033
-0.0241209577963596,0.022797002853138,0.0176594311216039,0.00141072055636395
-0.014499492929594,0.0207177053380565,0.0190901253553617,-5.52511666154446e-05
-0.00562876956977561,0.0107585878038442,0.019087210260331,-0.00158634004955254
-0.0009579455871618,0.000198584383593449,0.0144475649087444,-0.00297692307881906
0.00404398921197746,-0.000775612487799215,0.00803520905732372,-0.00366742406190167
0.0142165860893671,0.00366253861124162,0.00480057126340101,-0.00314979350676675
0.0217923951134309,0.0057863101639793,0.00472038814744225,-0.00189311831699372
0.0183517716232943,0.00756224002821449,0.00445948446199031,-0.000708910541935838
0.0103355240824333,0.00981965391657184,-0.000839033248291404,-3.85005522573904e-05
0.00347072101251984,0.00616877352217512,-0.0096532395238193,-0.00042149003862717
-0.00412834100870839,0.000862376067864506,-0.0117530395024149,-0.00210049739464944
-0.0111684660446581,0.00268672456650989,-0.00449476649262916,-0.00401931977634983
-0.0168526021338718,0.00650064519972492,0.00351383165762502,-0.00476302158521941
-0.0208784516017539,0.00522994461073711,0.00521105982261646,-0.00394812598722933
-0.0198634702706397,0.000942921246180093,0.00290090394049525,-0.00217197277141003
-0.0147226476177714,-0.00169155678344322,0.00350882142706681,-0.000371238471101744
-0.00947790709659442,-0.00154498256971297,0.00731537033169209,0.00132579342697736
-0.00610573566809823,-0.000404850379447222,0.0104187859163058,0.00330418883500957
-0.00781799302313655,-0.00273784756234365,0.0095294332424756,0.00512533365946033
-0.0141610401356549,-0.010329033483216,0.00491554442042483,0.00601954793788083
-0.0172766864440885,-0.0155558167929227,0.00156098468431664,0.00572946121895376
-0.0146903761254898,-0.0135591380122592,0.00128862250156909,0.00444379457196102
-0.0142515357971475,-0.0131862717868004,0.00322276073036658,0.00250206938831005
-0.018212995485137,-0.0179664564258604,0.00389938658318371,0.000279761012603138
-0.0205277961520227,-0.0212561648314012,-0.00113960314211222,-0.00178367280543092
-0.0153409833328565,-0.0208065192058053,-0.00638298265144905,-0.00285462834305399
-0.00315660967816705,-0.0177928765085396,-0.00640979098617228,-0.00218705280243497
0.00472988545261979,-0.0121442465189083,-0.00314644738921902,-6.6138882617603e-05
0.00156820176519506,-0.00720660677344532,0.00171848790537293,0.00227506586721791
-0.00858483665552167,-0.00863931805260013,0.00393964029541575,0.00339314368451095
-0.0193463334439467,-0.0146543482119833,0.00253365907130972,0.00283575731290708
-0.0240362219033696,-0.0167787253842705,0.00307458377085609,0.00120508224610297
-0.0236955987794935,-0.00767064468889269,0.00903441555370869,-0.000795401470022107
-0.0186344320648728,0.0109508705313303,0.0163073228141205,-0.00225793600444864
-0.00241201314671557,0.0239308511956734,0.016267717199977,-0.00181015404568323
0.0183747877851229,0.0191192476775642,0.00785867918930944,0.00056567673829353
0.0279355044245792,0.00461301025062841,-0.000535658735054529,0.00264509074450067
0.0220261110672258,-0.0146983652347957,-0.00470645869608601,0.00285200799873698
0.0108213033018429,-0.0363332622161704,-0.00472593950094812,0.0018213278040985
0.00433232383659372,-0.0433721024186686,0.00119424913771198,0.000778274094333567
0.00394849721754766,-0.0333118068632357,0.00810237991641947,0.00049340003923285
0.00725675008508556,-0.0228246925843525,0.011152398504773,0.00116027486368675
0.00907173377065121,-0.020888098043975,0.0117794387148259,0.00224398300557029
-0.000639049258194985,-0.0240421704794948,0.00952763647499345,0.00263826797528552
-0.0279825746009494,-0.0239917699583039,0.00653921905239525,0.00154283097550788
-0.0598021768061981,-0.0188833391649816,0.00751754735233187,-0.000610048603708552
-0.0748436304810978,-0.0124394085236815,0.0116926102676652,-0.00249750134711962
-0.0673066912052345,-0.00565240188718259,0.013500060904206,-0.0029636111103594
-0.0472444526932377,-0.00145372068278543,0.01231517655455,-0.00195381804655615
-0.0249602649510309,-0.00040683915272471,0.0104456175076002,-0.000337999348072617
-0.00546850466288915,0.00150644285885943,0.00700529280313094,0.00106852038480691
0.00475765026096445,0.0061044065592784,0.00536180887878893,0.00166515605463718
0.00431128720860117,0.0114410175240667,0.00855592420456426,0.00138232507599156
0.00569330160736601,0.0143664488928245,0.0120191536435521,0.00097312120528616
0.0176318614401164,0.0131913268461108,0.0120666477567307,0.000830008596087
0.0357469158930272,0.00817340660043911,0.0066066743297101,0.000567301929585341
0.0527819773617673,-0.00276636488711347,-0.00292586219933159,-9.70276787232855e-05
0.0558924345281374,-0.0181430750308657,-0.00805311650145283,-0.000949021814106582
0.0394750352895014,-0.0229209459269523,-0.00735863080064939,-0.00140906357858615
0.0158808388159258,-0.011890672491377,-0.0043837558764306,-0.00140153216134372
-0.00532255729527358,-0.00607890117077183,0.000920129371183252,-0.00142684139302523
-0.0255492640516084,-0.0120261378963947,0.00776285439365578,-0.0014241821557952
-0.043007774654003,-0.00902059793148354,0.0131770533046677,-0.00100086670707175
-0.0487179849651132,0.004141841753818,0.0141113656443438,-0.000239460701995454
-0.0409658196652316,0.0104435266996199,0.0113878260003608,0.000323347936132804
-0.0295170186961465,0.00830097157923146,0.00834337168933126,0.00023022513411217
-0.0242595738142145,0.00508495433264614,0.00603302659492429,-0.000243911927258453
-0.0233946463436214,0.00134503250331193,0.00495105246110279,-0.000702976196628989
-0.0181338771861194,-0.00215657300990336,0.00472529500230525,-0.00101176871804962
-0.0101516966625935,0.00042361942262624,0.00247492316856557,-0.000923767075495384
-0.00322731835634682,0.00798907874944794,-6.16805604716063e-05,-0.000447373933870125
0.00810885520469358,0.013643536892013,-0.00133143896602199,5.87924833501126e-05
0.0195996655262469,0.0140655214249643,-0.00297514101915771,0.000250937093212965
0.0197816808017214,0.011795097488286,-0.00442246144186965,6.80410475034897e-05
0.0121318785378116,0.0133033046370138,-0.00486612570695207,-0.000367925964702631
0.00561392595731972,0.0189814678039305,-0.00323404328369184,-0.0010757549184075
0.00145338179000295,0.0223453728766881,-0.000986407080011688,-0.0020198897929699
-0.00103871223140041,0.0201684933644178,-0.0003071490303466,-0.00298827331501599
-0.00351244041344354,0.0153697788272602,-0.000390192045824019,-0.003488110593965
-0.0077185834390122,0.0105063491164631,-0.00104153845645867,-0.0025693640764359
-0.00780935753369324,0.00370623512382164,-0.00286858113239559,0.00017581774449237
0.000821609532565068,-0.0121236503079354,-0.00563266068266232,0.00343857627325169
0.0108414099916798,-0.0296143768203775,-0.00703079265441669,0.00521594204051732
0.0160329344533802,-0.0263822235322595,-0.00592400937582999,0.00486874343313308
0.0187363391665618,-0.0056811715058708,-0.00377025574360547,0.00293201051150354
0.0207902690968909,0.0104046249271864,-0.00197112027009173,0.000253243097255486
0.0238530389091773,0.00995598360319648,-0.0024976172689328,-0.00215487567677143
0.0297505859033706,-0.00349653319554382,-0.00604368607086545,-0.00368878970356294
0.0326979106548939,-0.0105343263360733,-0.00943102974242577,-0.00439995226173703
0.0299350689809624,-0.000136594371235532,-0.0113155203330907,-0.00438128838370883
0.0281263782762901,0.00789796185446551,-0.0155685377065679,-0.00353947605065212
0.0281238747729483,-0.00262132683665306,-0.0215104187952761,-0.00228276644946953
0.0244892575781311,-0.0107637817467962,-0.023789373439169,-0.00122617725522683
0.0134711343734696,0.000394254127029866,-0.0206732828208042,-0.000631662263001396
-0.00039417408262786,0.0129003982769997,-0.0156464337719529,-0.000665717878592328
-0.00768411381764754,0.0137683168101733,-0.0113067106432865,-0.000932098581538224
-0.00962336858169247,0.011889044874662,-0.00477778689244236,-0.000286658546440485
-0.0171972862374239,0.0141236655789811,0.00147262108918332,0.00180666891178673
-0.0324798613346805,0.0185597016609024,0.00282452161431516,0.00418211000284827
-0.0411833191003868,0.0191111864733261,0.00382703651128812,0.00512482821984052
-0.0319152417269507,0.0143952811804427,0.00578014277179973,0.00398125862605121
-0.0123084979191745,0.000750798325943609,0.00324947949421494,0.000996088853605881
0.0043919769091364,-0.0229860348372964,-0.00213174041010795,-0.0023655666518999
0.0161973908995929,-0.0395303304589351,-0.00592498447612646,-0.00354823121219193
0.0202508151397767,-0.0395390891822127,-0.0072308901547702,-0.00179582288782739
0.0145802167047454,-0.0322920344334097,-0.00602047235835962,0.000906383886789381
0.0128093611123526,-0.0262704672969357,-0.0067336026747172,0.00256231732898027
0.0248713775976108,-0.0215317024592353,-0.00985480128805224,0.00253462836108861
0.0425978348063975,-0.0204430319583674,-0.0118425877794415,0.00125842877958073
0.0520824292118122,-0.0265743905670528,-0.015399631988131,-0.000256661562952699
0.0515012607215118,-0.026834144017104,-0.0181533263147834,-0.00133626832044854
0.0490596441950252,-0.0133880939782312,-0.0149650694019099,-0.00178023825904276
0.0432405295160365,-8.28218403737119e-05,-0.0108087794809953,-0.00148091913977248
0.0248873844827317,0.00249919291959195,-0.00915673321532485,-0.000536810334418028
-0.000824615737402778,-0.00264089258619323,-0.00836223405304012,0.000322452468139527
-0.018848135928333,-0.0077943631400325,-0.007243216517992,0.000439606257371673
-0.0258854487306949,-0.00887204990499426,-0.00435793441995363,-0.000210015358648183
-0.0259591975936483,-0.00606303539875029,-0.000513777195539274,-0.00139080113902161
-0.022384233349719,-0.00133878038345739,0.00330261163993332,-0.00242251690067075
-0.0201630239377672,0.00256063967827492,0.00589254323043386,-0.00229233861567476
-0.0215200912712504,0.00482680166350517,0.0061667834848789,-0.000897415821847116
-0.0198930569126672,0.00688033341849895,0.00510506308998771,0.000540865096554206
-0.00661685906540688,0.00630935994169894,0.00429313013731048,0.00129791213719284
0.0136036209824286,0.00108185525001461,0.00260739846631689,0.00165529361248408
0.0273071740256515,-0.00495888182590729,-0.0020816356945814,0.0017213084978314
0.0250434168590306,-0.00943521560966108,-0.00530785165291477,0.00168458571460338
0.00440028227805266,-0.00814138128869075,-0.00363648084862796,0.00197294689797939
-0.0206777562998607,-0.00245414453856571,-0.00085374986450029,0.00260019402759968
-0.0329665886911288,-0.00261031462925679,-0.000639741545287618,0.00287719445182707
-0.0309915387077205,-0.00418124043214553,-0.00171445577825701,0.00220809565936042
-0.020617928874288,-0.000357098838285734,-0.00126945063226791,0.00111956695485989
-0.00931019087487239,0.000503451206777911,-0.000980624259240932,0.000627945629617986
-0.000750488472169575,-0.00198168452777401,-0.000982108075079801,0.0010745274528215
0.00706471029115617,-0.00294006731498994,-0.00101906603585287,0.00182184400334047
0.0139442923241813,-0.00625472083740173,-0.00510907499034775,0.00176762277837964
0.0182488567999323,-0.0099237355859465,-0.0124845012770748,0.000314777171303888
0.0220871520376908,-0.00683347767773154,-0.0148999329312731,-0.00219944948527619
0.0270137140343575,-0.00188921803319786,-0.00964531415631302,-0.00448714931035993
0.0328524075079309,-0.00553790422597911,-0.00553760654056174,-0.00496948681755782
0.0372996732783531,-0.0130728084713021,-0.00897162726541744,-0.00341363058907475
0.0340336868242747,-0.0148889551243343,-0.0136977191922353,-0.00119422439734937
0.0193119651779021,-0.0101305028721883,-0.0110588212786172,0.000399999355478307
-0.00317302142380016,0.00100924133703405,-0.00370132426996302,0.000978648735773879
-0.0234331240087762,0.0129615381660098,0.00188241009667873,0.000493700978870757
-0.0388951457211173,0.0185608995229796,0.00476849244003841,-0.000714957715436771
-0.0545984687687491,0.0210018125812823,0.00698999872528914,-0.00175356061917571
-0.0676212657780599,0.0239163332487993,0.00833971380103557,-0.00186111503504989
-0.069619963414042,0.0212476581133424,0.00759845688622935,-0.00116614222417553
-0.0598425524965725,0.0118131304325246,0.00629173086613811,-0.000107846859238621
-0.0458422301090245,0.00651989053569753,0.00553919769974001,0.00132578072903769
-0.0313678837027661,0.00755711784089315,0.00533604025573164,0.00295987583710757
-0.0207154938322871,0.00845688887401755,0.00528159778347061,0.00393374585844913
-0.0190638767675844,0.0104077030614894,0.00404227899915448,0.00324014211102435
-0.0192267624611687,0.00967436113209128,-9.44169812846195e-05,0.000659186375419959
-0.0138109885956089,-0.00347874149958159,-0.00651429377388921,-0.00271167346405823
-0.00456594919269788,-0.0234112062043559,-0.0116713864917584,-0.00475667831115791
0.00521251750696188,-0.0304535415106899,-0.013396295920156,-0.00377691113233513
0.0164011564705684,-0.0151218084452107,-0.0123969406381452,-4.69378973345438e-05
0.0274031715580874,0.0067311907478973,-0.0108715127876683,0.00408052528596374
0.0298523606088405,0.016680936515286,-0.0120340673639632,0.00587374117720657
0.0216560321912359,0.0173470594728045,-0.0137803740080531,0.00433285142894294
0.00756069774873076,0.0186750564896894,-0.0107544515572745,0.000816239903663513
-0.00291852708639459,0.0181250698043424,-0.00668525610983535,-0.00236665484190281
-0.000864343677066996,0.0115264118132375,-0.00529131913852112,-0.00400131518553746
0.00392403211461647,0.00849535775576922,-0.00308299376856465,-0.00443701065384194
-0.00447706888975659,0.0130511303401877,-0.00079317092672225,-0.00442834214389081
-0.0195271951456145,0.0132493693649261,-0.000551707872089378,-0.00405026413691898
-0.0233260739130931,0.00325152510707727,-0.00102739958832082,-0.00304300149142195
-0.0146523321332457,-0.0088603758608492,-0.00132073882615118,-0.00153113576599778
-0.00468481065768249,-0.0166632401323733,-0.0016086471221251,-8.12996451909635e-05
0.00178716385576047,-0.0215713137877513,-0.00198910526920838,0.000815401103663522
0.00843241440249702,-0.0241790163660737,-0.00163499030941698,0.0014088545239022
0.0142572460597807,-0.0227056391408757,-0.000345976564299192,0.00224448885270824
0.00900344082977321,-0.0193933036313936,-0.000313873111263742,0.00301298834211002
-0.00699585788966322,-0.0176553676623701,-0.00392797023860155,0.00274679063616858
-0.0213747686125985,-0.0141978831508993,-0.00932549518593725,0.00142939656066146
-0.0263011323004088,-0.00738625523394392,-0.0134640070663476,0.00023603999325876
-0.021814712623548,-0.00172702397876361,-0.0152172556051491,-0.000400467232595067
-0.0161050903917791,0.00120819006493844,-0.0144917570018861,-0.00106515891109937
-0.014734982974003,0.000329747721885203,-0.0129484672234032,-0.00166442100880352
-0.0156934827402728,-0.00192855336935178,-0.011424681758526,-0.00146946575901156
-0.0198027419949667,0.00611741375330568,-0.00917365031831037,-0.000384970037147741
-0.02379645070787,0.0275846739163615,-0.00615681737431762,0.00048998962136173
-0.0184482007001878,0.0456499819362807,-0.00168540486291325,-0.00024582950835897
-0.00427445694283281,0.0477996877416273,0.0055760182936266,-0.00199877084088713
0.0079410650317941,0.042573474258886,0.0132757670244227,-0.00255047613649537
0.0130476164366325,0.0392547662320666,0.015728305620621,-0.00158581570172536
0.0153235314827376,0.0374141419861881,0.0118356100011955,-0.000452874297800246
0.0169282059561061,0.0344150247480305,0.00870676032095369,0.000642997416407986
0.0198036976315414,0.0277907655903247,0.00893021039045376,0.00189214531231596
0.0258554644037715,0.0169043888065,0.00572171374651507,0.00248047199707621
0.0344746591069639,0.00228917399189821,-0.00316052335563157,0.00175382285728773
0.0423589949005389,-0.0227211021905739,-0.0138988990258367,0.000321058659566259
0.0427505035936772,-0.0541143159168464,-0.0214764873404097,-0.000739848680663559
0.0365192126584316,-0.0643119351387766,-0.0240477592041769,-0.00114084334314429
0.0297754376177433,-0.0483090991700326,-0.0246190656040256,-0.00107199275948581
0.0212482760036269,-0.0305355594527951,-0.0238575488060891,-0.000754571438224339
0.00605575307791512,-0.0186297924802267,-0.019509377525534,-0.000628966942893431
-0.0091540667691159,-0.00327395560070035,-0.0109988574788313,-0.000805994858112267
-0.0173434277537135,0.0131489630182394,-0.00118641288471492,-0.000759958458825317
-0.0243984283811935,0.0207859062456653,0.00525329066301014,0.000231575441659103
-0.0250672118824131,0.0162747792837215,0.00782411060744416,0.00209145457169889
-0.0138326252189571,0.00495334326494597,0.00917315438729295,0.00356086180312614
-0.00509398790417141,-0.00050240831517704,0.00891188723020195,0.00354713361386175
-0.00500229201935039,0.00573030586537221,0.00785797505711066,0.00200522199722445
-0.00558091023745793,0.0163576967577178,0.00732336541111809,-0.000108547305537395
-0.00593355609002997,0.021950783757044,0.0058438572342186,-0.00173748582902587
-0.0128992825565769,0.0207107466668894,0.00275779555361725,-0.00275114090239904
-0.0230931157718123,0.0161066662021727,0.000339009621819571,-0.00292909283815166
-0.0233951218672615,0.0104353188453784,0.000802645546655385,-0.00171918787064765
-0.0133071349745824,0.0028049103296364,0.00182450929433906,0.000414733777695166
-0.00485782623523816,-0.00398651870850048,0.000104374935477037,0.00203970617876633
-0.00250533255207726,-0.00271111443970465,-0.00458309962700834,0.00212431621945208
-0.00206007737346102,0.0037535676706965,-0.00915474334092719,0.000814262857649091
0.00175504884748898,0.00871524360972442,-0.00869038807469467,-0.000563184452540517
0.00963388426063473,0.0124735813257018,-0.0032656641863172,-0.000582126299831067
0.0146629018593661,0.015211963598865,0.00148237888628118,0.000670749740587542
0.0141259075200841,0.0144478365512065,0.00264151183101996,0.00191834885802197
0.0138052775155927,0.00968520949298358,0.00186872601602602,0.00223377314385419
0.0175391669650729,0.0071043756224906,0.00320008803001174,0.00187436226881241
0.0217580624144485,0.00960119998166946,0.00774405644978156,0.00152631360239403
0.0244127329565274,0.0113805408068748,0.00998253655721744,0.00158625951661114
0.0257186391756917,0.00723454014085799,0.00725825655515042,0.00205764398472685
0.0243251323288786,-0.00521758425036569,0.00362486265160447,0.00223513709222193
0.0223153453691048,-0.0194014280353729,0.00236489344041741,0.00175084530018599
0.0231696019367184,-0.0225969696780352,0.00356095669318339,0.000829799582251717
0.0232507177385425,-0.0118776757923168,0.00432401077684068,-0.000297042104475259
0.0138071570478673,0.0053768461750201,0.00350098796997152,-0.000711380848753774
-0.00134908860276501,0.018332458879885,0.00341025776733401,9.53163761613777e-05
-0.00792134620546169,0.0230261396997983,0.00460705203516573,0.001189601612863
-0.00799491140373942,0.0305250344384027,0.00853364019865897,0.00159053982026058
-0.012814404677541,0.0465196119604102,0.0128470976146378,0.00112492676002578
-0.0184903964873712,0.0549548536035222,0.0105020322974741,1.32358021788794e-05
-0.0194393900190606,0.0480840778216423,0.00442886449757603,-0.0013431797927429
-0.0159347176864253,0.0342000084047418,-0.00124005564420452,-0.00218275099484648
-0.00985768445840414,0.0160576831266066,-0.00639216854800962,-0.00199375482504146
-0.00251095223599053,-0.000464809590380096,-0.00567512787623464,-0.00124633452595577
0.0106424832308868,-0.0128466093139706,0.000267478831706054,-0.000558894468664971
0.0290222468771457,-0.0329530053097018,0.00268939456372691,3.61053607409751e-05
0.0390064403451863,-0.0555024904680915,-0.00186828707985888,0.00038977425845427
0.0253674941241134,-0.0515436377006747,-0.00617501413224749,0.000380693133734113
-0.00261542788062132,-0.0205842160975775,-0.00296352641834726,0.000341748732753407
-0.0159587458924781,0.0043690492028222,0.0033222487716956,0.000470591165268796
-0.011119680797872,0.0104015348971245,0.00598758858337572,0.000531315264090971
-0.00656505556701431,0.0141522477655839,0.00832931708937893,0.000342364105469201
-0.00738465750758635,0.0267683231005376,0.0141360061035293,0.000314338494733629
-0.0134875970942928,0.0393940943538051,0.0187639763839683,0.000788066765037815
-0.0236888263675969,0.0409217150585915,0.0179506915226861,0.00129630575674563
-0.0267602321154492,0.0340493972434184,0.0127946951097239,0.00136899149026387
-0.0178854223990689,0.0265619586617519,0.00536967840231458,0.000826921350280181
-0.00735617939201133,0.0161206499842313,-0.00322254665801336,-0.000628311252090182
-0.00254803848240923,-0.00173576665282591,-0.0106316293823297,-0.00295502262927317
0.00149442405404518,-0.0234159113882428,-0.0146458719557555,-0.00560484661829911
0.00899120939998909,-0.0359492933051465,-0.0148375393505611,-0.00719375926146575
0.0165974414419578,-0.0302496636944653,-0.0123868334633648,-0.00559914195196877
0.0190084099959127,-0.0218274289775036,-0.0111570603894267,-0.000856943195350414
0.0177740025604126,-0.0253996928062602,-0.0122172215613945,0.0038847384222832
0.0165363420936631,-0.0299259592848468,-0.0108737876332433,0.00582793290174472
0.0126506529239275,-0.0258029845179569,-0.00718279147451257,0.00482980161127281
0.00342678040051201,-0.0196042613396897,-0.00501416450708499,0.00237213444563273
-0.00807089204169901,-0.015489638784816,-0.00436446683502883,-0.000516293188776672
-0.0153793595087252,-0.0114645918672974,-0.00481119480983517,-0.00358442457575993
-0.0193918594452043,-0.00993091479552385,-0.00622396373569822,-0.0063516449119417
-0.0218174296505341,-0.0091449096199447,-0.00602640339541786,-0.00775194553729889
-0.0182873633223177,-0.00448858096225334,-0.00376006727146066,-0.00687359396939807
-0.0137095536388019,-0.0028359438201429,-0.0029175409276018,-0.00398161868844487
-0.0178585038770821,-0.00529879288051228,-0.00424192053745029,-0.000369548497718754
-0.0260271712179025,-0.00219299127234727,-0.0058076133247645,0.00240919679657164
-0.0271751029296672,0.00285358225356048,-0.00557112723775861,0.00341839465868742
-0.020472439178727,-1.73724736899153e-05,-0.00432871738403956,0.00303712042301505
-0.011879835993166,-0.0142376828534115,-0.00685064775902161,0.00226705501957171
-0.00665302134605061,-0.0320028704065126,-0.0121896381075572,0.00158447979235269
-0.00580132342561835,-0.0350434601366936,-0.0136190329194651,0.00110445475170035
0.000563551479080134,-0.0228046993032622,-0.012051980718859,0.00114591803514058
0.018981579680246,-0.0121421318157819,-0.0124054984610855,0.00177449100274909
0.0325937917028618,-0.005422164250385,-0.0139024116424804,0.00243081902520745
0.031280483881806,0.00723196285610512,-0.0134663059588375,0.00227245029131095
0.0271244176738159,0.0220840184709004,-0.00765281112751078,0.00094849822805622
0.023736229614112,0.0243504327207899,0.00287760551223166,-0.000868158337486996
0.0150283551783065,0.0145416387274787,0.0102208230002736,-0.00227058733448993
0.00480098788990063,0.00708722714723237,0.00989447852625542,-0.00292080129057505
0.000457289075234228,0.00591469397670361,0.00593239059638461,-0.00301372227316417
0.00258741152009851,0.00482206642628413,0.00291641260514573,-0.00264612373941004
0.0079658371414883,0.00385903849485143,0.00268214388806443,-0.00141030848302641
0.0106578865726979,0.00550147285181814,0.00400502688711574,0.000940062914511009
0.00905309292669517,0.0048455557772186,0.00374171760234115,0.00370969584415215
0.0054010999867438,-0.000486458752984236,0.00154922844616181,0.00543968163208563
-0.000801926783648214,-0.009560564720314,-0.00158852114173144,0.00524130274695681
-0.00929522963875312,-0.0197695175575633,-0.00442227535773037,0.00335302015882984
-0.0129175127972006,-0.0210995306579247,-0.00482143188318652,0.00074170466539082
-0.00502107590271483,-0.0048839751141503,-0.00166306184437924,-0.00113654701554044
0.005773666318995,0.0230248810051778,0.00514418597452311,-0.00128808440317993
0.0101978791033497,0.0436217771240648,0.0125172963047403,1.24554999044858e-05
0.0113445177076,0.0439523577423357,0.0152625708058316,0.0015852987523141
0.013334415406843,0.0303212765511253,0.0128146492606353,0.00222640423662843
0.0173646920443306,0.0161557072346884,0.00935505477580094,0.00167284123924206
0.0232894687255532,0.0083253257157891,0.00937139094421053,0.000649306582236416
0.0306573484050884,0.010135926373181,0.0137522941839297,4.46084576980167e-05
0.0405474005033603,0.0142239361481822,0.0192887139497863,0.000190863768325759
0.0487054548366772,0.0104123453705,0.021335577345724,0.000658317673346012
0.0485044693224232,0.00522447193107679,0.017770953562028,0.000830000533512021
0.0431271532405071,0.00437750231175188,0.0121691815615695,0.000641456979779096
0.0387278995341789,0.00627500264397714,0.0097437795525902,0.000494722380240145
0.0365626038832893,0.0109960110698325,0.00873876192679113,0.000484864049924485
0.0373030346290667,0.014116137313954,0.00473842924343041,0.000367347978495075
0.0382981626463362,0.0131801788324038,-0.0020466821021928,-0.000184258711896135
0.0326265252331801,0.00732642839462183,-0.00923725651527408,-0.00155051614079582
0.0202944388059071,-0.00577148792450307,-0.0112029940641545,-0.0033728950690376
0.00249665991115908,-0.0214714537508032,-0.00546337220842641,-0.00418893589206549
-0.021961276769079,-0.0323032122690048,0.00210382717588314,-0.00298145742619125
-0.0415670616970548,-0.0344500728726417,0.00557914865326942,-0.000417128049955334
-0.0466834212100938,-0.0303168559173083,0.00550435576505816,0.00191792440441371
-0.0440569143436683,-0.0250493875808887,0.00531409148214784,0.0030494048907795
-0.0413524469323572,-0.0226355506395056,0.00432376890087281,0.00308892781311081
-0.042609936292667,-0.0240364316050863,0.00129417161036837,0.00224209295995481
-0.04493766067168,-0.0218786957416551,0.000232081763948612,0.000526184189022043
-0.0435203959716922,-0.0108015430527706,0.00475992606819186,-0.0013259690778361
-0.0469526190963077,0.00368505389180324,0.0126110349262047,-0.00218888203075506
-0.0586875792012157,0.0180699537392242,0.0211244165747328,-0.00199139604648559
-0.0641620819943172,0.0303049202183277,0.0305769003186297,-0.00142420170943738
-0.0534840336538255,0.0334095149673352,0.0371924072993855,-0.000671663091031483
-0.0334216895207845,0.0216478425225641,0.0339949349034497,0.000568871495621038
-0.016962181149959,-0.00176051096150417,0.0218765660057335,0.00223834495510878
-0.0134879616836844,-0.0147949580371713,0.00922191529900123,0.00347455272631388
-0.0198539102443792,-0.00214598899546006,0.00283917314507268,0.00304244282510918
-0.0215351164567289,0.0260700787208191,0.00435054581832244,0.000137508861901297
-0.0110245923470938,0.0505316791430999,0.00674027348164301,-0.004510710440881
0.0124948778483076,0.0478685719950897,-0.00131669193472989,-0.00837168806610652
0.0486644576707083,0.0043814224169169,-0.0175083282027155,-0.00901529626104774
0.0871400168623563,-0.0596722988286677,-0.0262767785002305,-0.00623641625882663
0.104511938690684,-0.0946191626064782,-0.0230152253555638,-0.00197879071251118
0.0879514611931176,-0.0764607023904147,-0.0171673450053485,0.00146601269006284
0.0523424255595818,-0.0293689706064101,-0.0116679235072244,0.00297044255062894
0.0182049527589242,0.00923475447785377,-0.00380605825123051,0.00295365852670725
-0.00267678562698001,0.0206984238232166,0.00228152187956254,0.00254480091443872
-0.014675825038424,0.01231164152558,0.00237363780205086,0.0020490956136951
-0.0305557123835957,-0.000995638302549534,-0.00108208951954482,0.00109746114147262
-0.0416450171549011,-0.00967698140762066,-0.00506893969204305,-0.000509267757788724
-0.0389728864475865,-0.0145278687584852,-0.00808772060610842,-0.00266864154526622
-0.038433810864881,-0.0205932248332123,-0.00864869580286629,-0.00408880887006837
-0.0478745454043902,-0.0261884929567698,-0.0084556933471352,-0.00333500073137962
-0.0513858470321682,-0.023774912631349,-0.00831723716017405,-0.00130921352118516
-0.036461812166442,-0.0103106330264921,-0.00536559555267426,-0.000138703350363368
-0.0118435818527058,0.00486479899330396,0.000233461968990791,-4.32732478180273e-06
0.00700308707447882,0.0131535896023385,0.00487621731599332,0.00066045712538712
0.0156636968313532,0.0157894340086496,0.00675253860761431,0.00240136014576642
0.0197891668395957,0.0142413702712223,0.00710029495460078,0.00456245496804096
0.020725585231335,0.0117734429777193,0.00536918462000655,0.00624027342799602
0.0188548863508283,0.0130185261824833,0.000553121419440153,0.00614095185929329
0.0225640948474702,0.0100191263435792,-0.00652578223856132,0.00358083172232522
0.0331004852380813,-0.0124684700308101,-0.0150219876307935,-0.000357713955184878
0.0376955000504979,-0.0484146500436341,-0.0228218795165333,-0.00386129624105601
0.0304316171545208,-0.0658626064358845,-0.0275708541666021,-0.0061236283973954
0.0216782311905772,-0.0529415209741663,-0.0277499150243947,-0.00713641574440284
0.0190737238641778,-0.0298729509998175,-0.0241941259288482,-0.00621212093326628
0.0210623534314917,-0.0137952174688799,-0.022051416949826,-0.00267283650573696
0.0218767643825439,-0.00755083067110415,-0.0222247296216876,0.0017961648731272
0.0203234603079449,-0.00264385391958392,-0.0212540951966237,0.00421998343161321
0.0222102845310088,0.00439496455293446,-0.0206824220674992,0.003582444300048
0.0254992386176579,0.00644658435119744,-0.0209568216292404,0.00112200263306195
0.0224537260459074,0.00446417945175895,-0.0216015805561431,-0.00147185584700248
0.0133442045682267,0.00664781485677176,-0.0216200336332986,-0.00315045131457895
0.00217592921692703,0.0127672381440681,-0.018353106366595,-0.00348736073690593
-0.00352096258706885,0.0162038920200134,-0.0163181229616968,-0.00248279216271008
0.00655302382621102,0.0139751143610469,-0.0171239863598693,-0.000966047089652426
0.0246048854010719,0.0100356257808243,-0.0153648787713739,-5.88807456369279e-05
0.0338704113817391,0.00462216901969192,-0.0146756329500086,0.000269933515345775
0.0315056186095439,-0.00311209162964447,-0.0204632393287361,0.000536113687545154
0.0210466599571111,-0.00854520345123035,-0.0274671371970548,0.000598836943650043
0.00748042699958629,-0.0136712088626815,-0.0311372785150026,0.000342051851917058
-0.00337135960687172,-0.0198044357005853,-0.033793827190445,9.7294384613983e-05
-0.00886855715903703,-0.0251165527148303,-0.0339699944107495,0.00030614993983911
-0.0119252931936396,-0.0298282636011601,-0.0303840119469374,0.00126408227364746
-0.0151560551543499,-0.0322108590518687,-0.0268131210439948,0.00261645851509595
-0.0127116144217215,-0.0255616185297813,-0.0230459232705665,0.00367275982608518
-0.0053921737620756,-0.00702389524879321,-0.0196950778665048,0.00412842950353896
-0.00479581798959626,0.0124175789627478,-0.0227465299577864,0.00380163897596946
-0.0138295206576022,0.0206593431643456,-0.0290059385314654,0.0028248112200452
-0.0244615960190526,0.0213541077179236,-0.0249434691938677,0.00170572359672259
-0.0302160539648097,0.0245016014977582,-0.0116709511054509,0.00106170950854983
-0.0299247056235738,0.029308615927831,-0.00124505111916443,0.000842057430052516
-0.0262395111465276,0.0331969926670515,0.00326486999549379,-0.000264417097970912
-0.0219126549549919,0.0375648108035618,0.00255574848949656,-0.00260383575384676
-0.0175642848320895,0.0389204077800718,-0.00216146064455525,-0.005187485019042
-0.013776976927641,0.0335905613565013,-0.007808421225437,-0.00732783433343078
-0.00794561851373308,0.0262021550455468,-0.0113697605656263,-0.00802603145071953
0.00287737334987107,0.0203242992656268,-0.0117838960337286,-0.00643621149028156
0.0139334011097178,0.0127500884671907,-0.0112298959299192,-0.00332643030190082
0.0193674307822711,0.00401722244500219,-0.0113893467772756,-0.000405032823889353
0.0202696985330132,-0.000384302632419235,-0.0111144412184211,0.00140976342778008
0.0217860242597332,0.00156783185402139,-0.00982110468832385,0.00253125852341657
0.028951815482547,0.00656567969215673,-0.0102678812314186,0.00347520462424727
0.0425738569210437,0.00842386147883368,-0.0128247161037054,0.00406915796367247
0.0544708426975263,0.00694608347681957,-0.0152941061434045,0.00406535394947621
0.0548534976412969,0.0031446788609214,-0.0209509622313581,0.00361205842507347
0.0445179238509308,-0.00592958112266957,-0.028227023190208,0.00285418519913226
0.0286956901975491,-0.0133468662779283,-0.0280792068074472,0.00177073196297932
0.0146398890475882,-0.00998067406198531,-0.0162733970943399,0.000749293830752367
0.0070876743717702,0.0022875490993431,0.00527990962967978,0.000708500014353813
0.00115924859766287,0.00804070816528399,0.021719312715104,0.00234144408629647
-0.00540347556377415,-0.000389228258847824,0.0218038966920104,0.0045643209061875
-0.0119451117893201,-0.00811977075934996,0.015148386893315,0.00492970648026797
-0.0189239248467957,-0.0069638038928533,0.010852796666322,0.00258802287352979
-0.0260476132811684,-0.00259392533868717,0.00989943577668097,-0.000687838900231454
-0.0366265009906935,-0.000647168962227093,0.0103755575308513,-0.00264344523810549
-0.04660796190663,-0.00513147737457386,0.00796257606971017,-0.00290010409520301
-0.0426971285525194,-0.0198622579963912,0.00116851039047204,-0.00259815076241037
-0.0262430824064271,-0.0386173724141914,-0.00496226863731168,-0.00243875738035905
-0.0132834343548897,-0.0399079038114718,-0.00298531057361888,-0.00194039216928022
-0.0123247685480834,-0.0121322776466753,0.00688801132364057,-0.00041715964514784
-0.0162897857364882,0.025502869899569,0.0149889726374062,0.00145526496375564
-0.0143291445912798,0.0461423768476433,0.0157702403324819,0.00224818147327645
-0.010543804689899,0.0481134776264898,0.0127448499590074,0.00164562734869901
-0.0157471754727911,0.0390464815840875,0.00794496815661318,0.000111646957350035
-0.025452233406504,0.0210743477612108,0.00257724407819682,-0.00154137809714943
-0.027586891862393,-0.00262299248350727,8.93221699973931e-05,-0.00169732700194411
-0.0218657206083205,-0.0283135550042881,0.000554937098214873,0.00025853597534004
-0.0155521023913935,-0.0414993848679636,0.00228910170572831,0.00270780684900833
-0.00891308342683077,-0.0348990173714038,0.00378514335618888,0.00360945883511085
0.00127779951653546,-0.0239262106792629,0.00465901562372512,0.00237210376381859
0.0116730924917464,-0.0219811886723991,0.00542987247740305,0.000349655004892189
0.0136853125348662,-0.0269748501093027,0.00515302821775051,-0.000697546431197995
0.00336310986293144,-0.0294509744604722,0.00469951049865904,-0.000359345538175574
-0.00828767881703355,-0.0266037457505406,0.0074884789299218,0.000773723701661124
-0.00707169366779147,-0.0217047617108552,0.012065303375625,0.00206102301475068
-0.00126369444661298,-0.0140850051386996,0.0124081250637563,0.00296635085379388
-0.00570836459928578,-0.00468185150728163,0.010631401228403,0.00307228190872707
-0.0159050558311523,0.00343389042274279,0.0110474638685173,0.00219941229977841
-0.0230650141444194,0.0124124492107669,0.0126608686623147,0.000605345671811682
-0.0245965381639969,0.0190641670243515,0.0133750465229873,-0.000951072149080488
-0.0187576263215015,0.0201199341192006,0.0116490429418001,-0.00191108493530629
-0.00889439649806333,0.0221852974307792,0.00854032988708974,-0.00240003655200934
-0.00266076302076344,0.0258966117665475,0.00406552826029021,-0.00292545120833967
-0.00184098582564933,0.0256059215190599,-0.000704341011116591,-0.00389537094693008
-0.000682483082853912,0.0209755872302654,-0.00261739392620607,-0.00484626432763989
0.00105609463585293,0.0147581361499939,-0.00105279061674876,-0.0044953731763516
-0.00480419588962322,0.00939387081562983,0.00377374640262832,-0.00265132555625922
-0.0164432295743428,0.00416547383375323,0.0103816652561689,-0.000702299737585965
-0.0208418237057155,0.00244286328331361,0.0154574377017265,0.00100460305039742
-0.0133329940569913,0.00847040233119857,0.0163174072238487,0.00343707593830095
-0.00670607238385251,0.0104187757359677,0.0134818658132407,0.0057967234299767
-0.00893458587640674,-2.00315395109101e-05,0.0110780172519994,0.00598216252410497
-0.00862622381010664,-0.00983262318489618,0.0118352702836913,0.00383774830865622
-0.00246611882390474,-0.0108183405840646,0.0149364767975829,0.00104350690265492
0.00405810790945875,-0.00942269619761428,0.0187592734369934,-0.00102906763709595
0.0115485360318467,-0.00886308270695391,0.0199510506094965,-0.00204657061697968
0.0167078920149059,-0.00896984519070649,0.0159756500961733,-0.00206381345417839
0.0149501749230805,-0.0084873261962417,0.00851836836381123,-0.00140555849701423
0.00936779282349267,-0.00200886387714095,0.00295951913236285,-0.00102806687678061
0.00656538283781433,0.0141440691550611,0.0042699778254648,-0.0015185013680451
0.000538857100068264,0.033630601202686,0.00966637702564077,-0.00201929972415983
-0.0181056445994519,0.0425859968465439,0.0134584285258117,-0.00119631218451008
-0.0361410299855025,0.0358059739321812,0.0155424406135432,0.000846592650849443
-0.0387022077615348,0.0218795596322568,0.0173304259165299,0.00293289586841121
-0.0368132329374651,0.0110822811844032,0.0168427546062728,0.00413001541730275
-0.0403616929399881,0.00752992189765972,0.0139862955924907,0.00352573150963777
-0.0382491911741139,0.00735602889145264,0.011279612558611,0.000930309089423298
-0.0295338388970085,0.00502904200829676,0.0108800102106728,-0.00239661942436252
-0.0282088045531742,-0.0040659332077831,0.0153614707865162,-0.00517992103275687
-0.0298105363681012,-0.0173363754554795,0.0234108091649032,-0.00644624649957837
-0.01763046435591,-0.0218303198074807,0.0268343984105332,-0.00510649987314022
0.00493819177678952,-0.0257675080978362,0.018504353326511,-0.00155714124112299
0.0236998289454037,-0.0378190157393098,0.00657625887599612,0.001772949354688
0.0360939837673065,-0.0378029912846197,0.00420474420455785,0.00292555189366988
0.0391555263556024,-0.0177881778811743,0.00834812814049973,0.00244364452168644
0.029466411302938,0.00755866988766422,0.0101801583272065,0.0017631814972484
0.0128010230944368,0.0177250256422859,0.00915610370475443,0.00113988429348994
-0.00636249208525862,0.0121165136903975,0.00950554011774774,0.000537238422422513
-0.0195940520947563,0.0118158919905388,0.0108780034813761,0.000659322109203814
-0.0202160244498327,0.0103772797212056,0.00823766363770091,0.00180708701920969
-0.0135533985593579,-0.00914244665246903,0.00312886626682352,0.00287569282639014
-0.00380538565711401,-0.025686983475769,0.00231997709818639,0.00266708276205407
0.00285583161461347,-0.0187559233411115,0.00709644887538463,0.00115609466950082
0.0033643385409986,-0.00914682115758653,0.0129071474150738,-0.000563288233537926
0.00750620152807698,-0.0156359804097663,0.0158069516573873,-0.00109222198218209
0.0186494956007969,-0.0277743133067679,0.0165212704678168,-0.000280418602092749
0.0286168912982287,-0.0363452857653192,0.0147992256554952,0.000761458142494522
0.0323089097015583,-0.0390604461955861,0.010658229964345,0.000952078015090539
0.0259698466426849,-0.0325651727559395,0.00787227256449645,9.49069883121624e-05
0.00805414216474935,-0.0193788741744353,0.00561252837236499,-0.00120830790504964
-0.0130047955022262,-0.00954385438712069,0.00237192916448367,-0.00241407558954525
-0.0276408199103488,-0.00990774992065924,-0.000215891876784781,-0.00328655315442233
-0.0228297942809299,-0.0155849981549134,-0.000652843980721055,-0.00364147168620458
0.0111174377032815,-0.0150196959385036,0.00353287036266186,-0.00312866590663596
0.0568706816406387,-0.0028375888384711,0.00970981275641175,-0.00153889998461171
0.0854713060307764,0.0113800852121635,0.0118803378608896,0.0004488385933215
0.085862455525651,0.0171220319782113,0.0135780600896191,0.00163033995491732
0.0694860983709799,0.0129997056474555,0.0194945128204616,0.00181016606550184
0.0515075545436038,0.00119594812749123,0.0259506110835324,0.00192539101872248
0.0359495137472265,-0.00969269041757102,0.0303389484888548,0.00221349503604433
0.023268281449127,-0.0136701661935583,0.0310768256283571,0.00203028606178429
0.0169828490984954,-0.0163738150406786,0.0250667477700304,0.00134306866941779
0.0106310150684624,-0.0217772582579829,0.0153727111041958,0.000679355556658081
-0.00880744215533093,-0.0272257578939627,0.00705897229115263,-1.86439345711397e-05
-0.0336401431323581,-0.0286165417943271,-9.40535324740199e-05,-0.00114285994374151
-0.0457704932232086,-0.0266221234185338,-0.00461092689941609,-0.00220023609127055
-0.03908528063507,-0.0234701939602248,-0.0030650435201954,-0.00231465860742494
-0.0190610819155749,-0.0156617106657079,0.00355688371334251,-0.00139227314490068
0.00169122751813693,-0.00335834958497873,0.0102645203709453,-1.1142705168405e-05
0.0179808094697692,0.0118210374686075,0.0119979568510149,0.000882561263559355
0.0348389848600991,0.025229194018709,0.00780540371695579,0.000697677633302032
0.0541932749335583,0.0221374196398535,-0.000157128714854921,-0.000401340687004432
0.0655058324699921,0.00751006254627486,-0.00229764369764052,-0.00173547704511353
0.0562275567449094,0.00433548114506345,0.00565920457070753,-0.0019507782233848
0.0333993752505111,0.00986582511924954,0.0103455953240334,-0.00058824777551126
0.0107133095540411,0.0073883233116612,0.0077266747305336,0.000875679836340358
-0.00729172342936989,-0.000177043890606503,0.0068668872341318,0.00116179426112397
-0.0180744558449846,0.000758149175535128,0.0120642662388007,0.000592174179502381
-0.020870191615173,0.0162364817096707,0.0188697948589663,2.12099839560664e-05
-0.0220241595142268,0.0343681672338559,0.0176657270998044,-0.000239892312877378
-0.0250809210498739,0.0357504369413291,0.00945186389781829,-0.000361169189355828
-0.0256744623070511,0.0194463337417219,0.00330321713884661,-0.000581061273841568
-0.0214656005372296,0.00486074029800016,0.00228329500278781,-0.000697938054001621
-0.015464667482867,0.00776094272012279,0.00661374515662046,-0.000199957170435885
-0.0157037736641806,0.0245082654354918,0.0146191759343311,0.000942662441101099
-0.0241759865270559,0.0423568957037317,0.019489297157754,0.00204064718365319
-0.0337298154112987,0.0489038436068642,0.0158047801223072,0.0022618995748067
-0.036280635652445,0.0331444205427911,0.00508428051805223,0.00112048792196718
-0.0293429662300587,0.00141175667382674,-0.00701236420147228,-0.00141464687972595
-0.0209972791914491,-0.026069353852883,-0.0150118381651296,-0.00442303612988932
-0.0173453277971494,-0.0378697100408412,-0.0150535016449116,-0.00614202127879844
-0.0144266754334331,-0.0304024207065592,-0.00694774292500879,-0.00543779990533853
-0.0115730422764521,-0.0111333267390133,0.00432482174776378,-0.00261027945546936
-0.0136223168627342,0.0050389259333714,0.0110466500355172,0.00107925235609467
-0.0175927453969997,0.0055585909762641,0.0089304984370686,0.00397791423736958
-0.0120386105144352,-0.0116814075371554,0.00177529264896513,0.00456429176644802
0.00604613018715193,-0.027620728873238,-0.00300549498422236,0.00234138911811293
0.021485442679343,-0.0218035676032585,-0.00311816939111891,-0.00102290595027772
0.024253182166504,-0.000681043571678995,-0.00566984841186063,-0.0030403706969127
0.023501919960846,0.0124548669992499,-0.0129784264032332,-0.0032304156322123
0.0198117642412185,0.0153032519918198,-0.0164997123989463,-0.00270170781043732
0.00476790419793829,0.0193478016327707,-0.014084116882007,-0.00252108168377095
-0.0138433005260621,0.0246541596506574,-0.0118176972520917,-0.00291077329157946
-0.0227130347954518,0.0254987682631338,-0.0124505082948836,-0.00304728352860365
-0.0199871044563817,0.0184495104282982,-0.0156880029505714,-0.00243977194786382
-0.0110059171335253,0.00829910652914115,-0.0198747319123401,-0.00175344721154377
-0.00571660369325253,0.00078194758157267,-0.0198132737036795,-0.00142605267760522
-0.00721285815178284,-0.00311711987433897,-0.0120741223251485,-0.000569691897707367
-0.0073578652257786,-0.00643598676736055,-0.00289886183912012,0.00153939240326723
-0.00196623082090439,-0.0144525858192393,-0.00175175437269123,0.00373622028563612
0.00816093359895272,-0.0271682986955348,-0.00854334251383886,0.00391048371673873
0.0169144462750163,-0.0391519619927523,-0.0169550218833387,0.00176086502609199
0.017670406312803,-0.0432393518594491,-0.0219416927356345,-0.000878362882562926
0.014237313636279,-0.037726945877289,-0.0222748720499732,-0.00256583494790497
0.0154920602472435,-0.0204645730259905,-0.0153597297331517,-0.00287517355013002
0.0173269975140125,0.00146636698495346,-0.00255190217727297,-0.00152669216653642
0.00714230349626067,0.00582596130214866,0.00311410497591963,0.000774262053341502
-0.00941202803249244,-0.00255445365389789,-7.65981923801718e-05,0.00164807975384509
-0.0211450755835214,-0.00155133194207008,-0.00287420613537087,-0.000397285853629383
-0.0279315850146377,0.00696635461570001,-0.00625770684460992,-0.0037538811541157
-0.0258286963113853,0.0113545702176577,-0.0123123643717745,-0.00569163726209252
-0.0141853798293599,0.0135062217331704,-0.0157291477119768,-0.00516969398054528
-0.00517879786600728,0.0178069487597836,-0.0148378320389264,-0.00312602283942337
-0.00390018154353914,0.0204372943296098,-0.0134966128839818,-0.00103759703025172
-0.00450266223294288,0.0207669728496056,-0.0118426676297797,0.00025775276152944
-0.00343713282266486,0.0216869387260233,-0.00958711933802625,0.000760923932809281
