-0.0143340780079817,0.00455451946544507,-0.0100721170115633,0.00216858042390072
-0.00589805385596933,0.00522504990673345,-0.00847952654913075,0.00310303467483289
0.00501383615653252,-0.00097984382297151,-0.00390594498327477,0.00372843025545782
0.0176845815143497,-0.018925897786296,-0.00213211987997916,0.00376228551703906
0.0331058176027259,-0.045667998372485,-0.00599684546909022,0.00297429709666823
0.0425697568050635,-0.0614349662387221,-0.0110519963128617,0.00172965121734016
0.0371995029806612,-0.054532640400108,-0.0129355358253174,0.000577474987317772
0.0209438389742691,-0.036606078893278,-0.0104927100653485,-4.08956366402837e-05
0.00459546280711937,-0.0189346349441088,-0.00295613095713629,0.000360477746505685
-0.00499389663858342,-0.00588933143097765,0.00501133776342516,0.00185848640656484
-0.00698806445154032,-0.00124794972756874,0.00482412775794017,0.00351257793249507
-0.00973224086257327,0.00664733606969919,0.000266225708240072,0.00426958663915284
-0.0225945156666622,0.0237745474385114,-0.000576342624634704,0.00383874091181721
-0.0338356816239164,0.0308470788206759,0.000118434593922593,0.00309409580375454
-0.0302573163372901,0.0214375560462488,-0.00465957874523253,0.00315742186242083
-0.0263854878431501,0.0154112201733793,-0.0134082469635271,0.00329599777658535
-0.0324860809232816,0.0253394138950769,-0.0143191465312617,0.00176382395808057
-0.0387197775584472,0.0392701595910193,-0.00579324577842585,-0.00121695406341246
-0.0411298373778557,0.0359702471154491,0.00118033148875609,-0.00363052096132263
-0.0353164537170246,0.0124364705855938,0.00147755099608683,-0.00433763510736323
-0.0166319750595205,-0.00704941802478403,-0.00130521900742843,-0.00369596703787466
0.00576756870675507,-0.00365283177047802,-0.00165459243733407,-0.00249177486109239
0.0259456922426013,0.00791840713113162,-0.000180029744560111,-0.00107614873985374
0.0448114601268203,0.00549621008402707,-0.00225947644775945,0.000508821124129486
0.0604008273617819,-0.00576655849778348,-0.00641268403033934,0.00193580862829735
0.0763247184896059,-0.0186626390132059,-0.0100903340283912,0.00248639711272232
0.0917301263407114,-0.0339922617371676,-0.0131122994900816,0.00170121806931365
0.0927063390820134,-0.0394698734323415,-0.011643777484616,0.000345259910653797
0.0766568520836552,-0.0438480061594353,-0.00766750505489235,-0.000391179577816362
0.054856322421417,-0.0570545153241561,-0.00635306741431398,-0.000369282046078322
0.0295540434282518,-0.0509667807647563,-0.00432121355868871,-0.000144019070617873
-0.00239516245535148,-0.0209103108446902,-0.00158997501313561,-3.24860570764984e-05
-0.0271038653653195,0.00131310747329848,-0.00358989914598134,-0.000101215746725498
-0.0321980029959768,0.00703432209402625,-0.00755521181482835,-0.000265340234071156
-0.0291160029490127,0.0102323204171444,-0.00811828262938425,-0.000159027130296186
-0.0277307908339271,0.012273005347774,-0.00591482029611041,0.000335396883711515
-0.0270317779557371,0.00684126268646891,-0.00463039007024501,0.000856135214514138
-0.0257421172437184,-0.00126268009745882,-0.00514818373917979,0.00113483261948629
-0.0198129038175508,-0.00437370201335672,-0.00634403668143288,0.00111030705756731
-0.00816472876745454,-0.00144333947102405,-0.00584558359521261,0.000563176761453962
0.00230099362608593,0.00522421856363329,-0.000758469346955597,-0.000553373661003099
0.00616949716949826,0.0115162380954143,0.00420691311721557,-0.00184132251339727
0.00776837482849808,0.0153110944501286,0.00588289066385062,-0.00307793127628599
0.0130699804437229,0.014349002031844,0.00713735347912543,-0.00432199874811394
0.019426388208594,0.00704559879999384,0.00771298426315892,-0.00552815586853333
0.024507638777689,-2.8278745828132e-05,0.00695777850186925,-0.00645895708855644
0.0265778841446275,-0.000130587566657794,0.0049580304825425,-0.00685650491904241
0.0217170849621758,0.00271640661785245,0.00244038191131831,-0.00621691450636537
0.0134661187645732,0.00181926892267646,0.000476338339465525,-0.00413294764736608
0.0082620415751361,-0.00174366474415394,-0.00130566482933306,-0.00113351305345656
0.00424695628927409,-0.00321371256808439,-0.00477875953571458,0.00144636105807242
-0.00605403978112271,0.00236650961696969,-0.0107232243443205,0.00240653581715554
-0.0222236588149597,0.011663455807335,-0.0149432339344871,0.00181305755846194
-0.0397069357082296,0.017554509181929,-0.0120420379495435,0.00105679709931234
-0.0535763239729528,0.0226175831164631,-0.00435311741780726,0.00152872370358861
-0.056220052394767,0.0242825086689212,0.000926570271557835,0.00317630895145109
-0.0493072187129416,0.0136344172904428,0.00184824454573683,0.00444082838129573
-0.0314827172442133,-0.00848735380753581,0.00131442301008435,0.0036593177297378
-0.00414873507465098,-0.0240141978212986,0.00311318140579337,0.000938124274439782
0.0103814249538166,-0.015095775429156,0.00700779540235696,-0.0016861962915925
0.00460779990161281,0.00477054856364778,0.00789499358937075,-0.00285965870541488
-0.00407635171704948,0.0141402217149464,0.00374507736138171,-0.00343750721610977
-0.00334565189196947,0.0138711716818382,-0.00227369025517103,-0.00441205658014513
0.00728930918252647,0.0117101539696951,-0.00569674126729319,-0.00554000646437682
0.0192617488099131,0.0128861568136052,-0.00365575303957701,-0.00616655841297902
0.0210522807818963,0.0185005196517968,0.00156141268521082,-0.00552499579420915
0.0154384930382687,0.0233619350375708,0.00424626210461682,-0.00338548360799336
0.0137785701279828,0.0232067334415726,0.00298394607786464,-0.000660611898512747
0.0115142737531758,0.0123350498135192,4.07035004150597e-05,0.0014713345852324
-0.00363441638090498,-0.0137764009319394,-0.00531678988907389,0.00263586826455345
-0.0295522506064176,-0.0365931154391511,-0.0089729143015831,0.00309429126037636
-0.0535882065973764,-0.0315827491501963,-0.00558615412095072,0.00305054586519002
-0.0679185294937596,-0.00687215033666545,-0.00202310762404229,0.00241766037849414
-0.0700708261950207,0.0151418452760897,-0.00295080193509145,0.0011278140833365
-0.0606689011222102,0.025226669189534,-0.00326168048770187,-0.00034005167614356
-0.0476513906561793,0.0236063290617467,-0.00141139782485578,-0.00142645602733277
-0.0354868376245972,0.0175293503499397,-0.00191508228015024,-0.00176167876520623
-0.0225181293380136,0.0141836974873817,-0.00577125944661099,-0.00106996865989007
-0.00909119199622059,0.0119694029741534,-0.00731845949219061,0.000154102689084024
0.00256245242293966,0.00992747280594753,-0.00329267435952445,0.00109337521356094
0.0135561676255521,0.00864212378788836,0.0011096257738463,0.00168507841193647
0.0257840910045184,0.00230707588603698,0.000502211488959837,0.00186811240723634
0.0320943343016497,-0.00817211547121637,-0.00249116390159873,0.00148848151372374
0.0262497582414765,-0.0134227295219287,-0.00417396935223164,0.000912795776858473
0.0136939654097082,-0.0104010123373211,-0.00497371882621623,0.000218357316911639
0.00452621848135374,-0.00232603365629768,-0.00402932328494711,-0.000699268339019746
0.00123168739676306,0.00647990579932963,-0.00239532140914276,-0.00164509390016747
-1.57166219046379e-05,0.0125241451098235,-0.00238424583267264,-0.00243132056071689
-0.00132478217070581,0.0129688885361704,-0.00274228222776774,-0.00287198580715065
-0.00361127534100804,0.00276215030514526,-0.00594020814783803,-0.00290221906319114
-0.00478931364118236,-0.0153313808271677,-0.0155649907661359,-0.00296770062054479
-0.000718042797600075,-0.020024362613023,-0.0199912166666543,-0.00350803817532157
0.00837710699678085,-0.00381236578591185,-0.00853961706900543,-0.00341079805196919
0.0145350054361083,0.0084823173264487,0.00180682036307207,-0.000998693653817529
0.0127619803418734,-0.00240568197119622,-0.00368947758747249,0.00266128235656872
0.00870619206669683,-0.0287317456461593,-0.0150607931228362,0.00483481570865678
0.00640783385029291,-0.0461608700210451,-0.0219973873587992,0.00482341357519578
0.00476817130522241,-0.0399261898441988,-0.0220350260069209,0.00376664047303703
0.00191415851109813,-0.0221635146672476,-0.0164426947051708,0.00259649450808577
-0.00361344043663442,-0.00716217855478912,-0.0118032841167489,0.00138578997066418
-0.00902577301343002,0.00754526861874604,-0.0103307452147206,3.13154773492453e-05
-0.0103924332179519,0.0191320228905077,-0.00766349871526059,-0.000945266447890723
-0.0129330682121323,0.0175044240554655,-0.00350025499082759,-0.00116850826335007
-0.0231004281938524,0.00702068430063742,-3.87193860397267e-05,-0.00117295154453957
-0.0318021310883341,-0.000447248259256176,0.00278370969442413,-0.00156224613641078
-0.0312032178594849,-0.000894146234951307,0.0044677276805773,-0.00187708093354779
-0.028025938049343,0.000358143171887683,0.00403500587205624,-0.00113538868457338
-0.0254824259443911,0.000672447089256938,0.00224453141479362,0.000167295584376441
-0.0212724691927399,0.00366261851367746,0.00293862754543649,0.000613035103896404
-0.016911117392606,0.0054636258464774,0.00445211840911912,6.6817833558395e-05
-0.0120401837495268,-4.02357972229019e-05,-0.00172340776661553,-0.00108117625957134
-0.00624132291693293,-0.00669484054378742,-0.0125955058826291,-0.00252126475408274
-0.00294400372149974,-0.00839842913975266,-0.0180717653440082,-0.00301849070507731
-0.000165630502364563,-0.00653361619520286,-0.0151908566237019,-0.00154452006861563
0.00753622700558862,0.000584249226817095,-0.00798851680142775,0.00111179579838396
0.0173331776591662,0.00939006527607471,-0.00292988579675421,0.00339223594025375
0.0206663071320743,0.0095401608416701,-0.00199110034397828,0.0045323113361655
0.0166925824318018,-0.00164116134989722,-0.00291206575667003,0.00454993939144815
0.00940292637375735,-0.0178155421901171,-0.00241481164071509,0.00370377473007792
-0.000921742608199581,-0.0255545550980489,0.000584249314714372,0.00218272468461232
-0.0124176255195822,-0.0133684182044609,0.00609606369453024,0.000511730976318702
-0.0150976046907632,0.00770706961310607,0.0118794745300114,-0.00054318065894509
-0.00227390267190261,0.0121061187487648,0.0136936944986585,-0.000822483614995664
0.016700944526811,-0.0111855992508042,0.0102952751042798,-0.000583686522574571
0.0261072122224178,-0.0423479924680465,0.0028750888479131,-0.000127537149447583
0.0174781089711228,-0.0476894416324522,-0.00411137914954199,-4.95120378949931e-05
-0.000508446535536194,-0.0232482349370792,-0.00513035434670454,-0.000503613524807968
-0.0130519835952019,0.00817076808115658,0.000457001857581908,-0.000820975789834775
-0.0170332655346947,0.0304096868231443,0.00662752259567026,-0.000666959448549201
-0.0157232040562396,0.0404790753350235,0.00994678720718842,-6.42569527398175e-05
-0.0113836564701924,0.0429770254740164,0.0133682990017759,0.000924373372051564
-0.00532818718108431,0.0395444112739288,0.0168100417487265,0.00189001637875115
-4.6022383728527e-05,0.0298156622488607,0.017420819696812,0.00217444864010765
-0.000321376488788628,0.0201119268313837,0.0168005219449355,0.00112996085120285
-0.00349151620565454,0.0135314558315979,0.0174271821640959,-0.000906502107422312
-0.00374082146386555,0.00820891316057166,0.0184741706274657,-0.00224356390627476
-0.00866849400673249,0.00948111231866811,0.0208583405429097,-0.00162495821668163
-0.0190805873740841,0.0189210760520893,0.0246107087177879,0.000110660832345782
-0.0205625674919275,0.0251576983280001,0.0271870938580276,0.00122310212261625
-0.0123810273561261,0.020999752002854,0.0282344319370418,0.00124389587513798
-0.0116022541419985,0.0119744002160368,0.0275743418248372,0.000786146965460253
-0.0204213169707344,0.0053170007626254,0.026473550186101,0.000196385164918463
-0.0187516355000274,-0.00184165134615887,0.025385440941587,-0.000407520398390336
-8.69574647301072e-05,-0.0210884331847912,0.0212325633845799,-0.000817747345795354
0.0213529960993256,-0.0511100075209308,0.0125154844293737,-0.00116107439079059
0.0327324824983973,-0.0692268333341453,0.00330473877286224,-0.00172761655327488
0.0325406720828591,-0.0652332342017599,0.00169316152606695,-0.00238130669147834
0.0281280925461886,-0.0541787610037133,0.00650537555288795,-0.00273256045899188
0.0231945289393036,-0.0511060091963844,0.00985429721000856,-0.00268703412811114
0.0142779092462387,-0.050656144300246,0.0120843473273414,-0.00254275967146539
0.00274894707920557,-0.0358485080178327,0.013114797220009,-0.00250911174968362
-0.00144892488256944,-0.00268623238795732,0.0105505501107436,-0.00228552970640556
0.00592455153346121,0.039342176078629,0.00738268211562851,-0.00162691914167407
0.00898373126593834,0.0698390558188121,0.00552367616484335,-0.000818748964726258
-0.0074697722116628,0.0701409972702707,0.00472591238419645,-0.000259655553496751
-0.0274608206335345,0.0419932875068572,0.00414369737735181,-0.000112733101716278
-0.0309763802556455,0.00756827064747176,0.0026540989860111,-0.000565157460383001
-0.0285305775632638,-0.00310075305348009,0.00337414710567955,-0.00180003967225549
-0.031829889374334,0.00845319154506145,0.00792210304599334,-0.00371543254904485
-0.030758901194168,0.0119251028089197,0.0102473882497487,-0.00581462457678786
-0.0204972137329222,-0.000470157501199298,0.00935138470834689,-0.00699493669578107
-0.00807217344087485,-0.0156451869451745,0.0110311646034089,-0.00641465782353929
0.00276124712373901,-0.0225028540211074,0.0136340105318372,-0.00431591270086431
0.0094063129799832,-0.0167493908109244,0.0136023500714365,-0.00146294881145102
0.0101150202980278,-0.00578377105336119,0.0118135874933586,0.0010991788404015
0.00927645161755655,-0.000438597130127068,0.00742857368540593,0.0023584205028398
0.0149283886525217,-0.00187112001874304,0.002626261007468,0.00237110373792376
0.0280265886550103,-0.00326196022177416,0.00138275388767408,0.00195472629535715
0.0437943689449582,0.000301436716563654,0.00176134171284338,0.00164079133491334
0.0545125748475004,-0.00638282791412187,-0.00117931943792746,0.00157660527389442
0.0518796197350954,-0.0409579141078484,-0.00967597230181484,0.00149906151109664
0.0406432847063603,-0.0705081243692101,-0.0169941202986384,0.00074518163958701
0.0322324936699,-0.0545089956445389,-0.0162178378263201,-0.000436780117004558
0.0286624464188918,-0.0189225262814184,-0.0112780841137363,-0.000538035443684955
0.0252066271037282,-0.00318553998443451,-0.00782474242358634,0.00106489047919791
0.0209746652952825,-0.0024195079296118,-0.0090691561370131,0.0031881491922591
0.0208791989146919,0.00115772558144797,-0.0101430176391773,0.00380450688107308
0.0242817401324911,0.00972229525366583,-0.00765069656126269,0.00192779738292196
0.0171119189120819,0.0117823976847988,-0.0107992691359492,-0.00103505489653203
-0.00189623204691912,0.00733066549346569,-0.0118302678562584,-0.0028878174529285
-0.0114968668786331,0.00588191288457033,-0.00180419572413099,-0.00251914463665973
-0.00327498797452123,0.00611143647996508,0.0042373716101282,-0.000172385536665632
0.00902073510551414,0.00921165740983048,0.00111664680629927,0.0026732757441634
0.0105847174338663,0.0157977417563496,-0.00292020537637288,0.00408444101969816
-0.000377117231882628,0.0186977267387213,-0.00488229573440547,0.00324822318790208
-0.0168907100616937,0.016926901589686,-0.00354546875336749,0.00108939454073295
-0.0319159869227506,0.0173087066533642,0.000873200561622106,-0.000607943601545545
-0.0409803576336925,0.0230398635774107,0.00503609705318493,-0.000470291753425806
-0.0474053646277462,0.0299781829119114,0.00653306245338147,0.00156668371536839
-0.05325687934081,0.0283762308832477,0.00578503170047436,0.00442594934866983
-0.049956090865134,0.0161981401813252,0.00349095298463535,0.00690653540452086
-0.0340648398237614,0.00692176888691454,0.00169701800622872,0.00845607809636575
-0.0155958291820317,0.0093179252888325,0.00244840606315752,0.00892332727204984
-0.00407273049943589,0.0127205381365189,0.00169336941542861,0.00811515679775924
0.00594450799882018,0.0014901814336954,-0.00229491536995302,0.00606964116117652
0.0237319589776796,-0.0201686501230668,-0.00645176278180208,0.00307726749978128
0.0475353939931575,-0.0364743138448092,-0.0107299619437578,-8.41534704458871e-05
0.0692792762811267,-0.0424512183766857,-0.0141579393394873,-0.00208135374562208
0.0770844476685919,-0.0494924844325833,-0.0149369639528479,-0.00231552567438206
0.0706492154524003,-0.0637021742568913,-0.0128868866319336,-0.00115281477291568
0.0589602214698488,-0.063847001678286,-0.00794883556097794,0.000774054863387746
0.0405036469595776,-0.0397936972132631,-0.00328126594950769,0.00226674710426872
0.0166546432565449,-0.00187354635837386,-0.000251463819564601,0.00189556779699207
-0.00538680664567548,0.0445453842439956,0.00804092962223471,6.57933450591569e-05
-0.023467115420933,0.0804762587618429,0.0237243458324983,-0.000674961266746969
-0.0357384823889107,0.0814330221559623,0.0326431318834606,0.00103181163284862
-0.0385798800513595,0.0531161170790507,0.0246521181677945,0.00306913689396574
-0.0332842437376101,0.022785674936229,0.0102274818461613,0.00241148715192624
-0.026382549981561,0.00509432580755726,0.00251582640024652,-0.000769258100537585
-0.0217406071459859,-0.00364045336550638,0.0016710483213987,-0.00348633918963902
-0.0173361639156641,-0.00683025797015788,0.000637526087562644,-0.00379635314254692
-0.0101363228529821,-0.00473881396340115,-0.00299720962024333,-0.0021315163906001
-0.00361075353094178,-0.00461620043202576,-0.00617094159121852,0.000171015539082111
-0.00359758949174642,-0.013134166100657,-0.00751039163678653,0.00169425153179561
-0.00926423495950388,-0.0281856547454,-0.00978810844683953,0.00118518029704474
-0.0136761479384234,-0.0385857356572706,-0.0143895267386336,-0.00135767934656296
-0.0090092609643339,-0.0330082639762535,-0.0149246589740221,-0.0044437397821382
0.0070604627949182,-0.0179403526776373,-0.00804139343640519,-0.00619193433680806
0.0275186929154709,-0.0112107997426564,-0.00274305277165631,-0.00529743833502899
0.0405572427396493,-0.0217437249305481,-0.00390065847687057,-0.00251092518990585
0.0401542772147602,-0.0297405619106232,-0.00304458529350328,-0.000464953186685617
0.032639911717758,-0.00806700125740223,0.00431438912178835,-0.000296756151110452
0.0245807053475269,0.027442328485514,0.0096080399235048,-0.000552530111882103
0.0164956853382338,0.0452998849573693,0.00892927983001358,-3.11749435449395e-05
0.012287973685874,0.0415825285060931,0.00606687940740376,0.000793567722191069
0.0134366241561456,0.0275575777053565,0.00125447618525375,0.000873959350971427
0.0164819863844442,0.0168612889849305,-0.000791758039120391,-0.000327069233729681
0.019022900701251,0.0144982808753569,0.00254329903155373,-0.00216115766606998
0.0179238119598971,0.0142730306835305,0.004694737285844,-0.00349216653684129
0.0133070445631086,0.0119819755378723,0.00433935006232975,-0.0041406671706771
0.0112350814106186,0.00242280158482994,0.00326754461758042,-0.00431262129769903
0.0118836683385104,-0.0158237823284667,0.00127388481916316,-0.00389030430403549
0.00881111453719062,-0.0286089090339736,-0.000267253111366543,-0.00304645988964685
0.00241094560840673,-0.021170336318329,-1.03462039190878e-05,-0.00214045534720668
-0.00749113948040465,0.000696374931538499,0.00100506622844365,-0.00126097459682314
-0.021709132845041,0.0124392752581349,-0.00140880328455243,-0.000279025722814628
-0.0317590998963492,0.00630753398766658,-0.00783605193053603,0.000387593737141517
-0.0341769053102766,0.00845498618041207,-0.00934590818764782,-5.14233235748021e-05
-0.0315401999921631,0.0273918947154902,-0.00195225026852317,-0.000769168169592781
-0.0251594157515442,0.0363509503638027,0.00448452983826877,-0.000180028286252248
-0.0183084409233273,0.0255732553308508,0.0054579460643183,0.00122423650758762
-0.0144210025880173,0.00860013794838743,0.00597242189428983,0.00205906123167962
-0.0138301635599536,-0.00615501800605932,0.00425773645972585,0.00222062617528917
-0.0115049354959619,-0.0184583882967471,-0.00224314761575075,0.00187444614074276
-0.00424258703176001,-0.0215209875258559,-0.00553789185314004,0.000487848008853756
5.34362148747747e-05,-0.00962650865659449,-0.00345223532028149,-0.00177181276101175
-0.00510715211929607,0.00772379539858038,-0.0029685953874482,-0.00334218940153939
-0.0121614185841229,0.0213871034404484,-0.00282661589630719,-0.00311416894889477
-0.0149874900433568,0.0299359865156014,0.000281599648775593,-0.00139810096200478
-0.0163876917939707,0.0335292448170593,0.00405723134306284,0.0013306705317773
-0.0168938451041638,0.0309732578224239,0.00489856421084567,0.00439797314417228
-0.0165188199270526,0.0252669535580986,0.00331132797524849,0.00605660228177732
-0.0188820004165931,0.0213733554494156,0.00313723744684499,0.00515352828626098
-0.0210260517520605,0.0103666233866592,0.00264118637648891,0.00266130293501654
-0.0147171392240072,-0.0121930430607392,-0.00184824397055943,0.000325886380524946
-0.00322939312079895,-0.0297634229596958,-0.00852934193106264,-0.000732567084916529
0.00463007717352716,-0.0369920827362652,-0.0124108215703565,-0.000240232403753156
0.00507626136181315,-0.0404232757120844,-0.0123138808125392,0.00101602973017588
-0.0013579906616234,-0.034778557152179,-0.0111531195787942,0.00208042719511238
-0.00736878028074076,-0.0201900363827944,-0.00872812640609762,0.00257746954802546
-0.00890233893056587,-0.00770931665944139,-0.00313959873540169,0.00241301936474912
-0.00968281737206122,0.00245603564574208,0.00347075216045437,0.00201326989093929
-0.00921101068770538,0.0110808958489421,0.00690060444054227,0.00177949078202237
-0.00422565829439013,0.008629529358595,0.00610662057135636,0.00130354963814048
0.00220478134673742,-0.00403471848402621,0.00442022267726629,0.000235967444966244
0.005973599163751,-0.0169642310305907,0.0031367203398047,-0.000933171489452562
0.0069622497010745,-0.0232270115301838,0.00162530305417117,-0.00155046967826829
0.0060133572999161,-0.0231733084860067,0.000504407589035237,-0.00153678000914592
0.00303025178452481,-0.0252611700056618,-0.00197144643197041,-0.00103523222067218
0.000563401581363225,-0.0310884606368672,-0.00648558891491331,-0.000168421004676273
-0.00355150094095913,-0.0342036179525004,-0.0105314106411103,0.00075259541246637
-0.0158409183673146,-0.0314867396545624,-0.0102045148183232,0.0017181573794682
-0.033727857198676,-0.0252090549162479,-0.00640581043622534,0.00284264820421775
-0.0511638749939117,-0.0184346072182085,-0.00447591773955485,0.00369195249197024
-0.0588706727290616,-0.0131120135796529,-0.00528906313307939,0.00347852078930476
-0.0536853959724654,-0.00932664082864893,-0.00796275953021382,0.0019690757339913
-0.0443905219455818,0.000153804916950454,-0.00991476749778559,0.000356018160466807
-0.0347370712864341,0.0206336154939832,-0.00787839959032589,-0.000194522885038638
-0.0189678153672775,0.0344139724726755,-0.00346799467833293,-0.000182203572688691
0.00536503104642418,0.023221124273838,-0.000104573814329928,-0.000795407329445151
0.0197589639171084,0.00681508007907689,0.00249360636610625,-0.00236529702670003
0.0123193000993122,0.00532429527913475,0.00518280231140906,-0.00372619130673454
0.00355375628751358,0.00563567405812001,0.00651918107448468,-0.00353102611135492
0.00484820959318062,0.00236871362924848,0.00775146004548072,-0.00189212555504167
0.00548269133936301,0.00687469251276162,0.00997965330884022,0.00012848849004105
0.00511916639580727,0.00919700227484605,0.00920476026916293,0.00161374534939249
0.01112858187107,-0.00597020270270666,0.00406043631025349,0.0020533408664598
0.0241668327167119,-0.0247957091505066,-8.60504903507477e-05,0.00152609948950919
0.037571502983432,-0.0309765197953201,-0.00196953529242494,0.000714943088645282
0.0361724285478053,-0.026535265051221,-0.00445113477420524,0.000350318745952811
0.0142331112251821,-0.0192882744973889,-0.00659064132860767,0.000934208930703837
-0.0137607544899738,-0.0113009222662172,-0.00571152470898169,0.00211797292257707
-0.0382072893591155,-0.000290194839669123,-0.00114378702078872,0.00264516274791819
-0.0512446653973514,0.00908609588720772,0.00439356689799661,0.00176524290326104
-0.0433217790636972,0.0111431625454789,0.0068597155086913,-7.84484145950797e-05
-0.034107833585915,0.00771629654746198,0.00641428050914079,-0.00191249767124531
-0.0409978720355945,0.00338049023886777,0.00662485667047893,-0.00319574477298376
-0.0471362084785396,0.00345769630828958,0.00773648311516042,-0.00367010791190952
-0.043395782484592,0.00768299650355289,0.00887237603157478,-0.00324528372104283
-0.0374147133752867,0.00943014144801942,0.0108345479891653,-0.00239174946931086
-0.0274384150197337,0.00932106528233707,0.0129192666215011,-0.00148222862430811
-0.00839378419027947,0.00915713252603368,0.0138664581364175,-0.00048663925456902
0.0166050573648124,0.00218778050040357,0.0132707769807445,0.000456036591011068
0.0382566919275767,-0.0107053270466391,0.0112352356601704,0.0010115949137646
0.0477794666430121,-0.0149121193673717,0.00936689409878278,0.00109785756407226
0.0442668541785569,-0.00380996410056767,0.00949082474040198,0.000933532376046588
0.0364841374011739,0.0106438851445157,0.010392190113397,0.00075176736096123
0.034534564015222,0.0199383581391047,0.0106317167306713,0.00053483916748006
0.0360341319692882,0.0306798616590482,0.0131569657827106,0.000341403055787931
0.0319497705822975,0.0411348045221249,0.0177045425763358,0.000584478726804494
0.0197145756368797,0.0355891365873801,0.0183383990175794,0.00134976943469831
0.00133971161819139,0.0159129953155976,0.0129536897456045,0.00207285277775945
-0.0144277022034969,0.00563826935198371,0.00897361351749763,0.00208316796921864
-0.00884413593126799,0.00867138879597269,0.00905652665964249,0.00134285789514629
0.0163012180139625,0.0068196678269017,0.00275800088846417,0.000511816540559646
0.0282594690153697,-0.0028391559002978,-0.0103380731994617,-0.000359914814499751
0.0191334364130616,-0.0103949930440574,-0.0171937983820829,-0.00192612989359926
0.0127585598023151,-0.0142266567013202,-0.0123245497865232,-0.00366671040132686
0.0120957031956729,-0.0152254865335526,-0.00332049346332826,-0.00396816487301251
0.0053621355004159,-0.0100809589861564,0.00252274637599572,-0.00232960442451203
-0.00290807017756943,-0.00222950780067874,0.00516841944342008,-1.54072900554695e-05
-0.00495058948748902,0.00172737079598138,0.00667570182349243,0.00173811888894035
-0.000470577377449507,0.00153905795283087,0.00661256196207473,0.00244067743214116
0.0063846431177131,0.00158775816801253,0.00617490811339124,0.00172237039091139
0.0102637466970884,0.00652002358589296,0.0081464542085746,-7.45222218558989e-05
0.0105881748036223,0.0145896742398835,0.00968346196631976,-0.00168595022257431
0.0101720587151621,0.0189322830932827,0.00919413320392246,-0.00241833017106365
0.011529813695727,0.0166927100466083,0.00847320125169788,-0.00268642724870945
0.0117728895768635,0.0102102681601659,0.00611536715858305,-0.00294307092682895
0.00814006384168321,-0.00396701053624453,-0.00195183448839926,-0.00348020826590623
0.00377822782303028,-0.0203598151690561,-0.0117359183167971,-0.00378650625567505
0.00292715406713103,-0.0196509290621525,-0.0121214195791361,-0.00205739355503834
0.00178388399043765,-0.00286744573097046,-0.00676608514346609,0.00226309268628748
-0.00573293764366551,0.0132963936633589,-0.00580939421407861,0.00653708350562785
-0.0131953338171458,0.0227178288730237,-0.00671348369417783,0.00759068947474486
-0.013935505356,0.0250343980089245,-0.00596955104435198,0.00529172255311862
-0.00914018161476716,0.0151397362574656,-0.00679509831368704,0.0018397481330938
-0.00208412797093052,-0.00659143694055957,-0.0118655026992717,-0.00103349449881263
0.00173267599711165,-0.0251675448641555,-0.0169504709234231,-0.00302652598390093
0.000598620900090902,-0.0294129601224862,-0.0183716233047625,-0.0043748808094241
-0.00149244063374397,-0.0211945345358714,-0.0190270242152419,-0.00517293719242817
-0.00193077219662943,0.00385597039725372,-0.0107214913360106,-0.00558927261665305
-0.00216810735824569,0.0390122129815143,0.0102138730824162,-0.00488689386977802
-0.00541916051736805,0.0503294573128702,0.0192860296033115,-0.00211152879840836
-0.0120176172264385,0.0349906508019531,0.00886083915477688,0.00100482061387586
-0.0181282797464738,0.0228193542297082,-0.00101784064155381,0.00198104683102227
-0.0188345351648546,0.0204035488995487,-0.00435148560765632,0.00115885214899745
-0.0143644185348873,0.0164557856203586,-0.00865605173694963,0.000157376613678862
-0.0116060879554382,0.00654862157860651,-0.0140562227650353,-0.000493477809845547
-0.00875168567698536,-0.00598201346478551,-0.0173132096319611,-0.00107388224970545
0.00146301273208911,-0.0165446664691528,-0.0186174148983962,-0.0015154730142071
0.0140648476303539,-0.0243729561512545,-0.0162719872560058,-0.000984021723622606
0.0174708268597271,-0.0279668928454303,-0.0124854836997962,0.000670854094928623
0.00911731386774988,-0.0192070444227786,-0.0106576520154815,0.00212988309945531
0.00202544639871584,-0.00871857585127414,-0.0103767503384795,0.00214384848226411
0.00714815957454774,-0.0128608254739084,-0.0125829690710427,0.000661704082790665
0.0199292389496781,-0.015139889642783,-0.014350540448388,-0.0011827896703251
0.0246518792862009,-0.00295693695561102,-0.0112967819836171,-0.00195971173355966
0.0131894300958789,0.0100077031470346,-0.00548594399363541,-0.00150320898291116
0.00369134685625596,0.0207594943477853,0.00128088000541767,-0.000746987717098286
0.00279810055283457,0.0223883932296708,0.0075214143066242,3.21320594991296e-05
-0.0057371330332068,-0.00431669596591703,0.00925773347715072,0.00103412980203494
-0.0165101653460558,-0.034591667116605,0.00672828337871346,0.00209629132711661
-0.0200074344662535,-0.0365668503718983,0.00112200755980416,0.00309431333164263
-0.0190589644196768,-0.0269727895603911,-0.00503582676066557,0.00373897140753185
-0.0128300610243269,-0.0208469916918394,-0.00571240860340693,0.00321689829295001
-0.00240789124755147,-0.0160053935234902,-0.00377376394942265,0.000802041789125777
0.011899403268941,-0.0162313531325408,-0.00614450211315117,-0.00294791226506587
0.0257373921789807,-0.0159415702550114,-0.0105202359433186,-0.00609005274127096
0.0318888105867475,-0.0026012925406031,-0.0135419062132215,-0.00705111002030695
0.0337783182332365,0.013177635113592,-0.0175699751983365,-0.00560569337342003
0.0316421805390475,0.0125432355020802,-0.0222054083457667,-0.00246887170991145
0.0170303532866763,-0.00401173084789234,-0.0249281011911716,0.000882481209546056
-0.00337309757653861,-0.0151358582618121,-0.022332846728265,0.0028048183419498
-0.0117153572175396,-0.00498773463601715,-0.00958592020773376,0.00299230859686275
-0.00437090978617344,0.00601965156872466,0.00286174722622963,0.00274793836743954
0.007394332305912,0.00225683104407331,0.00376574733735711,0.00265527334042122
0.0126628977570726,-0.00335215769131613,-0.00134453985623693,0.00162502091821242
0.0110387427022225,-0.00238404880905164,-0.00485026655046156,-0.000590628208944007
0.00609716312144324,0.000918711979761582,-0.00237665628613935,-0.00253601869714476
-0.000732767507419691,0.00250702717121026,0.00370668309562098,-0.0030334886678289
-0.00630075415321722,0.00568555305958521,0.00782172540638566,-0.00188475074672163
-0.00747360324030812,0.0105073635102642,0.00881334672146234,9.33900628942112e-05
-0.00895178174284188,0.0123412051345003,0.00864080005424219,0.00128866411625896
-0.0195002018355419,0.0154095036858689,0.00883233413850242,0.00110346995594879
-0.0351706465041208,0.027638763153153,0.00761280418193761,0.000270787590106049
-0.0457799308454712,0.0417860806474398,0.00408024302413643,-0.000477005588847995
-0.0458582692509379,0.0407301079097153,-4.5403778474791e-05,-0.000494742686348042
-0.0315613187812565,0.0184036694453496,-0.00361855641191186,0.000322900016970629
-0.01523349386422,-0.00917510261628496,-0.00654963332375928,0.000826626647660788
-0.00848460794894677,-0.0169987837119006,-0.0087477043918095,0.000460410981483748
-0.00284615854533209,-0.0066220857683618,-0.0100196969566349,0.000121920222461938
0.00740354485889207,0.00175868102334858,-0.00941481470610489,0.000491059873716374
0.0231603694617631,0.000758665328439236,-0.00634543003349385,0.00157229807783536
0.0406217045288545,-0.00868778298254443,-0.004487017729861,0.00288878481410882
0.053820493115658,-0.019638655512697,-0.00621765473321352,0.00315698124812832
0.0603523306847899,-0.030001064493991,-0.00952449320640629,0.00163744440413128
0.0518664321218231,-0.043960376438864,-0.0135024875476803,-0.000657480301428544
0.025578900997031,-0.0427705996281137,-0.0127594193457233,-0.00277912822831735
-0.0127104434738777,-0.0129258370304062,-0.00406456581182343,-0.00430534119841799
-0.057490881460187,0.0221160455496333,0.00431900483804503,-0.00458360959964789
-0.0835762481715431,0.0418310926466535,0.00951163917325238,-0.00367084943402368
-0.072149305634585,0.0506881075229182,0.0152963088570952,-0.00224520695664964
-0.0492592664244571,0.0509174139621398,0.0206586800770159,-0.000687627254963402
-0.0378235708596615,0.0365192542069153,0.0229948259818148,0.000796085944642468
-0.0302818128510266,0.0128923669963782,0.0185096301498086,0.00184477593772263
-0.0170547177700427,-0.00606518526397544,0.00650031586663205,0.00222700123797677
-0.00207429250600571,-0.00910581054652333,-0.00496818793846778,0.00211661959987388
0.00585456292701974,0.00246951089311098,-0.00780248629032951,0.00173333307869998
0.00721840102822388,0.0132589397877994,-0.00430846020387288,0.00128186165898188
0.00743120976602694,0.0164448126826674,-0.00183099428866317,0.000920761430811731
0.00911736409373832,0.0173670085808448,-0.000271315523289566,0.000286227074316742
0.0130447311272109,0.0155499332151595,0.00205069902664222,-0.000596212613754917
0.0209251990804936,0.00380766138383059,0.00318593821315846,-0.000637927846813581
0.0325596938108026,-0.0162834843010371,0.00239407745511781,0.000354745040832498
0.0384427186529185,-0.0307928923961166,-0.00126037932069996,0.00121124385052854
0.0313717851283462,-0.0354428164799283,-0.00698656814669493,0.0012430502535503
0.0201736732652159,-0.0357869160046292,-0.0111274321004646,0.000927213253890639
0.0142238436696312,-0.0305789122264363,-0.0112484570296512,0.00110626250101931
0.0105750312023427,-0.0190454936462392,-0.00659268741024902,0.00181111840768139
0.00393137495420659,-0.00671887677086118,0.000611539247422608,0.00241745513647667
-0.00199169122827418,-0.000197199882448226,0.00634665135213876,0.00227484834207344
-0.00314137003242433,-0.00216781435729108,0.00874918436383786,0.00128169830164014
-0.00460744906873469,-0.00818971698140448,0.00894798391066376,0.000113464914124152
-0.00925814747558028,-0.0113445683881676,0.00854217914021707,-0.000826572781991436
-0.00828524208987242,-0.0120237551328392,0.00660241323510878,-0.00166510861870883
0.00475976466796275,-0.00957125561869136,0.00526610439683222,-0.00223975764450435
0.0173504732016336,0.00112420023881177,0.00718276937030275,-0.00217660535751567
0.0162697621067296,0.00603365499498944,0.00519290239066605,-0.00129569769522751
0.00763148676868988,-0.0020714446656453,-0.00232873422440035,-0.000555562344053197
0.00343872269743667,0.000904157291622954,-0.00448752880770425,-0.00122433674603928
0.00412605471855603,0.0178098059690727,-0.00149260828749746,-0.00162614543892991
0.00238560164265745,0.0244479464404662,-0.000647345169788881,0.000210113063767825
-0.00312330531113215,0.0172212465028546,0.000261171640148321,0.0027541355688968
-0.00957907605793741,0.00509348245311848,0.00151152051979185,0.00397835328218878
-0.0201230086617634,-0.0079637406858001,-0.00276300642647405,0.00364544999842539
-0.0351157604009353,-0.0180220090354702,-0.0129244272750415,0.0021857656796664
-0.0400871329232968,-0.0165027945111069,-0.0170044151209713,0.000368074492384024
-0.0292936430204572,0.00408304024774341,-0.00647356036029796,-0.00029202818884333
-0.0179667929577096,0.0277334661452157,0.00865756108740609,0.00131239438006601
-0.0119760574286291,0.03106807581918,0.0159561173003694,0.00414674532239993
-0.000440881210419929,0.0117484686199336,0.0123809929307131,0.00549009275722587
0.0210672174875543,-0.00982810626610262,0.00418019689615272,0.00382477552980419
0.0389986657119701,-0.0170621492027151,0.000335275388463199,0.00107938836699308
0.0385772774975359,-0.0201663686271762,0.00043666691252359,4.5598256275068e-05
0.0210076433903816,-0.0292015344904333,-0.00208681966949774,0.000201913218284756
-0.00345938957040733,-0.0287051311190093,-0.00513135317458424,-0.00065504031128258
-0.0206636218014051,-0.00684448688598476,-0.00275479032820838,-0.00240331238921887
-0.0224204593443982,0.0151869556193952,0.00214206587182252,-0.00308383528076613
-0.0160690683176206,0.0174823904180268,0.00503657610423472,-0.00164979661521792
-0.0100389599436717,0.00942887426180569,0.00426244281410681,0.00105528167858638
-0.00813255461737554,0.00357086856332555,0.00053434621268946,0.00311741488083596
-0.00976452616261482,3.54693938337154e-05,-0.00171810106683897,0.00332302281041236
-0.00729409223098935,-0.00319143675277306,-0.0012085261945258,0.00226983363359407
-0.000165060329035439,-0.00626607042044549,-0.00031332467554265,0.00105243246319781
0.00355405143494262,-0.00633416985046197,5.24011322474609e-05,6.2472490989307e-05
0.0020671127803305,-0.00226066009990389,-0.000281266935901315,-0.000560276483660532
-0.000802601873599269,0.000982935183844815,-0.00114609268349448,-0.000613401358847906
-0.00443961145204511,-0.000523076161715298,-0.00086564467745747,-6.28530594452177e-05
-0.0099161382746084,-0.00335849905380671,0.000998475581232471,0.000694032163244843
-0.0184458803220481,-0.00240408951429731,0.00216503235550212,0.0011861271469251
-0.0284202349057513,0.000706800221157361,0.0028594439964196,0.00126032305191224
-0.0316731256862536,0.00143313718053194,0.00232717565729966,0.00106203008497915
-0.0263892388714553,-0.00496542168161209,-0.000268030798799807,0.00100162338070073
-0.0171706021294487,-0.0191111444007793,-0.000389097480495208,0.00129369101853896
-0.00125900318991926,-0.0289164583976089,0.00445729623927399,0.00165829609448886
0.0193161798679473,-0.0304863669752297,0.00814160098428432,0.00180280441559172
0.029245144381114,-0.0333620087110787,0.00420900079608131,0.0017272483960341
0.0237109580317616,-0.0350514210246292,-0.00246291740565897,0.00144300110178079
0.017335978735778,-0.0293379502545342,-0.00479859613097395,0.000672081195519872
0.0153310072890052,-0.0222725811694736,-0.00458451598993172,-0.000820110062833789
0.00966443519171746,-0.021252073678457,-0.00623055819600959,-0.00277243056083454
0.00442001393972907,-0.0213211624817119,-0.00850641622106836,-0.00423342584265399
0.0046258964355251,-0.016616616831048,-0.00768383868232171,-0.00416659102767566
0.00359375523152415,-0.00955885623056352,-0.00519518316384577,-0.00274162300994044
-0.00208334805631237,-0.00187751813239942,-0.00557313237751079,-0.00121086444699882
-0.00797380741748102,0.00478645841722688,-0.00681481628624254,-0.000357866681829542
-0.00814177466764247,0.00674897983914848,-0.00388310202949338,9.7302359364154e-05
-0.00570611822970189,0.00149265992961302,0.000206476290782163,0.000512809533419266
-0.0079282663127465,-0.0081571366931102,0.00188037865403357,0.000621578812242639
-0.0118585546507492,-0.0137927340231572,0.00285966964041884,0.00010052692792223
-0.0123530414132656,-0.0107450051118371,0.00404594672145644,-0.000401045174752103
-0.0133149809300137,-0.0036459918558886,0.00499423214561498,-7.80986120116996e-05
-0.0193706609703101,0.00189865351368227,0.00544329516536067,0.000516663136059739
-0.0240433270867998,0.00579963990439598,0.00572583421022104,0.000548957894261764
-0.0234281671091836,0.00797119269646504,0.00693596368434818,0.000353944273626058
-0.0240907014067506,0.00609481915821952,0.00728258884004104,0.000358319918795804
-0.0281428060928754,0.00160810203803546,0.00588264242365178,0.000167257873780781
-0.0325455851404724,0.00101130266197328,0.00354073708975735,-0.000492413079974432
-0.0323931313487671,0.00347668291368663,0.000665298110536217,-0.00155682303292626
-0.0195037118692051,-0.00138394601495791,-0.000126594827445559,-0.00290261867163393
0.00721586839247999,-0.0174848716116995,-0.00136663286875197,-0.00415290021376238
0.0271050573662323,-0.0330820730823156,-0.00605510480543337,-0.00476453193217177
0.0193976261753106,-0.0334983919138588,-0.0106451589599487,-0.00441895124507035
-0.00189493673073211,-0.0210929312853856,-0.0122837186206651,-0.00313974437446631
-0.0123057955944409,-0.00813525340886809,-0.00972875686178331,-0.00133447916433837
-0.00830649438015115,0.00372046459735785,-0.00481011429759183,5.3424750415418e-05
0.00293368577887976,0.0134285395163275,-0.00337208016390581,0.000309448651227501
0.014781197814347,0.00549887784421366,-0.00675849713279945,-0.000396319073240426
0.0206608035652633,-0.0103736790954623,-0.0100143302743215,-0.00119195952201117
0.0152290355275989,-0.00291832831299128,-0.00871492588863971,-0.00123448957748205
0.000788544368979079,0.0217672641513383,-0.00358588402858693,-0.000766926951028279
-0.0151965232530909,0.0381359825533463,0.0024957128428237,-0.000504668302233955
-0.0289347187766656,0.0384822897559758,0.00698995305546963,-0.000389619371455408
-0.0382037618468676,0.0302069798941698,0.00818154781746144,-0.000201948522233677
-0.0422844657720114,0.0235857363683636,0.00795746374627583,-0.00011539865279933
-0.0435972187256038,0.0209641788100267,0.00856795413749867,-5.74978794015322e-05
-0.0417997218526341,0.0148801739100562,0.00886020778803243,1.20599594431218e-05
-0.0369338653983029,-0.000589595970506299,0.00594753532828561,-0.000238180519679048
-0.0316604692546562,-0.0150312828057145,0.00121330160108751,-0.000999490105584339
-0.0255912844430499,-0.0145326245446853,-0.00116662663147951,-0.00212386219634876
-0.0162067602000199,-0.00527009262029165,-0.00165977976110526,-0.00317709949271441
-0.00567270661847809,-0.00415562826564117,-0.00291806095203848,-0.00368999285516941
-0.00121152233873111,-0.0144635543898995,-0.00468828985763151,-0.00357524870582737
-0.00240703881157952,-0.0226389119608502,-0.00515364153438465,-0.00335623156060864
-0.00375497426901043,-0.0124440719921299,-0.00577370813063499,-0.0034193077876352
-0.00493628514948402,0.0108603752425816,-0.00632796587370983,-0.00357486390932911
-0.00360189271196581,0.0241724573094087,-0.00260115261190515,-0.00334524330244095
0.0080356214572252,0.0190418269570216,0.000231867750361766,-0.00233769307644056
0.0299825555308748,0.00727265362911527,-0.00323972520223296,-0.00101628684999973
0.040949387653603,0.00344557323300706,-0.00356361559903656,-9.21884486005582e-05
0.0281247308528444,0.00664253910801194,0.00242223859343681,0.000473967719758177
0.00830937899315066,0.00575759495735857,0.00496319360127855,0.000611940670171528
0.000497202235440378,-0.00328153869288578,0.000274365314523014,-5.15075681638082e-06
0.00617606120839801,-0.0128314171743669,-0.00683313810319234,-0.000973982495905781
0.0106723564487476,-0.0107771668163537,-0.0082472361853,-0.00158408451642362
0.00401345242469667,-0.00458674050392403,-0.00291841477253291,-0.00136094618820146
-0.00579225733498096,-0.00730401719730046,0.00128806322259171,-0.000467460076896438
-0.0090335795082515,-0.00825419514496013,0.00265794436460143,-4.15095830625777e-06
-0.00832492509304361,-0.00128377260045638,0.00464628481261331,-0.000218279560705261
-0.00919942817843531,0.00275399124886072,0.00481712271085658,-1.10747542151897e-06
-0.0121709275994664,-0.000767911379447546,0.00154770993291263,0.000965852330138114
-0.0142482054908201,-0.00646457516174472,-0.00124602900575141,0.00182087035981322
-0.0129265952479561,-0.00886976938901831,-0.00331688406459242,0.00154041499271206
-0.0103337025192573,-0.0078826300236737,-0.00618825864574013,-0.000534106297449211
-0.00571929408217156,-0.00834789135137051,-0.0072595791623409,-0.00399837117295325
0.00390258820903054,-0.0119030436518647,-0.00645149408866828,-0.00707830440470272
0.0143679438352672,-0.0127536864826991,-0.00494457283342014,-0.00773075785773051
0.0196091421798953,-0.00828451654761551,-8.98420171571133e-05,-0.00516676924634489
0.0208258386814916,-0.00475965062699742,0.00734002340273884,-0.000555042742786669
0.023023193331449,-0.00849328518059496,0.0121496916112338,0.00397609172209997
0.02383196871307,-0.0137824182718742,0.0113527063754132,0.00689416184700578
0.020357364345774,-0.0110089175099276,0.00718874433377535,0.00738154778797326
0.0162362701120799,0.00177566481434711,0.00383798883724062,0.00538584447642285
0.00982405388637299,0.0166682304089667,0.00232106628385404,0.00218654005677384
-0.000150823791004407,0.0206788761048783,-0.000948473555061887,-0.000274151794183077
-0.00625682953264762,0.00792517129951808,-0.00635057662316854,-0.000857789922636371
-0.00274706049390653,-0.0147997136710318,-0.00731795273670707,0.00024002468389125
0.00352660004116784,-0.0220378071913531,-0.000243191284598944,0.00202870736934251
-0.00127479908395105,0.00308160874702482,0.00970977448327974,0.00354815239395969
-0.0167608665475366,0.0338749360734299,0.0146973462076864,0.00414205968507314
-0.0289054148088049,0.0417046804165771,0.0172185515725873,0.00370031673693315
-0.0274184755026177,0.0319583249924459,0.0198197422918052,0.00260129458894811
-0.0153619311010269,0.0147083084508024,0.0157063850499113,0.0010034596224638
2.46444985670113e-05,-0.00404479991223212,0.00528338682459546,-0.000799351844911235
0.0160440326606477,-0.0171921459981236,-0.00139279932855108,-0.00237733045388914
0.01983720771259,-0.020852415994237,-0.000529233235142628,-0.00365334888620315
0.00477021798005599,-0.00829646889665494,0.00351581940485296,-0.00402866473883931
-0.0169101717788834,0.0170403316579263,0.00894241482966438,-0.00287991992396361
-0.0348654297382823,0.0336523469381601,0.0133283442199164,-0.000520029660376151
-0.0381562986034014,0.0246266170947633,0.0123046638096397,0.00268834106635858
-0.0263466620228346,-0.00129078130629585,0.00502912425058327,0.00618308737249791
-0.0164771338904459,-0.0213032985546507,-0.00329250934014893,0.00829530112543502
-0.0155245719978363,-0.0202811005836177,-0.00404813732207013,0.00785616860074252
-0.0177594049279705,0.00469516573638711,0.00342413858870966,0.00599534226494446
-0.0213351813764522,0.027669796806807,0.00836150990790003,0.00419743143738899
-0.0261900383931456,0.0221325448866864,0.00234774888598611,0.00235515276381704
-0.0247217204630377,0.0119927441029942,-0.00261575682754129,0.00044455425611882
-0.0108373479108354,0.0216087535520798,0.00815695739389895,-0.000346799434325111
0.0109668537471319,0.0339010377498001,0.0200475821463202,0.000461051231725127
0.040286885322295,0.0285538581617668,0.0153282887685125,0.00207177633662765
0.0693898387749317,0.000489059848155345,0.00501658038261138,0.00423528299971817
0.0719097549419004,-0.0348576965419766,0.00133020345698278,0.00662365305726458
0.0455785971707388,-0.053240509189491,-0.00152999436212242,0.00742316978015585
0.0170523074567131,-0.0475734910445599,-0.00614727590726793,0.00506726421188686
0.00283745027271744,-0.0295584261463405,-0.00882730570189968,0.000158221192697932
-3.63490278855044e-05,-0.0178757743738817,-0.00950843326829126,-0.00507371814647753
-0.00302531177065513,-0.0117628195719725,-0.00685623457850067,-0.0082890649640168
-0.0108579184913561,0.000857278891300557,-0.00145582970180495,-0.00818003087678547
-0.0159237910171323,0.00789440695702699,0.00139921007527591,-0.00523124006599039
-0.0112915970987457,0.00663068906175075,0.00686287974185494,-0.00122085215163286
-0.00248507081801946,0.0185029783677028,0.0218802083080121,0.00239542002572445
0.00689857213684289,0.0345128882564564,0.0316034134829576,0.00530729926495848
0.018577587034428,0.033127885724726,0.0242918768119498,0.00710362403537814
0.0216089355844657,0.0263029856446666,0.0128296530030762,0.0068102133845518
0.0124724648697907,0.032271809470594,0.00924937481305707,0.00447267407477379
0.00267089849203039,0.0446306721291911,0.0112183805941676,0.00139104090419408
-0.00581038893931173,0.0483333648427639,0.013741122823035,-0.00100762806334005
-0.0122626936719834,0.0424963708371052,0.0154001173463871,-0.00200358091211026
-0.0113741616765272,0.0316551802580608,0.0153549334486331,-0.00163898864126121
-0.00807860943263529,0.0156747513886381,0.0125002190095523,-0.000285518027461265
-0.00713395901394362,0.00519556350641466,0.00739475912660899,0.00152661393460393
-0.0017753182264998,0.00934707067889685,-0.00191131475012912,0.00267735668737239
0.0131343956815215,0.0139652078086489,-0.0179082854958394,0.00170185650946817
0.0373038945451631,0.0138434105978979,-0.0305018702055844,-0.00110637515832588
0.0649180808720276,0.00989033861638275,-0.0309400394180716,-0.00360677541604485
0.0825971057655107,-0.0216734527624783,-0.0264535572335131,-0.00444311892342644
0.0892072105634329,-0.079997344853467,-0.0228415919580868,-0.00355605317251951
0.0922792450790054,-0.123375653731966,-0.0200750437086095,-0.00173093486068918
0.0875286731876647,-0.113043067372207,-0.0143004199360346,-0.000259977166635069
0.0713702979701506,-0.0502868134304049,-0.00393200802742791,0.000336161721347151
0.0455065893968783,0.0152639106394016,0.00345271015421593,0.000312787620119128
0.0186186167760556,0.0482484385686798,0.00588066717843594,-4.34091724553085e-05
-0.000483328413651313,0.0588060894523224,0.0104238158595516,-0.000444739371872716
-0.0170434252271158,0.0631200223813106,0.0174506444671435,-0.000663139366658261
-0.0304141473873003,0.0624786579491399,0.0204096508394486,-0.000927108335755527
-0.0274255114423018,0.0567320566959752,0.0172941198955969,-0.0014260247740895
-0.0145196365601324,0.0506980004342311,0.0118328749713181,-0.0016730149070314
-0.0139635991599517,0.050604830849261,0.0106696449194863,-0.0012633556276858
-0.0255271280237432,0.0558968935880395,0.0117896980487433,-0.000217131021071346
-0.032673397393167,0.0579598026381927,0.0084848502846487,0.00112150140846308
-0.0263327671423798,0.0532438388347909,0.00310467655596778,0.00203734304935763
-0.00874453847486559,0.0350472470894849,-0.00259082498484961,0.00215795409675916
0.00992850052229549,-0.000627436249571955,-0.0107197860032167,0.00125007534113435
0.020961490781896,-0.0380669120838722,-0.0178697051869274,-0.000999510669416818
0.0234047764690828,-0.0601071030867522,-0.0189676082054415,-0.00371954309314925
0.0232174301594461,-0.0579667080166037,-0.0139006006647772,-0.0049396347524322
0.0245774735098107,-0.0362064665749025,-0.00593181858583614,-0.00379409999650767
0.0236068993286188,-0.0131517479326358,0.000212623660235129,-0.0014223609485588
0.0166488135483799,0.000185443129974497,0.0023246615558156,0.00053621575180381
0.00446656483080617,0.00546421551935167,0.00121654785563386,0.000955596744685735
-0.00985935865355426,0.00759313063066749,-0.00190565191663476,-7.6669285335403e-05
-0.0189472330911304,0.0109090937282345,-0.00428565942006548,-0.00113047422381716
-0.0189025823224259,0.0165697720152077,-0.00365296079568583,-0.00127074389213379
-0.014472012697143,0.0243703694758142,-0.00253811894724966,-0.00118283960741834
-0.00227370803075776,0.0270388214631087,-0.00110173147683953,-0.00164272360180747
0.0201765897307138,0.0147957203192446,0.00233089301773766,-0.00198161255989105
0.0330742378968035,-0.00182577753090413,0.00348100270182077,-0.00144347799709746
0.0278153773733676,-0.0108006950283653,0.000264337525706784,-0.000608110947282628
0.0228566309519659,-0.0165930452768675,-0.00325517181081212,-0.000238482942703524
0.0260408404952578,-0.0249387089957617,-0.00494214955755403,-0.000105027182823148
0.0282817654048819,-0.0377772031550671,-0.00682092750861166,0.000362429525577442
0.0257529754199523,-0.0488048577242853,-0.0104681614738342,0.000837268997788922
0.0233555381476222,-0.0487947589205396,-0.0136124546333996,0.000492259780726851
0.0213290557230674,-0.0371986636267703,-0.012755198508548,-0.000485074752494471
0.0177292214507955,-0.0227928964759062,-0.0102800421565598,-0.000858593611757872
0.0102597250295538,-0.0141169262845458,-0.00952044978843555,-7.70308939484407e-05
-0.00405043497605084,-0.00698909077928717,-0.00799431427509275,0.00114865552655593
-0.0148988523325473,-0.00093544902704179,-0.00510743950131056,0.00214420397769491
-0.0114372846240584,-0.000319704880323169,-0.0029708225853081,0.00263305099384311
-0.000234790105338677,0.000222604924576868,0.000784275832437228,0.00232029759469554
0.00329571607382771,0.00470347570750338,0.0071328084714155,0.00140552257040647
0.000699294795433571,0.0132252192761344,0.0101444489018885,0.000558380487536802
0.00268596511820346,0.0206488464805001,0.00909856374303579,-6.94262074598796e-05
0.00325794710977912,0.0180313504380893,0.00893271879070307,-0.000605828550070767
-0.00215858196228081,0.00556680614202059,0.00839384661578049,-0.00117406724433655
-0.0036690563168176,-0.00519258043649769,0.0051759364371827,-0.00200127131173485
0.00419384310131014,-0.0065971827871142,0.0016511989233273,-0.00294997610182712
0.0171557805767211,-0.00557141158400851,-0.000881508905664482,-0.00347830292966056
0.0294390835712896,-0.010614697095053,-0.00511088509173755,-0.00344051165222126
0.0306492015222976,-0.0200742149663039,-0.00988930238948788,-0.00336566599341626
0.0180401832999009,-0.0284334344562848,-0.0103423300992341,-0.00339824594413149
0.00334995636193022,-0.0324589745190132,-0.00824570299410561,-0.00297326917333588
-0.00571352509916255,-0.0309406270648753,-0.00682857379223111,-0.0015874847892688
-0.00893078978493857,-0.0244698445341238,-0.00753769531166886,0.000571675875885786
-0.00850161512585218,-0.0155127013000177,-0.0100485491117189,0.00260954954606044
-0.00578858127680449,-0.00494267586171522,-0.00799421424744794,0.00364622414705972
-0.00119119118723001,0.00712132284861133,0.000960218280219076,0.00382183420483953
0.0025151104589317,0.0159873980266363,0.0102509525901299,0.00394025301745393
0.00242377667481613,0.0180088343109577,0.0127914404633159,0.00395325063914475
-0.00196458391273835,0.0150712072135684,0.0102993479240975,0.00321328550220056
-0.00544879454526461,0.0139716116172145,0.0077754816469005,0.00163220901082801
-0.00474751289310322,0.0197002243415062,0.00340284410092438,-0.000350939439551353
-0.00398709696223794,0.0292023398586162,-0.00300018104223931,-0.00220626362549365
-0.00617610343352609,0.0361104138374846,-0.00657054975285291,-0.0035051874603292
-0.0159968322723279,0.0375116392884658,-0.00417361494423727,-0.00409087726204762
-0.0334074144816263,0.0363195946749782,0.00254810385178317,-0.00392001290270895
-0.0467823067563062,0.0298833025027646,0.0076061730648829,-0.00284555672985122
-0.0496808668338291,0.0136659601743795,0.00730600133937186,-0.00114207382600811
-0.0434395134958906,0.00029561593141287,0.00460988805903932,0.000533733860369853
-0.0356101009018641,0.00285745285350784,0.00299452903428236,0.00187073715546601
-0.0374843489735652,0.0115884733592855,0.0051314246093306,0.00260715113912709
-0.0416915747749234,0.0124481641295288,0.00961942543736983,0.00249022281969384
-0.0318573126815114,0.00865498072868739,0.00999376539501817,0.00180598265392651
-0.0139978286670241,0.00791964940578458,0.00812889521945363,0.000964738444686761
0.00144916106644665,0.0031153561904574,0.00576543661971653,0.000304404371422671
0.0228164428176759,-0.0253694957727304,-0.00394204065659284,7.44080211770855e-05
0.050678090303515,-0.0717522440266023,-0.0200182871384623,-0.000175770037398972
0.0612732216923414,-0.0903976898049814,-0.0300797688632059,-0.00114716224692658
0.0465400528083356,-0.0629753185120558,-0.0252264874056394,-0.00233011058335029
0.0304553688029673,-0.023514092627178,-0.0114497156063882,-0.00242695858367029
0.0220593566675131,-0.000278015370789225,-6.1834567093251e-05,-0.00128488097363678
0.00839220297188566,0.0103534434146255,0.0055331629712099,-7.6439609296452e-05
-0.0117721349024474,0.0212916417237206,0.00618452199199188,0.00029880425717711
-0.0284892028793541,0.03385375115738,0.0050687094378596,5.50940889805027e-05
-0.0388251473451704,0.0368916164914621,0.00498449561801634,0.000344985897422092
-0.0438876734408692,0.022003407681502,0.0043474247557041,0.0021302354921802
-0.0406669453567946,1.21369542084027e-05,0.00207858228946935,0.00457208448853287
-0.0284954043535171,-0.0111667195470994,-0.00104686661302679,0.00615540687994119
-0.0156492215742338,-0.0100842940180995,-0.00449286052009263,0.00623344991198445
-0.00880145189590998,-0.00545396538017856,-0.00825739321614957,0.00457826265231798
-0.0044369902197544,-0.00264972194817314,-0.0105158531419263,0.00188133229539255
0.0011038854405514,-0.00165191836162099,-0.00959162756652484,-0.000516523302009281
0.00827459723200799,0.000447032322040286,-0.00809243755305351,-0.00206611271555743
0.01391087370705,0.000968027622227805,-0.00633479464195345,-0.00294302076683426
0.0148670254867172,-0.00461852300330645,-0.00413706556525017,-0.00336978813832797
0.0140805994320971,-0.0141371479554641,-0.00453124309677729,-0.00302059228433934
0.0114133872072434,-0.0243365463852617,-0.00610292657102726,-0.00120497639510275
0.00360339157782546,-0.0335712158005674,-0.00778457948749709,0.00166253077224408
-0.00341496494503209,-0.034298694486929,-0.00880011110298652,0.00393823714875505
-0.00357436376496157,-0.0300270486781859,-0.00833619542370445,0.00459325968949412
0.00112448901262111,-0.0347937612432414,-0.00964926156189617,0.00382175933430301
0.00743646923675487,-0.0388199445406995,-0.0116501809504186,0.00214392691497784
0.0142231452533839,-0.0301864897158218,-0.0144148241709906,6.08201210246843e-05
0.0201114868625048,-0.013248404387852,-0.0181098311061248,-0.00158241721503981
0.0250495900301336,0.0116365745688947,-0.0144527759055291,-0.00177086305534614
0.0296094135750707,0.0331191731758977,-0.00654628364100881,-0.000229981019559835
0.0244525771715516,0.0324532040793301,-0.00352372152112814,0.00165459521464703
0.00294963183206992,0.0160471224054088,-0.00120197603545236,0.00208887067022206
-0.0207800993648276,0.00816521246042168,0.00372573703279656,0.00133457382239658
-0.0285511205849206,0.0111350065911879,0.00683057576495126,0.000872286181462403
-0.0286370892632575,0.00949732675975808,0.0047818657590606,0.00106306132902346
-0.0389377462836997,0.00240977460049166,0.000875902253995246,0.00108912549455074
-0.0513748499905631,-0.00245968050541214,-0.000728433371426666,0.000582012966448593
-0.0547258566796368,0.00098952131567168,-0.000323310649849506,0.000246440708561159
-0.0543531078119033,0.00736087728463179,0.000771510585006987,0.000616074415636816
-0.0529856545339693,0.00300668410731381,0.00012538409938308,0.00138776343684631
-0.046118743300385,-0.00771830524876444,-0.0023840883418087,0.00166235580558061
-0.0287289610567987,-0.00870833245147536,-0.00474438723642242,0.00114790907951933
-0.00284621992202268,-0.00596918569487914,-0.00749076035788362,0.000697376552436607
0.0195910371687802,-0.0115825696353522,-0.00536932644479907,0.000533916184769444
0.0279750340303169,-0.00933106521910039,0.00506982340045447,0.000654215815732881
0.024165711682404,0.0110287863175182,0.0117994548724741,0.00146590440565314
0.0201432825974603,0.0300227903397247,0.00784620479272623,0.00202940432766781
0.0187581618015947,0.0338332270160406,0.00236918056201366,0.000999644783414997
0.0113230150425869,0.0291928679216096,0.00242527980564779,-0.00113070140098113
0.00162788755904471,0.029162953855414,0.00666332991382879,-0.00278982103436718
-0.00178169749832942,0.0329370004517615,0.00955217323159994,-0.0030309661659499
-0.00389164098994943,0.0278472947045406,0.00699774670630737,-0.00217230337889787
-0.0082829642452114,0.0152753825093026,0.00226387781488795,-0.00124105262162224
-0.0142728627152307,0.00516390323001765,4.57482077059991e-05,-0.000822294043058975
-0.0212752199846735,-0.000768619806437124,-0.000493776724352767,-0.000778810907001224
-0.0234166272852255,-0.00779290045593689,-0.00293779058308207,-0.000629758511622095
-0.0192976067411815,-0.0172399174400672,-0.00897042429536307,-0.000325005034935252
-0.0153605796942055,-0.021719224747447,-0.0140953489079025,-0.000457750231214122
-0.0141911230974535,-0.0192292121229428,-0.014880003234473,-0.00129689698560985
-0.0136160861042262,-0.0164705055355707,-0.0140818879614327,-0.00246472088159329
-0.0115676959204509,-0.0157853516866174,-0.0116634155969823,-0.00335750236790511
-0.00673919849069049,-0.0140789234764165,-0.0080251165969476,-0.00300333065511
0.00175422971431891,-0.0119422463233503,-0.00504534347556011,-0.000889329892037694
0.0122770241776754,-0.0122026671853405,-0.00404251805102907,0.0016105603905034
0.0174632125738986,-0.0114195951731895,-0.00436431680347007,0.00266857371915428
0.0155532111584768,-0.00639911860543815,-0.00378035709330809,0.00173388419221758
0.0177099453430272,0.0038758199593799,-0.00122140136944417,-0.0010362939779798
0.0249785391462971,0.0165202348623479,0.00629108162532692,-0.00444596574370538
0.0230505396511478,0.0181225453817876,0.0143294764195825,-0.00605062244290573
0.00774993610676259,0.00899198508520907,0.0154107180596099,-0.00424984624858709
-0.00956616115430583,0.00424923274919835,0.0123670795132229,-0.000179395277917746
-0.0174055497519995,0.00501377019557329,0.0107622010379369,0.00307397724104046
-0.0139305822211378,-0.000689945792157112,0.00908066678122161,0.00353176318693928
-0.00798870115654273,-0.0159869452980296,0.00360478722184288,0.00197253454775111
-0.0121096403731348,-0.0236740364208995,-0.000190871642883388,0.000181224986589281
-0.0233005897649128,-0.0111200769677712,0.00093114229770614,-0.00109786986142257
-0.0284884059425797,0.00539783819754194,-0.000603192157167108,-0.00218219322531418
-0.0228472536262187,0.0042225326917474,-0.00762834051470933,-0.00329811488533502
-0.00548379559376016,-0.0133285673522215,-0.0156004431545368,-0.00407061885522718
0.0185220884619529,-0.029341610115649,-0.0160257329508295,-0.00444592082008466
0.0374105274718014,-0.0254232365769905,-0.00484148118994308,-0.00439956186202425
0.0452478609693696,-0.00163002351000171,0.00698641141452075,-0.00313294753971212
0.0416674801229465,0.0212054794747376,0.00919931803793026,-0.000388216909543716
0.0292093118638708,0.025350044874679,0.00565701401067849,0.00277011878037469
0.0178353230630193,0.00760519510399864,0.00275181319172164,0.0047109020073837
0.0164905920489987,-0.0189213989409779,0.000909356387354106,0.00446717779049921
0.0210749256618149,-0.0305331251602098,0.000841821777862231,0.00268101375278274
0.017027497854747,-0.0127701469007279,0.0052961949751102,0.000808363485661201
0.00177979830921601,0.0178660342108552,0.0106875705898461,-0.000515387375058079
-0.0119809430747503,0.0345894830275317,0.0101481097278085,-0.00149892068015883
-0.0216076870169014,0.0429880831851369,0.00767349959763057,-0.00238854127708769
-0.0329306097106516,0.0525942496348533,0.00900612764339735,-0.00310558375676256
-0.0425655092369339,0.0508987770268731,0.0108851222577271,-0.00316751525624495
-0.0455672034118737,0.032664280379584,0.0120734776633377,-0.00230669115316134
-0.0451153107202488,0.0057407491376801,0.0131817956749545,-0.000865350318593134
-0.0416528192325849,-0.0158051783158394,0.0126765886080762,0.0004853541432228
-0.03014005493149,-0.0206964485978874,0.0122890992163679,0.0014508195969758
-0.0104425488407389,-0.0171451844494607,0.0155443965190624,0.00234931892514178
0.00870019967416813,-0.0212574076952172,0.0178213160244525,0.00332482018787504
0.0177257594504556,-0.02994857636479,0.0170464168859019,0.00358623094518833
0.0194409026475961,-0.0307110884822826,0.0205020416669397,0.0028272752507528
0.0249317799791502,-0.0287562549214644,0.0234669981694219,0.00226385097296179
0.0371388486030632,-0.0345783787128642,0.0177525306422734,0.0020302842126408
0.0493501564840698,-0.0387536683127121,0.0136292816976552,0.0010009119324724
0.05652593275154,-0.0221185314134205,0.0170201718553098,-0.000302467550946497
0.057814994442442,0.00475038143999645,0.0129369476942325,-0.000825141093867907
0.0496746331601326,0.0182583712641613,-0.00298342111230997,-0.0013358839906931
0.0298317281154844,0.030912091400857,-0.0154083498826529,-0.00266826638491392
0.00621494751237169,0.0552831488397766,-0.0184035467607366,-0.00400820994921325
-0.0115313704355843,0.0687918105807773,-0.0197641264183293,-0.00431953864336633
-0.0219680475838535,0.0575696996690621,-0.0213391621811737,-0.00390316666493806
-0.0269631574399759,0.0394076318161253,-0.0201342772235866,-0.0032382396078352
-0.0271771256142786,0.0245409848898067,-0.0185639700495013,-0.00195047008241062
-0.0185815118735547,0.00339164614212194,-0.0177031331718891,-0.000587390356429816
0.000289229225040922,-0.0211491087731726,-0.0175994917019385,-0.000471235267737027
0.0159478344581226,-0.0328327578341583,-0.0186070595795809,-0.00156726906544168
0.0189101239553611,-0.0245889295738532,-0.0150052453647478,-0.00246343210127912
0.0180358113190201,-0.00454509296492674,-0.00383851392521964,-0.00160194798797171
0.0175091531206826,0.0110984936543702,0.00692335048416106,0.0010128833257878
0.0100940164186629,0.0146136514659406,0.00721768309150083,0.00326445810328053
-0.00165671252207084,0.0105595551433059,0.000254202454285455,0.00328961507392091
-0.00517663256616437,0.00415307931178393,-0.00328047289780381,0.00138145579305166
0.000808276143570959,0.000725307205074924,-0.00275652723768063,-0.000963526453689346
0.00660877723987743,0.00404788164417458,-0.000492809724974074,-0.0026514786328155
0.00654075638949317,0.00764528559988767,0.000138863420015834,-0.00323766200490232
0.00206859793959609,0.00597316084146882,-0.00521855266921225,-0.00274284577416753
-8.23613039686983e-05,0.00573207103126776,-0.0110007009388542,-0.00176622833466357
0.00545219483520628,0.0107332969847075,-0.0122143881704517,-0.00107096018151825
0.015720409068136,0.0172114476537954,-0.00964210655281864,-0.000865371340699993
0.0169954415410021,0.0239796792319323,-0.00564362499453255,-0.000866593248683694
0.00502667391406449,0.0296220887062408,-0.00461520214550023,-0.000829386014718724
-0.003171364724508,0.0299459111984598,-0.00762617864069823,-0.000545983739713436
-0.00276861008335873,0.0271303552719812,-0.0120297785688661,-0.000173610722789848
-0.00682137504529912,0.0240213183667984,-0.0141837548549599,-0.000418683554261166
-0.0204560423647284,0.023171268594639,-0.0137238735384345,-0.00140442833369627
-0.0349519070266626,0.02792305242846,-0.0126626803635892,-0.00223452817488973
-0.0376628308727881,0.0277514753376255,-0.0105151245334344,-0.0019986151020198
-0.0312192083238661,0.0186754126855018,-0.00804819810653122,-0.000604782465757256
-0.0351642204418939,0.0173728472162056,-0.00529740369764032,0.00117354629679929
-0.0549320045992545,0.03323473900903,-0.000785315446089742,0.00239717420159203
-0.0718252843186354,0.0511423773693574,0.00439911160324737,0.00276090199465812
-0.0741853333685479,0.0556751824605934,0.0088415902738942,0.00263948930661987
-0.0686110199477692,0.0536994850920528,0.0125004753316326,0.00243066163420626
-0.0610158562852241,0.0563861970449416,0.0173974277396923,0.00244096214207094
-0.0485922308790574,0.0599267288882801,0.0217445680410607,0.00274678249363093
-0.0258435543062853,0.0527500005317378,0.0223853686618968,0.0028412807621662
0.0135958374917299,0.0257307670174572,0.0164614940489913,0.00241387053880203
0.0638634816405348,-0.0129824626693358,0.00374983977252234,0.00163085131850227
0.0972913750117294,-0.037084605780591,-0.00649739663400663,0.000774182280370007
0.0984851780953123,-0.0370567977989009,-0.00919601180833671,0.000577023754019415
0.0786951196030107,-0.026471996501694,-0.00891463886173441,0.0015407675657218
0.05026365265693,-0.0247595118576534,-0.0113521320192893,0.00276590632952489
0.0200770052352711,-0.0338685480303156,-0.0128888992917585,0.00319339001669961
-0.00656164091006146,-0.0313089285888718,-0.00527684767219717,0.00323457764763782
-0.0270842308911345,-0.0146944341763795,0.00650993194274699,0.00361655113450613
-0.0385319455563683,-0.00263491670679362,0.0140775523600112,0.00374162974466095
-0.0432711936942211,0.00532508968499767,0.0183992189257972,0.00271861825095986
-0.04682324031137,0.0172771810111694,0.0208984740994223,0.000831200085187153
-0.0435524691039137,0.0268962644059401,0.0207803606333673,-0.000798387773946963
-0.0328130846863302,0.0202015811608669,0.0169824751701183,-0.00108700285654353
-0.0200534336041805,-0.00231438201244669,0.00914661504393829,-0.000354662437037174
-0.00200779170210801,-0.0185394254554195,0.00238268063598169,0.000201032991347997
0.0186912408562071,-0.0133541088045572,0.00250040222574392,0.000447161738927207
0.0323924677513701,0.00160115708416977,0.00627825328538125,0.000681279795342237
0.0354600588686013,0.00627923828623911,0.00642076289977588,0.000842218023905539
0.0290612792915396,-0.00323354503337874,0.00168741955487727,0.000729897275811049
0.0199161806042708,-0.0151827629707556,-0.00265253976357683,0.000233265262449631
0.0170037317087592,-0.0194873392726757,-0.00261468465263399,-5.67748899760667e-05
0.0181107104999968,-0.0204986111735346,-0.00103768453965983,0.000672209182182852
0.0178345105405774,-0.0279024248243667,-0.00111585217939104,0.00207983654094824
0.0177501136848255,-0.037850072978366,-0.00149336568486015,0.00292823613117147
0.0178974331332045,-0.0400461823139922,-0.00162255231924238,0.00269251773898679
0.0195684734466779,-0.0378189690923923,-0.00336656175579667,0.00175983502141125
0.0261213905362495,-0.0429768982750107,-0.00727142825781357,0.000533009513179571
0.0321272787906093,-0.059241696810085,-0.0117539332100941,-0.000793920685728471
0.0310588052952224,-0.0693317264445572,-0.0132961557161623,-0.0020759303903735
0.0262202693105905,-0.0565627781701904,-0.0110484919733673,-0.00292644721124241
0.0238592407013367,-0.0359754426402008,-0.00854480266489054,-0.0030253282583274
0.0246706124450133,-0.0236278542440302,-0.00714991020067148,-0.00272946600624648
0.0256960763254967,-0.0146229154561958,-0.00555068783973444,-0.00250272810068726
0.0268178182221964,-0.00454369408436882,-0.00415090073825419,-0.00246151048053484
0.0304528867352876,0.0034320466664166,-0.00510158903401616,-0.0026737782962055
0.0334024750213108,0.00868510275059928,-0.0072370231217486,-0.00307807503950014
0.0298067718126372,0.0151045507819048,-0.00526451113653889,-0.00346415741224231
0.0231590770148269,0.0181460023046945,0.00216801471224502,-0.00343170644451203
0.0192298615063746,0.011716425164496,0.0106818775736218,-0.00259307529176984
0.0155695554240751,2.143142707247e-05,0.0146115114995838,-0.00123753102696728
0.00938618192701635,-0.00666630431836902,0.0109268057235946,-2.36035573882199e-05
0.00253397342719127,0.00054424215704392,0.00384895311687673,0.000854646571909775
-0.00431529224740693,0.00973434776179235,0.00241889287217931,0.00164009514081398
-0.0100337312889922,0.00767471965480075,0.00913851681850688,0.00239718388560473
-0.013642108030345,0.00319723394454753,0.0158546845826883,0.00303206802331927
-0.0170735774367747,0.00315271093510091,0.0162916766705006,0.00341120455241868
-0.0189387186650647,0.0100615362576755,0.0151727425781654,0.00328668871000601
-0.0163141182172432,0.0219033512680557,0.0159378988856861,0.00254403929730622
-0.00860095150193813,0.0267061981456264,0.0135898216222151,0.00119208993616473
0.00144568089367021,0.0213463084011536,0.00731196760101986,-0.000863250276956331
0.00882700673473745,0.0152399336500889,0.00283960347981083,-0.00347891835661715
0.00971729812227174,0.0174309002253783,0.0050952082707063,-0.00546178894950323
0.00617698258632673,0.018207822565476,0.00918863441026559,-0.00545631378013387
0.00382106450767024,-0.000838122203108662,0.00682378313012915,-0.0039209304866231
0.00405630603940649,-0.029325520139856,0.000988806775413093,-0.00253645418248373
0.00664098063530694,-0.0409602854473121,-0.00239184720692226,-0.00194092291291932
0.0109447943491784,-0.036662603797652,-0.0018866876607993,-0.0016204767892234
0.0134052622718224,-0.0248824643656671,0.00367576292032257,-0.00102770278147662
0.00875297113749554,0.00197888420354916,0.0123536524457957,3.56775410710257e-05
-0.00163479094631105,0.0316189793821652,0.0161584901689106,0.00106206586577059
-0.00786230838108567,0.0382426397748361,0.0120810966407274,0.00126684393836357
-0.00597412251335428,0.0176820459754424,0.00546629217413834,0.000690046642998385
-0.00314252068703652,-0.012238633272737,0.000168826036231813,0.000251044411896243
-0.00037015097797283,-0.028118701603337,-0.00210232342191123,0.000517485951587058
0.00625150710500249,-0.0230638253829538,0.00124651184844381,0.00115557201560248
0.00962438331214594,-0.00832597000343963,0.00723068452057095,0.00192232017513962
0.00491225975080528,0.003464988136192,0.0099805250750974,0.00316633050627004
-0.000453927016507519,0.00777803022232819,0.00879364087085487,0.0047664978674608
-0.00185574066481234,0.00572956791778898,0.00599200385046786,0.00554865738129877
-0.00545614916785751,0.000237971030446493,0.00306045882203341,0.00485603593936098
-0.0195005323235728,-0.00706252224983513,-0.00121969238250152,0.00298560852441334
-0.039735748042517,-0.0136601813331103,-0.00508185874354387,0.000212431407274441
-0.0518656298176823,-0.0156880074782507,-0.00598104039506958,-0.00280983642479147
-0.0487975121237015,-0.01669039995153,-0.00580698935046673,-0.00505819200020413
-0.034543331912434,-0.0215815877463126,-0.00460631337849812,-0.00584636627528951
-0.018191148186506,-0.0283913603827756,-0.00304429201313209,-0.00510569596033709
-0.0048430250302212,-0.0349937766637584,-0.00243075591806821,-0.00357815271745567
0.00476191585860144,-0.0407682732630178,-0.00112685045957739,-0.00204458900409877
0.0113855503493502,-0.0431857802124942,0.00064136425034462,-0.000442609592716966
0.0192340696847472,-0.0445688191790453,-1.44497054193476e-07,0.00139534859094638
0.0305765477490091,-0.0483005320254917,-0.00403231761132976,0.00291977540821932
0.04510819942878,-0.0476994778506898,-0.00813349438040346,0.00325033794140189
0.0530879304000607,-0.0417259455757352,-0.0104517394717892,0.00210627834710227
0.0433823893139825,-0.0362477298473615,-0.0109180028599533,0.000232259718053444
0.0253462284044403,-0.0319451578925204,-0.0093443365338317,-0.00133652530240545
0.00885676432700812,-0.025110515793067,-0.0080477428494968,-0.0021548861331495
-0.00831149131396876,-0.0147603521665195,-0.00948944780358835,-0.00233862990665009
-0.024353248483735,-0.00923974125598762,-0.0129301227582549,-0.0020817619227177
-0.0335179969543604,-0.00725834096398026,-0.0143947546050116,-0.00130142487805423
-0.035338120915616,-0.00204902718528465,-0.0115549500178478,-7.61416341427371e-05
-0.0335934098802714,-0.00183475035535732,-0.00806057040868721,0.00107859177903222
-0.0289456008065705,-0.0113325732626227,-0.00949695750816927,0.001761973509355
-0.0223269088967074,-0.0217725035850879,-0.0147220022700415,0.00163969351550925
-0.0163463346418481,-0.0263147537807525,-0.0183270094695687,0.00067782255612987
-0.0105687955272593,-0.0250849167709547,-0.0194254686406909,-0.000576373023591579
-0.00250008847194289,-0.0196220441124217,-0.01887202589749,-0.00129990704361146
0.00688694764372939,-0.00982097939989863,-0.0163509048906657,-0.000826833080179414
0.00947135479331976,-0.000183634775422787,-0.0141058527064277,0.000347844729396814
0.00173845912539219,0.00253019999427026,-0.0153164711820263,0.00107546463112486
-0.00747317028320224,0.00169914825325191,-0.0161985154159412,0.000825689751918028
-0.00733418917414456,0.00387993516867814,-0.0125312070308322,-0.000141137545187458
-0.000770096345639862,0.0081693916157699,-0.00835721924415701,-0.00102458249674168
0.00212297624082091,0.0100647409558413,-0.00450280239246529,-0.0012794658458667
0.0020355582445213,0.00970224644612186,-0.00139374581869475,-0.000964487963525606
0.0036658133729175,0.0113758408176854,-0.00167446503386921,-0.000356385868898207
0.0107807035372997,0.0150549491490732,-0.00231888535719183,0.000319196962552453
0.0239471566389606,0.0146733068011826,-0.00292894185552045,0.00115998854843051
0.0327069260849814,0.00456878461299886,-0.0056971208781187,0.00208478053164163
0.029067948252937,-0.0087773458878831,-0.010277176672919,0.00215979919984505
0.0186967788970608,-0.0147908123859831,-0.0141444216614166,0.0011289617155133
0.00596998648785507,-0.0164498908616462,-0.0154122081026129,-5.33047666088915e-06
-0.0102151672978064,-0.0169999275730849,-0.0151191673801693,-0.00066196583053739
-0.0255933253318454,-0.00837319935082105,-0.0105829068979891,-0.000568639363749448
-0.0343712728144875,0.00546474444350532,-0.00306079531348825,0.000705714041091746
-0.0371771451969662,0.00806141321695501,-0.000850277300022749,0.00257156389069679
-0.0340674382532392,0.00125876655126242,-0.00354100375530054,0.00352002164785595
-0.0226219083955559,-0.00160509268722093,-0.0061793096313965,0.00319784871079762
-0.00811572244847807,0.00563958661404567,-0.00467084800978358,0.00288341201073268
0.00162464662975588,0.0217672871540638,0.00129258676899089,0.0035716554260757
0.00670516531180586,0.0357167220340479,0.00334817405861361,0.00475647826424596
0.00941778856972004,0.039723736123245,-0.000365092238785666,0.00479840101358292
0.0100078216155975,0.0395825417683318,-0.00123809972022532,0.00256075719931536
0.0112016882131593,0.0412270557826793,0.00398087887266255,-0.000891695651105548
0.0118886978784931,0.0414498098327287,0.00992421174030204,-0.00348543202143235
0.00793230853506986,0.036320475402509,0.013020596343784,-0.00450261995446922
-0.00148347964825826,0.0315747235508458,0.0145438540972923,-0.00429793455053693
-0.0176442593963643,0.029319563693141,0.014251629791224,-0.00324847330563043
-0.0336593624920861,0.0205488466234343,0.0103034127660913,-0.00167263125919429
-0.0342192645603481,0.00136769285500581,0.00309594285401413,0.00026158882991469
-0.0179021929809298,-0.0158210073851849,-0.00538791205045677,0.00217442295469804
-0.00135302297880058,-0.0143154096985054,-0.00746480491925245,0.00365868437486399
0.00645193946731206,0.000486917243626447,-0.00147429714563014,0.0049173025745487
0.00711438804529085,0.00637897251370465,0.00200264492378673,0.00589845702687338
-0.00227131435505763,0.000364834793966679,0.000361118815911251,0.00590011413028545
-0.0156681966145851,-0.00478364191847482,-0.0039651295317783,0.0045451067569312
-0.0215057534611632,-0.00812537429924149,-0.00705297437479963,0.00212735125157349
-0.0190849426417408,-0.00962375571056094,-0.000516053125232653,-0.000406955428621007
-0.0138220533827661,-0.00579022357679225,0.00961235317199894,-0.00172304361881006
-0.0135550405806802,0.00272213242891673,0.0114576914153497,-0.00149242928308858
-0.0182166052661061,0.0147906587510731,0.00952549422979532,-0.000526323663914176
-0.0202073593527521,0.0228324192786298,0.00739764890828979,0.000547596613591537
-0.0162934546195932,0.0217434415175252,0.00356847914570121,0.0011467203342716
-0.00729270262952718,0.0179764143958597,0.00232364639226417,0.000943710971947496
0.00132176720571421,0.0156002100920315,0.00195576872084283,0.000252655901780791
0.00569312230154536,0.0118493871053904,-0.0021932963001114,-0.000772378289509003
0.0116589932699802,0.00744358301720985,-0.0075128120981664,-0.00194084861659357
0.0225246607472661,0.00634480736097299,-0.00879951994566927,-0.00225858593583497
0.0308334129040481,0.0100327365547616,-0.00511915657580243,-0.00107489099084538
0.0309142084159535,0.0139269082042425,-0.00153407734249277,3.94370552730581e-05
0.0242505159259673,0.0108492832256608,-0.00125599693284829,-0.00150616293328841
0.0132315805304687,0.00255646952179449,-0.00372432825844768,-0.00562148308855606
0.00188725924699597,-0.00725683511229576,-0.00788803687795521,-0.00889695514291903
-0.00739390373379597,-0.0123365109219328,-0.0110416743589667,-0.00888268155484785
-0.0146610448519625,-0.00508450634590041,-0.0125085068367958,-0.00641380991181717
-0.0172192015110475,0.00543219222799649,-0.0151636421167513,-0.00343679137047356
-0.0149767452347164,0.00992961636665675,-0.016226826420157,-0.000913435046569027
-0.0118033399706393,0.0125941298879962,-0.0122267645943073,0.00123536794238323
-0.0067185435345059,0.0145330158393131,-0.0100216452751587,0.00305763107189254
0.00382311904588751,0.0152921190415289,-0.0125833326437832,0.00420930364598165
0.00895350211021807,0.0162991414940332,-0.0117825550907088,0.00466378068281547
0.00236197953146362,0.0152054383940932,-0.00590939876762708,0.0048014730977859
-0.00307587333770813,0.0163706077038708,-0.000862489812516546,0.00440865416508514
-0.00561186998922156,0.0220541418892657,0.00422304071129733,0.00307634387580467
-0.00871581441813883,0.0218884444296462,0.011738660067961,0.0014555572401671
-0.00317562372768095,0.0113826366165491,0.0167065202124106,0.000534513623162407
0.00912168343897103,-0.000632196966546983,0.0134644582460266,0.000140191970960451
0.0126480724343831,-0.0010684366118569,0.00422707092930431,-0.000857856635234059
0.00686588412375208,0.012952263613903,-0.00424170329912726,-0.00299261885849662
0.00269172838441406,0.0244382710260503,-0.00695562898099137,-0.00531720094414014
0.0067860992677335,0.0149289641539795,-0.00204444354474651,-0.00605612811517817
0.0208672952023977,-0.0162390952421848,-0.000996216612542712,-0.00414262750678283
0.0426154511702059,-0.054306296366903,-0.0155665411479787,-0.00116052859391786
0.0619362203523003,-0.074073160651057,-0.0248913388907956,-0.000247650029644411
0.0622651659611804,-0.0562061842438234,-0.00827611336243774,-0.00154294023632504
0.0413413256312263,-0.0104255252960972,0.013527818567072,-0.00222213366999967
0.016748742948057,0.0340389529047003,0.0157605884923504,-0.00092816466777733
0.00433838393731379,0.0574279446988939,0.000983460411946803,0.00116057362091525
0.00423396902336792,0.0592745765948071,-0.0111943351958631,0.00249525423034008
0.0155098500242779,0.0486443849526913,-0.00733368441230854,0.00300517384645356
0.034094395574117,0.0294684701648462,0.00451905033479966,0.00355479269537378
0.0347052646509532,0.00868067760987518,0.0121604362581035,0.00416895734287915
0.01200839142101,-0.00864618137043055,0.00899110641342273,0.00397583889632831
0.000327497547314037,-0.0192885331280194,-0.0013901056006537,0.00220669316320857
0.00849833247274801,-0.0121313230031137,-0.00525186683716284,-0.000395702035912516
0.00716779912693781,0.00575226672660477,-0.00302665252739489,-0.00181370249919708
-0.00880277054498222,0.0172616415148708,-0.00216547569753921,-0.00126423541613841
-0.0164282389177157,0.0159867376657221,-0.00093029896113548,0.000511588617255277
-0.0068577463951998,0.00414169231655056,-0.000567866086493281,0.00222807835547224
0.00822760700806212,-0.00133837344405673,-0.00108153675057364,0.00280968392720493
0.0240498915879161,0.00975460896367804,0.00243885628352516,0.00279216410473084
0.0473138642290837,0.0200515920982397,0.00712757700618791,0.00320284802502221
0.0734831968348323,0.0118923289343328,0.00674055152254018,0.00383658810458552
0.0872744469093936,-0.00826130919581628,0.00147137918639115,0.00409717912872554
0.0697485628953408,-0.0217646179213445,-0.00529692083465975,0.00391802345379243
0.0217581807679993,-0.0176461891041482,-0.00912694313354724,0.00323655848764572
-0.0204814665523005,0.000499376415236236,-0.00663816943529624,0.0017632029437252
-0.0331541615988436,0.0125558295073886,-0.00366722236688799,-0.000334216596113788
-0.0290315402884475,0.00706020672244916,-0.00560988948114026,-0.00271549818479083
-0.0222929698631357,0.00308175102111343,-0.00711960252410274,-0.00492853298145595
-0.017975444628712,0.0153789061192865,-0.00455197279671699,-0.00606599987442662
-0.0123660459837962,0.0328896360342479,-0.00115907760713632,-0.00573736478790915
0.00388082658512053,0.0403531886542489,-0.00140853382492654,-0.00437082116247591
0.0210991306885238,0.0362094020927117,-0.00590308346958364,-0.00283688334054363
0.0245625884916074,0.0265289035693516,-0.0105912933357339,-0.00197536666209943
0.0212975186264647,0.0105989490249592,-0.0133075912879148,-0.00173662537279207
0.0251804039444433,-0.00610477895448867,-0.014124383067305,-0.00147914018441113
0.0352469842195845,-0.00883071305771452,-0.0125156942163688,-0.000955117623327872
0.0363109132069817,-0.0052542065729995,-0.0115990235063587,-0.000384515992608041
0.018629155996577,-0.0118715342171621,-0.0142566427770154,0.000102697096809976
-0.00515170382501879,-0.0252771125665817,-0.0179497465550298,0.0006397650450001
-0.0138541867039376,-0.0374837372588757,-0.0189694721178049,0.00149702898507111
-0.00549123112898158,-0.0549012763333149,-0.0166469105435582,0.00253485756562673
0.00618235047714916,-0.0758598550090542,-0.0143194751065159,0.00320396148145093
0.00859100517739602,-0.0726777902530303,-0.0119820109019218,0.00278546462675604
-0.00347295641809444,-0.0447549752704281,-0.00682465072714925,0.000839547563025403
-0.0211168147197731,-0.0161983091708381,-0.000659205859817082,-0.00147987185718742
-0.0326849748097908,0.0107507921234328,0.00593492664136875,-0.00250433267256731
-0.038406720916011,0.038825905089803,0.0155933715562555,-0.00201323341007783
-0.0400857501884857,0.0643654252979056,0.0221095697199999,-0.0010176468991418
-0.0364217096916443,0.078851810536054,0.0157125721684925,-0.0012302424294373
-0.031492727788124,0.0731578904242398,0.0036680970917953,-0.00395770614241651
-0.0291884395339473,0.0523719820431416,-0.000849244690075524,-0.00743726621584593
-0.0254624999834511,0.0321325349464548,0.00229029100451659,-0.00752095017171281
-0.0166753211551097,0.0159986283330272,0.00424628176401361,-0.0032171212960678
-0.00520250827185195,-0.0059764724492214,0.000240434060425158,0.00198115656860225
0.00925638549708602,-0.0278293059045001,-0.0038094606118525,0.00460392589207488
0.0237466884303305,-0.0295016385579485,-0.00332939094898306,0.00398760628066806
0.0272731208559596,-0.0150816323203882,-0.00367048663901098,0.0017376878622632
0.0176702794221384,-0.0125195547457137,-0.00874723242628424,-0.000609475240793174
0.00242625889580667,-0.0304216141861484,-0.0134491311640586,-0.00271976290648969
-0.00816726452567266,-0.0474069005420653,-0.0146803931841526,-0.00411079210212399
-0.0108460911327705,-0.0445103340321586,-0.0133585308745833,-0.0039813328029178
-0.013386475251195,-0.0285849707118262,-0.00948395289775554,-0.00227986498110252
-0.0173831577727465,-0.0163238095036096,-0.00630884773949252,0.000144648016364074
-0.0188639833481623,-0.0104592155042432,-0.00502730339528366,0.00211823517160172
-0.0185723332731462,-0.00561508332544219,-0.00294655269891907,0.00282179762801782
-0.0173984719475462,0.00211491095254204,0.00185077045121087,0.00223462335498332
-0.0160534613418559,0.0114179158392695,0.0110810550864529,0.00122035403963941
-0.0168080617897755,0.0138582849861095,0.0186251962679971,0.000798007580440211
-0.0152481402665897,0.00632186510338698,0.0173348846817861,0.000927513167867634
-0.00789397570525665,-0.00210466674112158,0.0133099552977506,0.000948391269968847
-0.00152879384823386,-0.00518240296024763,0.0122475326355854,0.000707531524655135
0.000781173231465543,-0.00769650428612791,0.00993529449687079,0.000430750136509666
0.00291968198888919,-0.00803095488282765,0.00503347360470217,0.000319912787347016
0.00811223781560814,-0.00159039216708471,0.00204168197739327,0.000646062022498215
0.0150077575029599,0.00489011561676884,0.0009530077533699,0.00146848285364646
0.0188088416777284,0.00786031008292126,-0.00185390059313549,0.00183565512704986
0.0142602145090616,0.0149593488477149,-0.00181131610140062,0.000820221154801572
0.00180507850161227,0.0270571651344663,0.00450512322845274,-0.00103025330666864
-0.00633438539006042,0.032833869369773,0.00813893889155223,-0.00258129623479762
-0.00615036221900694,0.0281673786731239,0.00561614147550355,-0.00344587279187652
-0.00531107972935891,0.0195031096417985,0.00377545285421333,-0.0037516046215001
-0.00450751174904314,0.0128669916342897,0.00377820256338441,-0.00343220014985306
-0.00498094438740224,0.0107486890575586,0.00450051659359507,-0.0022759012042681
-0.01014610327319,0.0126230873766713,0.00708616880410302,-0.000463583643265031
-0.0201205373256688,0.0178070447830057,0.0101384403029996,0.0011744733343036
-0.0291168518302396,0.0216587387023155,0.011071727145772,0.00209529795008013
-0.0281321564199114,0.0166641318387723,0.010600247964847,0.00246206306272896
-0.0198812412725596,0.00726539344774,0.0131791441214736,0.00255581313623284
-0.0122798957376425,0.00459458776236103,0.0181032054558337,0.00250967816677428
-0.0097531128154383,0.0101763597161306,0.021343649505603,0.00208423832006531
-0.0131869711702737,0.0140683899758204,0.0211352087518781,0.00126180978821211
-0.0179257102475024,0.0113578204014039,0.0188285510136972,0.000332846657430088
-0.0211250240680695,0.0103771976131457,0.0155357389287526,-0.000822138479217676
-0.0223190616283966,0.0156202946122482,0.0119496521972354,-0.00211331600101735
-0.0213506285138082,0.0169835500283792,0.00987688601540604,-0.00283491916000668
-0.0166905060160707,0.00598026779255184,0.00749644177647072,-0.00251845193324398
-0.00750111974599178,-0.00125615290446791,0.00520332414473414,-0.00154213796411311
-0.000429591568779086,0.0104583986515154,0.0041395657509176,-0.00085896133420322
-0.00172571410945645,0.027738945540557,0.00320433173891633,-0.00113111697383684
-0.00775707661720065,0.0369232187095474,0.00527397536172739,-0.00181577253527564
-0.00968853668434221,0.0342499741361189,0.0113814606965981,-0.00174421983873695
-0.00387620409395788,0.0208352856511762,0.0174837973784793,-0.000704304674111461
0.00409699129129982,0.0132954734341421,0.0205455524640498,0.000783539040792911
0.00382775374464894,0.0199941680705891,0.0191500305321969,0.00217193249837234
-0.00669751096433883,0.0202663216010786,0.0138850317588995,0.00271849443689671
-0.0175045523563626,0.000675695492212525,0.0103068119538386,0.00182887711867828
-0.0210254675120228,-0.0204051572319991,0.0114297770174768,-0.000201804491766972
-0.0195466448247446,-0.0209586124497783,0.0160991658250046,-0.00222976472475475
-0.0175090137597158,-0.0036618539802102,0.0219835661297026,-0.00327722515379334
-0.0135582765665777,0.0119112150634994,0.0231003405280501,-0.00301773370199772
-0.00630513889472505,0.0135489511501968,0.0181497118922182,-0.00192715261041961
-0.000544360932132965,0.00458257835527633,0.0117487449459891,-0.00114088867668129
0.000751121049110997,-0.00131857431059889,0.00890930853219473,-0.00106632326030363
0.000968012863982987,0.00337436598109526,0.0105956219946925,-0.00092942776977392
0.000624239441564218,0.00928576579161662,0.0114842642495966,-0.000256320581933894
-0.00397968198855872,0.00745278285474232,0.0105391544198052,0.000503324259451706
-0.0147307337893686,0.00752700877237101,0.0127751499932823,0.000924400104189258
-0.02948800172173,0.0168647321939537,0.0171917272884702,0.00129244413709077
-0.0413869738230912,0.0234209991921908,0.02021819147205,0.00202131277443201
-0.0467106317149034,0.0200716713958655,0.0210790230812874,0.00285710704162733
-0.0459149973730546,0.0125435830777663,0.0177159332264276,0.00298669521281846
-0.0460486680099534,0.000446887229318578,0.0104114855213896,0.00175541856769694
-0.0542037656026502,-0.016022462474564,0.00512585634131689,-0.000376477640450173
-0.0584306782958187,-0.0222452810152524,0.006464638421575,-0.00204761663923415
-0.0456868743855549,-0.0204353945746294,0.0104567348921467,-0.00238337523174217
-0.0210275991376997,-0.0345612896857184,0.0105592158849895,-0.00173151544971979
0.00559340558717168,-0.0659380566811691,0.00741167260200551,-0.000998847892327045
0.0284504034868775,-0.0827145176156756,0.00546925142700295,-0.000676795125999785
0.0455963757747309,-0.0648746795096995,0.00748428328218608,-0.000576781979938306
0.0544387596302444,-0.0327597936691595,0.0131106603781546,-9.38127773526668e-05
0.0499015764968356,-0.00639070907852675,0.016411172643627,0.000846990587743749
0.0368512360627061,0.00971669988786807,0.0151192583539849,0.00157648708177796
0.0267670694005075,0.0128583247998041,0.0138305987748077,0.00161240755092038
0.0258453570740164,0.0113482682221538,0.0154437187035876,0.000926544091923437
0.0270395558303625,0.0121016988796461,0.0190608745575571,5.75491134091098e-05
0.0157526358786424,0.0146066205188553,0.0200894890480481,4.54549335170038e-05
-0.00369507744839099,0.0168242399917665,0.0170894473251547,0.000920963698531468
-0.0164923393332247,0.012331076127969,0.0134717861086029,0.0014586818740996
-0.0214710658995096,0.000487104697936083,0.0114338678147837,0.00119038609905712
-0.0226184268298055,-0.012038512533831,0.0114421759571839,0.000925632005483541
-0.02018246345036,-0.020521427589838,0.0107146115282717,0.00132734125269818
-0.0128301569140168,-0.0237004785669036,0.00683654819596782,0.00233224976997504
-0.00254752499507857,-0.0237940206025638,0.0035851271418278,0.00331609295542516
0.00340804884573447,-0.027400125107125,0.00223706722634121,0.00337401968112563
0.00681954551369303,-0.0335893048611432,0.00105049354652587,0.00226221236903417
0.0121165016214555,-0.0296502325728351,0.00487009121272879,0.00074665700404659
0.0141975191030689,-0.017838032022597,0.0119020809938076,-0.000131146930940147
0.0109322699955187,-0.0124314263298225,0.0138352816923291,-1.2600567866252e-06
0.00517207854965053,-0.0126362861396812,0.0131975724995117,0.000715114599582175
-0.000338973625607964,-0.01187827844229,0.0133639280806041,0.0014217223012961
-0.000927796919594194,-0.0104585997559621,0.0124151904698142,0.00174676582312738
0.00656329574162118,-0.00956778947415586,0.0109898875500715,0.00158813546458968
0.0176255929481611,-0.0079844909217753,0.00944247335561302,0.00125101655895667
0.0248665087299194,-0.0060936465220993,0.00644365095904859,0.00128305797838295
0.0257582363657965,-0.00443794527633019,0.00360667471091039,0.00150001192583717
0.0200872616137419,-0.00249421601845877,0.00122740110153637,0.00128774289261065
0.0102782052287115,0.000128992519534502,-0.00257365508469034,0.000654219984663879
0.00467708987434429,0.00309974722390481,-0.00567864471607838,-0.000314747359427831
0.00765695884961551,0.00328330209616752,-0.0060580846813006,-0.00204778715988449
0.0144708391849257,-0.00181649034065309,-0.00537598823894413,-0.00426274427697005
0.0180001781120371,-0.0113296838932894,-0.00548818910416895,-0.00524926224874239
0.0151661045891193,-0.0164447494000982,-0.00573198264871466,-0.00369647262045717
0.00938362361576156,-0.00935765063377819,-0.00555677280820509,-0.000490032902950763
0.00458729169840053,0.00462009592322493,-0.00496319015941019,0.00217726338570417
0.00229730899175787,0.0170478212953395,-0.00197998415976501,0.00307096786071749
0.00252457022661079,0.0220476267691196,0.00159874680479503,0.00232510428727852
0.00459369226095692,0.0173420945050426,0.00165654390970966,0.000779182254436162
0.0102927585460044,0.00956437791692978,-0.000367969514594129,-0.000324145421762887
0.0159970402029436,0.0071739033463459,-0.000594417524419296,-7.41170605602112e-05
0.0112509139012786,0.0104255479050884,-0.00103846216598196,0.00137321715240703
-0.00217342296707905,0.0195910180317694,-0.00276774512102642,0.00259657383773518
-0.0114315979167327,0.0325406789234916,0.000631450572402749,0.00224218282725292
-0.0137812754971087,0.0330813540222337,0.00252537533155578,0.000718247687711645
-0.0131031704358879,0.01421190070159,-0.00615571450687818,-0.00111218687827691
-0.0100639186868598,-0.0110167250858138,-0.0157400590226079,-0.00345179309412203
-0.00507371406171537,-0.0322065481930355,-0.0186199284063715,-0.00566431894954716
0.00174256191152561,-0.0443295575494602,-0.0179024506851366,-0.00600417110868416
0.00756332689135051,-0.0420511848387327,-0.0160347251080072,-0.00439288155529441
0.00936167263758996,-0.0287307958863694,-0.012454559833601,-0.0023735960575465
0.00887093089926645,-0.0152662067584211,-0.00875840275358324,-0.00116126921418816
0.00586185384530566,-0.00873192721065985,-0.00990543474699944,-0.000914671250706884
-0.00165309056715619,-0.00637532540685602,-0.0130188839571951,-0.000789132672014065
-0.0079249097177082,0.00200353683547756,-0.00932623249701122,0.00018696994086832
-0.00828602377096802,0.0167462944391184,-0.00172893648829918,0.00200258232929859
-0.00998460671498611,0.0259191594140842,0.00282137557737612,0.00345741597691257
-0.0168576878280467,0.0261872725977721,0.00398628912426381,0.00320389142716823
-0.0217696143716232,0.0224126073785241,0.00400266632192934,0.00114721656729617
-0.0209745111686386,0.0160721354858147,0.00364629438160056,-0.00117276331144117
-0.0172461013773364,0.00938775498148274,0.00116454143505396,-0.00216027694412112
-0.0127795686904244,0.00341151335256608,-0.00341419642488903,-0.00183592940350508
-0.0117527153013645,-0.002733221506003,-0.00721159429501669,-0.00101594609411473
-0.0144605400124171,-0.0044252364916095,-0.0084357527593817,-0.000153259338357649
-0.0131087195700115,-0.00459112306923926,-0.00947273943844399,0.000675106911837879
-0.00378539966822284,-0.0162093484197711,-0.0111699167207374,0.00144957904718208
0.00441652336264907,-0.0303549312387176,-0.0102300425110126,0.00194081307248099
0.000692723086328426,-0.0284627670337958,-0.0109238961054937,0.00195241416698428
-0.00730316327228132,-0.0156186350485686,-0.016206677667361,0.00160503056758342
-0.00843232285577998,-0.00472704373199508,-0.0162867632119961,0.00141075171444403
-0.00700453127054651,-0.00293140178185439,-0.0104164398148699,0.00182914533144347
-0.0087482784761399,-0.00860586745546787,-0.00599436896943519,0.00276178080545158
-0.0106123378335437,-0.0168101937194072,-0.00365603236714742,0.00354684905873447
-0.00910639589416053,-0.0233307690032329,-0.0023792312308325,0.00355245070703799
-0.00388915968905095,-0.0181548715581272,0.000210593309532417,0.0030089992173327
0.0018899391223133,0.00162119652978659,0.00428096864773642,0.00245138133261753
0.00729117664795744,0.0198433837862099,0.00193404169332102,0.00186681615404834
0.0162431231884701,0.0162256056978384,-0.010059698800271,0.000773438433839241
0.0240539850442518,0.000134880435516056,-0.0196459018727648,-0.000909192635645244
0.0233253728142746,-0.00416023422210735,-0.0188361398114553,-0.00185982187468977
0.0148558222530647,0.00307551949241018,-0.0132794308531692,-0.000790976437964507
0.000656945674369767,0.00540929199800604,-0.00529463355687118,0.00157072710212758
-0.0167609558634681,-0.00267795316758979,0.00350874577891252,0.00319344517552358
-0.0279619931745053,-0.0049641701684375,0.00624752135171994,0.00294258981835461
-0.0282407896351561,0.00739358368768499,0.00298881415220134,0.00159949153674954
-0.0324640497076826,0.0204803976301206,0.000597488742609304,0.000544115151667587
-0.0503241055675923,0.0226870170118117,0.00119908002942249,0.000221107733519561
-0.0676960399965573,0.0176100454845211,0.000650248487706199,0.000382114242431341
-0.0699499865622955,0.0144248624991194,-0.00199584579741884,0.00118543372183143
-0.0538378262636327,0.0174405867976528,-0.00314657506923988,0.00245990562896195
-0.0269301177508857,0.026471337137583,-0.0041692378650421,0.00293713376054344
-0.00316441822139434,0.0341380410873363,-0.00720420127649161,0.00186180765462314
0.0140730355249489,0.0316608053598552,-0.00984780576798006,-0.000214862413124238
0.0339516587715658,0.0210021724520969,-0.0123897346372899,-0.00214646710934437
0.0574862659389569,0.00941064172574716,-0.0148997794818374,-0.00318314026969723
0.0706145747647465,-0.00180991435371241,-0.0141856739429796,-0.00331509519171726
0.0683378815822614,-0.00898328805948704,-0.010905866960926,-0.0025038465635964
0.0624886158438224,-0.00140457807029829,-0.00707719645902415,-0.000777621831049252
0.0598497424450774,0.0173911250408594,-0.00290963423103969,0.00118079430908458
0.0554551928443675,0.0309933052591068,0.00184442997306643,0.00273579759642274
0.0429574824148951,0.0375518617653624,0.00649288906708774,0.00356035065489513
0.0224494808358139,0.0442753451443366,0.00875737005531889,0.00315522810269182
-2.18134656254088e-05,0.0477247906451686,0.00804944216709404,0.00164904219529248
-0.0206789688226553,0.0434751133398687,0.00384688351943403,-7.21505158387263e-05
-0.0374329030954929,0.0359492806350006,-0.0027137546405994,-0.00161131286098066
-0.0485306405315027,0.0327894250369294,-0.00594377375521938,-0.00310483790214332
-0.0551476109696146,0.0337094840863207,-0.00352984860763982,-0.00436919802215912
-0.057046834316098,0.0303898388293405,-0.00045337802390503,-0.00476860212717587
-0.0508551775951142,0.0243960392272757,0.00075835395137191,-0.00391240888483069
-0.0403963764437302,0.0260320126613571,0.00155361354677018,-0.00205395904279117
-0.0307981234698126,0.0319233590028596,-0.00115953548307348,-3.69971026608238e-05
-0.0174587962394684,0.0219625018147375,-0.00992036559466895,0.000963993025349749
0.00253715952396882,-0.00454633663340378,-0.0131689154196591,0.000330204833180351
0.0239419771403405,-0.0200582068884594,-0.00301459189633622,-0.00072855254660537
0.0411581717097728,-0.0121108042209085,0.00581826743903104,-0.000361502368118397
0.0516051591224327,0.004557236708493,0.00315564849783949,0.00087370738871962
0.051241067911709,0.0123111899502301,-0.00277255385801435,0.00138229749933926
0.0462689637024164,0.00817548915658014,-0.00479040667796772,0.00117962174580384
0.0479059970762611,0.00122061383031073,-0.00388141328870614,0.000638362209507941
0.0514346674410035,-0.0100918826965587,-0.00231840456697326,-0.000407080999186255
0.0501791467012951,-0.0286030880986543,-0.0025199887101915,-0.00199440585973528
0.0458414086037478,-0.0291383579318032,-0.00542350358947083,-0.00399515702131902
0.0363040429991964,-0.000369632949333593,-0.00613366219682404,-0.00575150005025256
0.0178879558335135,0.0299630764668489,-0.00328455377708852,-0.00592988967090957
-0.00460620341818541,0.0436464325040843,-0.00334242152006466,-0.00392980714840022
-0.0187125290400173,0.0446180335063587,-0.00613659483642156,-0.000864658227021952
-0.0167853564132516,0.0370723699839448,-0.00839840124716587,0.00168943278084465
-0.00685890739092974,0.0246557294662896,-0.00834486772824348,0.00303168225352695
-0.00267747515274786,0.0101083351942959,-0.00534597578796351,0.00319202649405347
-0.00767215271666408,-0.0062164541432536,-0.00723049638196758,0.00250969042794126
-0.0148880867962139,-0.0199214493683685,-0.0159401273420086,0.00149565203872762
-0.0185218800825445,-0.0269892375413886,-0.0230419527597138,0.000851319732363631
-0.020201780489279,-0.0270544144697024,-0.0241798674075134,0.00112079402176949
-0.0227935375924473,-0.0229622050444078,-0.022379906796922,0.0019702436551796
-0.0243214607335377,-0.0189862146106566,-0.0188964133031106,0.00222523085298246
-0.0188773947030313,-0.018001083519846,-0.0105139270412058,0.0013699789458466
-0.00663444187899609,-0.0192948378189214,-0.00106522867901396,-0.000215238370549473
0.00350865287042189,-0.020429493286012,0.00243297803568167,-0.0023763937403186
0.0114343188757775,-0.0214749844162252,0.00142876247295414,-0.00439135182835281
0.0184335500339256,-0.0183966182720203,0.00281339498991808,-0.00481780573800307
0.0148709249805996,-0.00920630060233256,0.00691147282556597,-0.00330100791328958
0.000712215211522953,-0.00361395373984377,0.00596840851153273,-0.000842690091069629
-0.0080280623534621,-0.0069346419923406,-0.000225972152141336,0.00104758490920784
-0.00167028936917463,-0.0167196888724789,-0.00506750954648523,0.001339226289896
0.0159028785811032,-0.0309154024637813,-0.00865516132931881,0.000279871210487504
0.0421692637671153,-0.0466402614991916,-0.013173033185567,-0.00121997254122918
0.0646632913578639,-0.0554754149421828,-0.0159119061095609,-0.0023443390063351
0.0629468652567736,-0.0423782531541229,-0.0154372178381091,-0.00278256457546189
0.0433203280285672,-0.0138315769146682,-0.0133327571976603,-0.00261741682311601
0.0219103345572351,0.00731775478939928,-0.009001104783937,-0.00161145762137361
0.00280908444931769,0.0156763924885596,-0.00467983573457135,0.000491660684607034
-0.0112000081004687,0.016968102225446,-0.00675163571212928,0.00295421025221974
-0.018496019438156,0.0181288675673956,-0.0117918763989243,0.00433748119313889
-0.0154931987057283,0.0202859187885675,-0.0128142795431307,0.00402358492184427
-0.00324492363154117,0.0186227171513672,-0.0116583506907759,0.00263028804335163
0.00818268889261638,0.00788664782047591,-0.0106659703282188,0.000986534469582918
0.00912420240237991,-0.00809785961912475,-0.00769448903898411,-0.000494439754889182
-0.000486616566572444,-0.0134053090593525,-0.00073415490089751,-0.0016092581832406
-0.00620784429480853,-0.00776141445246098,0.0062807838615715,-0.00231139823006148
0.000327082307568949,-0.00513268727692627,0.00931579690188502,-0.00262634095120018
0.0117791591554687,-0.00913042042037446,0.00862384757537243,-0.00247746643107521
0.0210945788025824,-0.0181153003581312,0.0019516307842031,-0.00203926791870242
0.0261810744414972,-0.0280062313008472,-0.00588741071116396,-0.00163966553137755
0.0278668100407015,-0.0245793640252182,-0.00217385940338785,-0.00110128599987127
0.025076311017604,-0.00671504234041448,0.0100019468810217,0.000166177955422106
0.016162032810219,0.00300759707680159,0.0152595422315435,0.00167797694518917
0.0089907730466617,-0.00467036205683757,0.00889051560262624,0.00164568552224833
0.0103193048354783,-0.0171643742098924,-0.000959839962396823,-0.000430334109773642
0.0101551430955961,-0.0208530964295033,-0.00584205384871513,-0.0025131823308573
-0.0035733479395107,-0.0137018511684049,-0.00579096825930584,-0.00250267961188793
-0.024732571760097,-0.00334676557148119,-0.00531755255978428,-0.000795665430664819
-0.0371763724751624,0.003556993650857,-0.00697623071743463,0.000646394188546725
-0.0366613772683757,0.00439652797518982,-0.0106508075293865,0.000885475845624883
-0.0316750993972547,0.00953382501502313,-0.0118585510301813,0.000407534331379137
-0.0272422307043561,0.0231958220152899,-0.00700241473735714,-0.000251977890921383
-0.0258843816905964,0.027427902959182,-0.00105111428327077,-0.000699028280966749
-0.0278915932046353,0.0192710672096961,0.00114540299693871,-0.000710297679480153
-0.0288363036434856,0.0180036809178762,0.0026662795113513,-0.000665976193236787
-0.0294041572718969,0.0290334324728123,0.00597261632640809,-0.000784097430824835
-0.0306953877086673,0.0391860526199218,0.0103480685016119,-0.000739539130194038
-0.0313728065509325,0.0388122662561647,0.0126810763761449,-0.000441956843148538
-0.028316921261593,0.0266017738671973,0.0104506435447847,-0.000230631855821268
-0.0109218089213647,0.00205150151281044,0.00658109203724002,-0.000274753939911444
0.0204184023097811,-0.0290748220356961,0.000868768344769382,-0.000397291997731628
0.0422621120785048,-0.0511702740348106,-0.00683791664055291,-0.00055141134057674
0.03920641261517,-0.0659241140920345,-0.0147676711182101,-0.000916520901592207
0.0233844830780887,-0.0788528905069478,-0.0203388556596197,-0.00170732486961654
0.0091816881731931,-0.0667176056675629,-0.018653329902288,-0.00282049661812792
-0.00103122086761118,-0.0319525085230433,-0.0161842504914872,-0.00350496001451635
-0.00491724100253273,-0.011863374019677,-0.0177612182924674,-0.00343182157387056
-0.00336870434872336,-0.00997055914546147,-0.0147064884129693,-0.00301778532413718
-0.000858031037607634,-0.00631892622233381,-0.00529431992211973,-0.00231474560915269
0.00145937630826816,0.00190739120841583,0.00317798190278617,-0.00124649888292396
-0.00202060859048841,0.00982951930962726,0.00804793614067312,-0.000207444294415578
-0.0143164629151759,0.0126135850246631,0.00919909527389853,0.000457057749232467
-0.0265377608661267,0.00621806321737419,0.00482838986549956,0.000788299954778852
-0.0294898822320973,-0.00344469303255038,-0.00084460131986965,0.000745895581086239
-0.0227090092025053,-0.00805132005021568,-0.00236537421486173,0.000324600497128463
-0.0150385417881247,-0.00897001089829463,-0.00134083441585265,0.000190026132944642
-0.0138885613817518,-0.0125995385950647,-2.60735143275386e-05,0.00081022064623037
-0.0139517028767773,-0.0185854915672341,0.00173877215146617,0.00106609245055179
-0.0106413399012339,-0.0176111139726568,0.00376026378078547,-4.29425606284094e-05
-0.0126100003001243,-0.00993476863521239,0.00578491506095285,-0.00104294804757687
-0.0199806461513178,-0.00846858500104146,0.00980315395790676,-0.000203245613499435
-0.0177712456227845,-0.0147210712957663,0.0138177280072579,0.00163412039887693
-0.00627597018516604,-0.0218553437833722,0.0107201881735522,0.00277706648928157
-0.00128497576666268,-0.0268302125404011,0.00145738971460628,0.00261828217781306
-0.00366504160882893,-0.0270483237522863,-0.00273099124283813,0.00123408838416092
-0.00798800674348369,-0.0239349430591142,0.00313988686360904,-0.000547515727117404
-0.0151678815221757,-0.0225677582746615,0.010348981108932,-0.00148383232081251
-0.0151178663911809,-0.0260065120648298,0.0128654067297242,-0.00108641329199881
-0.00093779374428711,-0.0335241625225775,0.0128037374754657,-0.000115352591074765
0.0178438157879508,-0.0403098496556086,0.00976359153142109,0.000229640783210014
0.0317091588603523,-0.0383576247168404,0.00448598587331522,-3.24298091639297e-05
0.0372350419089419,-0.0272444392605139,0.00164241896654626,0.000113875690014068
0.0352109807291583,-0.0185609093848617,0.00271340986399496,0.00101258899666227
0.0278110935186542,-0.0153269381203284,0.00772574039983332,0.00220509837137121
0.0179896120376763,-0.00676350284328631,0.0138249374481615,0.00315070720287035
0.00984854792360433,0.0072893973623021,0.0113777720883341,0.00344777728591217
0.00684810674449934,0.0154366075228345,0.00145845185814484,0.00287444297483806
0.00821012978070349,0.0155375937771309,-0.00198874093280646,0.00189587369702738
0.00817730180393384,0.0113389225333324,0.000834430856392194,0.00129100020266112
0.00141902863148186,0.00766241035952103,0.00314692551605291,0.00110425313564304
-0.0114611971738291,0.00912536840612952,0.00647349388202272,0.00113920716207257
-0.0224312643553251,0.0132793105839677,0.010760330394357,0.00149838931595724
-0.0259484401263022,0.0169758204118229,0.0153097200477706,0.00230730488849411
-0.0221810647530486,0.0207928622768161,0.0181387752868596,0.0032983595993863
-0.0157088844114906,0.0240895134740066,0.0171454749385024,0.00367053245920508
-0.0151287184882934,0.0243887267775824,0.0145177752442309,0.00298748508232199
-0.0218546920033455,0.0256379441184275,0.0106038750878211,0.00172559162645344
-0.0328908992641975,0.0298198995361956,0.00558563160457413,0.000407171090349643
-0.0468312190629483,0.0289422851059329,0.00206856389910766,-0.00084249874594907
-0.0538351806408051,0.0205765761048847,0.000997609417550536,-0.0016984885814622
-0.0426108726708254,0.00860805518244641,-0.00260523090577186,-0.00167700395390528
-0.0224054085839452,-0.0042283083864183,-0.00916735716748455,-0.000743808801036236
-0.00826931833503226,-0.00842849138195259,-0.00617770064023755,0.000928001504380194
-0.000408714386359029,0.0010212104432506,0.00549286288564866,0.00325966865623554
0.001590841400702,0.0109608525928538,0.0102045917250227,0.0050781482297854
0.000520039953599919,0.0168995343676889,0.00622497276105423,0.0044183803736681
0.00585560265996991,0.0198223453940061,-0.000377533806842958,0.00131534482309772
0.0164116323820102,0.00324683937334605,-0.00785766203448537,-0.00230732936925184
0.0244978572763618,-0.032027977456228,-0.0141651417697343,-0.0048910977778901
0.0298818164678994,-0.0485984605101074,-0.016295596965038,-0.00596384288152587
0.0281458216219016,-0.0194607777671967,-0.0103016949162599,-0.00562758338655556
0.00702986558226808,0.0313773599386978,0.00065251494926679,-0.0039155288408419
-0.0292735068673063,0.0589016408207016,0.00500748833294806,-0.00142856402581328
-0.0574771547438918,0.049594912282496,0.00221898804311086,0.000424993921067729
-0.0622087323288574,0.0175389969124669,-0.000611543248640763,0.000904920562182003
-0.0506405517764026,-0.0170149867723956,-0.00418219665028976,0.00054265450689301
-0.0363373994762837,-0.0308893069289614,-0.00913660554437369,-0.000122174771886619
-0.022930995923142,-0.0194934169027603,-0.011025543707899,-0.000669651147234441
-0.0142413761820808,-0.00277916803565189,-0.00769389980086247,-0.000520068851294667
-0.0175009598641378,0.00414436028425375,-0.00443786283613987,-5.62887241913729e-06
-0.0211712708242073,-0.00138034447794776,-0.00786557635888733,6.47918796754523e-05
-0.0043243244305991,-0.0121894858656557,-0.0166071102327608,-0.000350917057565958
0.0281518452331343,-0.0189905329888494,-0.0235704314094385,-0.000458088641738505
0.0524930974401263,-0.0270482906336285,-0.0247783109065828,0.000543000421076343
0.0559183175963826,-0.0342187224679095,-0.0204227485810109,0.0021923068855063
0.0453529162292205,-0.0273279727357078,-0.0127301505706144,0.00268960145088807
0.0344512674680677,-0.0130135841774684,-0.00525433155736478,0.00122132126316106
0.0273278697760471,-0.00631318665148625,-0.00190299054397699,-0.000842544157913234
0.0202047430560303,-0.00835789724293747,-0.00316347930031072,-0.00223396850293953
0.0126845604139474,-0.0125271753993992,-0.00295164511105561,-0.00274596780676068
0.00799602430646822,-0.0136070333012107,0.000383672855435883,-0.00239988110907556
0.00715572632393049,-0.0106068842007292,0.00275567406514082,-0.00140205568163048
0.00223125539307368,-0.0100434651375296,0.00314293523924348,-0.000222556674975647
-0.00577472860021645,-0.0154776985447553,0.00556447469185108,0.00053294939539944
0.0033892870193599,-0.0169086287516696,0.012466702442122,0.000740491538588519
0.0301775779084135,-0.00863231123806807,0.0147206939304767,0.000909715306675955
0.0498906134939973,-0.00240499390396541,0.00626216958777492,0.00115589880233987
0.0532187750533396,-0.00898246304862926,-0.00293496107743229,0.000814699168592016
0.0504444413952914,-0.0196626722785848,-0.0042649574586734,-0.000204841174277307
0.045696491493036,-0.0228573762258373,-0.00144905351268225,-0.000619160320258473
0.0338239813347318,-0.0251696082572918,2.88485483076178e-05,0.000478668526348378
0.0206903393750607,-0.0372352738940836,-0.00091373159431838,0.00229800689925954
0.0185954414846189,-0.050410377601104,-0.00125412970238982,0.0034705347083346
0.0194346363419621,-0.0486089053738146,0.00166052077208769,0.0035349061116666
0.0054542671221958,-0.0379416247591154,0.00264051757454592,0.00305339794498108
-0.0213407527556929,-0.0275120168849463,0.00176019409347245,0.00270987003794104
-0.0449670294118721,-0.0117082451240792,0.00576616035830586,0.00299499037940992
-0.0439778045805102,0.0100475256579488,0.0115821548212038,0.00378871141472034
-0.0117047081052174,0.0308734332277632,0.0120616127087218,0.00418480305045686
0.0256629512979211,0.0390992875170268,0.00505180360244789,0.00343766669438488
0.0504863746015883,0.0270880015025262,-0.00289831769161079,0.00147523530870559
0.0705350018748181,0.00398796752922194,-0.00386402456683913,-0.000699398642037405
0.0850909664964383,-0.0141403554789474,0.00182793863457296,-0.00144674725549952
0.079430785486456,-0.0209495476210599,0.00978734580661902,-0.000490712607804766
0.0541822145832143,-0.0183144797484317,0.0157539751860686,0.000779741834567229
0.0302252347731886,-0.0117236866479213,0.019127567250967,0.000900285080296026
0.0189801424866844,-0.00839675947005608,0.0196312635616849,-0.00041405648659051
0.0137990164310193,-0.0076891095140027,0.016724856827477,-0.00203411475622208
0.0078975349545835,-0.003509228923542,0.0138766626713091,-0.00260536092351761
0.000572945699705323,0.00432264147124304,0.011418710535963,-0.00189166746741243
-0.00651871898778961,0.011573687646045,0.00756112740402549,-0.000589445985114585
-0.0148332965850802,0.0130336801303299,0.00509839139133323,0.000710591734082708
-0.0250907271430244,0.00693586976941342,0.00531406587025042,0.00159158861007071
-0.0317748269099694,0.00342057919000899,0.00664787254764962,0.00179601161827797
-0.0329416655996073,0.00828178933639401,0.00485745377782586,0.00134833979729499
-0.0304252323751757,0.011795980224417,-0.000604465839142296,0.000504015705392365
-0.0250675922245877,0.00760859029476629,-0.00223413976532653,1.0852871381751e-05
-0.0230410308417024,0.000126442398907745,-0.00052959940214515,0.000697938552233671
-0.0286932229723778,-0.00589734877108256,0.000416468795782816,0.00250837553987809
-0.0350198121437535,-0.0104912587892147,0.000965003126038927,0.00396690679389309
-0.0374583522751324,-0.019560145262534,-0.00172566857907572,0.00381173820877501
-0.0373975471455352,-0.0260708206644823,-0.00756186142961513,0.00238859685546537
-0.0354567465599563,-0.00859578600067784,-0.0102786901497362,0.000485768641530942
-0.0302771602375691,0.0242235596452004,-0.00632104284952971,-0.00139962617690378
-0.0201517076401901,0.0421059169615532,0.00209751460618258,-0.00294539143160656
-0.00682565833748529,0.0402346071124437,0.00865847004776002,-0.00378201826648642
0.00506778509956533,0.0348673690619873,0.0063713909321022,-0.00400402599926042
0.0120930586511981,0.0372489180339007,0.000359769473878922,-0.00412444492242273
0.0123915142097069,0.0474612020810843,0.00118642252636459,-0.00368680874618205
0.00700209089170228,0.0557165656505585,0.00265739300816466,-0.00191023689435024
0.00548788098695089,0.0470111811767982,-0.00443472555311989,0.000639108790870806
0.0120101093688155,0.019307927700592,-0.0139682835536997,0.00227619321985306
0.0175405253279423,-0.0059619957550375,-0.0193359361456199,0.00197560532977138
0.0107626294620692,-0.0114765798733449,-0.0184045348686062,0.000409458008566619
-0.00947848268759806,0.000518923108182471,-0.00869381091452329,-0.000529452008026197
-0.0340991869344446,0.0194000834994126,0.00210762381598444,0.00047414792395256
-0.0544753067530587,0.0296454865800156,0.00387774020664523,0.00223585023332297
-0.0552435892977832,0.0286186864523803,0.00119912409752561,0.00274654850613752
-0.0290446468160336,0.0249057017049825,0.00200725522799546,0.00179091557972062
0.00321077069457992,0.0197483439331324,0.00430751799281511,0.000433798488920176
0.0187124981418595,0.0149605039955075,0.00409928496644863,-0.000359352897157974
0.0183155770682051,0.0144576514312533,0.000108233150627578,-0.00024624543358461
0.0164398885878195,0.0128363523509815,-0.00569581066954645,0.000221319963319947
0.0188721212649378,0.00517339924891726,-0.00825366168792957,4.18083324343351e-06
0.0221900733392285,0.000410952019074336,-0.00633576764568256,-0.000801418688923535
0.0258375293618286,0.00369933505305918,-0.0054984611236873,-0.00103233305996596
0.027161533208272,0.00766374770545443,-0.010767470295614,-0.000131019711506619
0.0206096057063061,0.00983863606351872,-0.0201201501412009,0.00152447209478959
0.0147175408570196,0.0134761496201785,-0.0251681439174367,0.0026249062140238
0.0252840601730542,0.0174913123719203,-0.0187716697794031,0.00247289911084275
0.0407479055844163,0.0175604217757121,-0.00950870991220935,0.0024658136407311
0.0372728014042915,0.0155176135122286,-0.00537908732181615,0.00321264090153707
0.0195017570764113,0.0179342810456132,3.69945418141442e-05,0.00324320563074426
0.0032715569519444,0.0284748582989736,0.00841539529002233,0.00183770485608624
-0.0089189700335963,0.0406602253831019,0.0134409557531071,-0.000280509076467175
-0.0175035955586482,0.0407412093115529,0.0134567907932892,-0.00235167460747199
-0.0172087587317775,0.0299959751712053,0.0138396703314282,-0.00397556726318724
-0.00808058542615441,0.0205410785333062,0.0151872854198714,-0.00468946704058307
0.00287822930323794,0.0226626878084649,0.0181498258382116,-0.00399308985716999
0.00962792881486101,0.0377633965251865,0.0247526783145145,-0.00166021855709957
0.0109969866615408,0.042937395491538,0.0235400812607314,0.00190413609136238
0.0147032194957397,0.0217882502437465,0.00896494366176778,0.00476125031929379
0.0253353223533179,-0.00194038022393139,-0.00422037997987754,0.00466946580203439
0.0369879334283398,-0.00878597535351895,-0.00657067192704495,0.00201402991173256
0.0473141816816117,-0.0202594401273754,-0.00540089235961299,-0.000801363910222459
0.0573156608696117,-0.050235740159427,-0.00867073611068533,-0.002405956862463
0.0577717160659266,-0.0674914995596259,-0.0124110650776428,-0.00300501446352137
