0.0264631056822604,-0.00979495991282379,0.0019569778685983,-0.00268094417836469
0.0144020504911713,0.00753270051204826,0.00497507490351515,-0.00316290470194036
0.00813303969528527,0.0222456381128071,0.00865414852377367,-0.00375349345935449
0.00600793913503636,0.0295863566786463,0.00980085739835868,-0.00422085883372522
0.00629332423731117,0.0323348946415799,0.00961770013040215,-0.00443188843927308
0.00658035553113747,0.0324240760284897,0.00952635741777632,-0.00436268548895921
0.00622131997626826,0.0297927883831539,0.00858447437733605,-0.00430839403397874
0.00655878626974085,0.0263833674233324,0.00626868063731063,-0.00441551602888223
0.00716527187200381,0.022901106179135,0.00464214175935907,-0.00466752722924167
0.00686797466613499,0.0190358109177962,0.00447780028211468,-0.00506587398432832
0.00675774341273802,0.0155169600225729,0.00377457504443139,-0.00538897635460285
0.00772054192631319,0.0118027633934136,0.00307329193400443,-0.00536803614920754
0.00891026112246159,0.00719357291951881,0.00286817946279323,-0.00514651814485422
0.00913480250995522,0.00351735314021711,0.00319061704704589,-0.00510614945776581
0.00865901910172085,0.000780467619365312,0.00332022504700771,-0.00542185965127281
0.00770847614400674,-0.00200568169163734,0.00198303515904635,-0.00586873625362653
0.00699398040492635,-0.00393610381414501,0.000539062479648382,-0.0059591743588396
0.0080083115570552,-0.0055679898939029,-1.10402902993934e-05,-0.00560053286599119
0.0083804384571616,-0.00783445744321283,-7.43509459749233e-05,-0.00526363119918179
0.00688075983121346,-0.00924711866057111,-5.56427523875991e-05,-0.0051273129680485
0.0076975308648843,-0.00857557562935415,0.000817715181758269,-0.00492211713310784
0.011737363224267,-0.00658633108906436,0.00369024273578572,-0.00470932009358716
0.0152565798726321,-0.00417006120844247,0.00621027516674016,-0.00469743547925367
0.0160772175352725,-0.00242074174854198,0.00576005461731343,-0.00452298908601685
0.0152996855607744,-0.00245399557319223,0.00441830072137767,-0.00361345905189994
0.0147555824437147,-0.00358372425043078,0.00386956689341836,-0.00224256740773124
0.0139996756466914,-0.00447072692751892,0.0038817230924426,-0.00101436818368942
0.011846291620642,-0.00494275655694476,0.00352567788175599,-5.72320468414703e-05
0.00911636362341296,-0.00483867093462848,0.00287590839648529,0.00058814001537481
0.00720063180128352,-0.00486082314012112,0.00244396905586711,0.00107118859068118
0.00587177953125257,-0.00544807613612168,0.00201395830692319,0.00142444482096507
0.00505324083718993,-0.0031466573988952,0.00247147048009873,0.00156208810296927
0.00326973834101262,0.000706412567681145,0.00277599504740972,0.00175620825401292
-0.00147449864848485,0.000561826307656197,0.00220235858260478,0.00217068466337
-0.00560966656691108,-0.000190444327744125,0.00217197583395365,0.00263670772738697
-0.00644923579049737,0.00195474604038251,0.00310744877959363,0.00294222450160286
-0.00676461989899053,0.00288286301973599,0.00337353636062833,0.00312725973764601
-0.00726982066684424,0.00166520242068713,0.00247669858250397,0.00323813303906324
-0.00721062272293484,-3.63280960887684e-05,0.00207070126358432,0.00311283468627566
-0.00614800896546062,-0.000366711197222098,0.00240329078157165,0.0028602180274677
-0.00312203006583705,7.59668114318969e-05,0.00267153926876392,0.00268737529471518
0.000333405761203897,-0.00650603515345407,0.00232017558876635,0.002396722242402
0.00424664086464529,-0.0175615622158667,0.00278445458489019,0.0020487997782202
0.00832586909904108,-0.0182425180834391,0.00450792880535242,0.00216699330139897
0.00893073316234696,-0.00757629430920497,0.00548996427420613,0.00290283680767452
0.00728459867435511,0.00264196566723094,0.00575595443336227,0.00372823233303551
0.00550197837185584,0.00733873297100157,0.005742339159583,0.00408996818992326
0.00216526340652596,0.00924316630757071,0.00520119596449616,0.00405256284443075
-0.00089750824240313,0.0108412258167885,0.00451470351404635,0.00393878510038085
-0.00194813810096583,0.0103395091070961,0.00410878706498125,0.00393011258398829
-0.00227523080194322,0.0076231568894969,0.00333609670024501,0.00388730232124826
-0.00291544467275799,0.00589867195987155,0.00180151547280812,0.00371031273673058
-0.00402176469585216,0.0049051487976589,0.000329535727251007,0.00344841889574929
-0.00368229882883347,0.00394182964467473,7.11471058199157e-05,0.00305846957052956
-0.00362570602845588,0.00260096287529231,0.000963474775708888,0.00264559903917606
-0.00622170795931006,-0.00101397530016961,0.00278881245454805,0.00214739304785952
-0.00796166253326012,-0.00433650710834441,0.00422925202402221,0.00132249878355321
-0.00798055144882659,-0.00504794388826448,0.00331537937345726,0.000239711099081499
-0.0074105103511155,-0.00505290383833408,0.00253860961990711,-0.000685554187623031
-0.00578456836217614,-0.00483284255044333,0.0027336346415276,-0.00107444496601715
-0.00362906777593892,-0.00348057921295586,0.00199860804574442,-0.000675849004774928
-0.000887947165473339,-0.00149854780589207,-0.000305189102345328,0.000629898572837798
0.0027277752475006,0.00235395247416818,-0.00205561102400639,0.00246211129874646
0.00549444881002059,0.00810007270891355,-0.00132467829304393,0.00394827964748412
0.00708851783157332,0.0134306472271524,0.000490081038212329,0.0041214115912213
0.00955292849067926,0.0193094810583733,0.00374853249177838,0.00244095549832725
0.0109629991078537,0.0208054964460497,0.00836649022371535,-0.000924928665538774
0.0097296994459554,0.0196339905871187,0.0145933306790081,-0.00489939528276583
0.00982420533046893,0.0229694102645635,0.0205033108292317,-0.00722300045874387
0.0134041650082378,0.0161963598849631,0.0156004054115899,-0.0057745389025713
0.0218453434209624,0.00301274517582468,0.00454814966306803,-0.000915022230155042
0.0338697840195694,0.0123120793735804,0.00883096506261892,0.0039781476310312
0.0368561028392338,0.0257491049424872,0.0233869305671259,0.00506954565863673
0.0256354326150251,0.0100399296490579,0.0246461127421104,0.00175438925773984
0.0111752450617823,-0.0104485322730072,0.0128930437490829,-0.00300474608489397
-0.0029874051651402,-0.018718379194855,0.00350674100576529,-0.00570559280263555
-0.0197739173431173,-0.0446868180339773,-0.000762641259501901,-0.00517992926070859
-0.0344138018427482,-0.0841172219984131,-0.00329019839979824,-0.00261018666557206
-0.04420713915167,-0.100988554488776,-0.000442405218038774,0.000656758701182381
-0.0549316117372304,-0.0855427967310965,0.00954778309641886,0.00395343732741774
-0.0551760044390165,-0.0514570348876171,0.0191718835429318,0.0062217713320675
-0.0258847515877787,-0.020187586576874,0.0212527988952083,0.00585836496235217
0.0133364092495234,0.000274700435164255,0.0191639988377074,0.00244306915399011
0.0305417340738332,-2.38854352767326e-05,0.0132772026795876,-0.00244269091644413
0.0227688704120783,-0.00421259888051896,0.00271208744779103,-0.00600339667579611
0.00576536944308583,0.0459001404046052,0.00460318527138972,-0.00649944301659203
-0.00444305657969319,0.127552101140154,0.017929464286142,-0.00504551975229016
-0.010809119217296,0.171774666677812,0.022527240146439,-0.00354686205795374
-0.0189361071822521,0.154671284116383,0.0226682664357133,-0.00217137831473497
-0.0116952010919691,0.0756237822685733,0.0238667229587427,1.30205296761596e-05
0.0117145492595627,0.0233641301780974,0.0276951525165634,0.00272542169703841
0.0338914633439898,0.0525664521987416,0.0355514593285475,0.00342314857185773
0.0608982147128884,0.0490967914852465,0.0292129463086166,0.000749247432169782
0.096644614191871,-0.0417673601186885,0.00192433579867554,-0.0020912133840432
0.118180749069858,-0.13299679774164,-0.0264905064620134,-0.0010822305774062
0.105122956551478,-0.156368046364413,-0.0418189682580628,0.003586735290694
0.0595726626378689,-0.127675902523519,-0.0425708010686979,0.0080801648510207
0.00153735537545538,-0.0876565728427631,-0.028090881025014,0.00940281045194775
-0.0482316002856659,-0.0665948321256317,-0.0117509374447475,0.00750425896896404
-0.0839757829257881,-0.0932455367339769,-0.0130291084579782,0.00379320580088928
-0.0978282818363617,-0.114337748904164,-0.0166250468762961,0.00041814010037514
-0.0843427063212401,-0.0590655479877903,-1.70736929247031e-05,-0.00207176620831437
-0.0689262405977233,0.0144935751627837,0.0203576963580332,-0.00504051954055513
-0.0653479124854705,0.0362397692853692,0.0261283278782497,-0.00762465969421709
-0.0360035032367168,0.0140178844498367,0.0226853674744887,-0.0073301240939463
0.0270206061769268,-0.0193964817020743,0.0148206061588414,-0.00399012615192806
0.0576284390450212,-0.0222107687266218,0.00301017195284104,0.000338477910153506
0.029877208121255,0.0220672630643109,-0.00518515815683024,0.00386301233998699
0.00765418460570482,0.0612495336666445,-0.00435391177270241,0.00597027430875686
0.0329115597046422,0.0492990414225968,-0.00526078783206159,0.00749015249632355
0.0736422735312957,0.0305995320770621,-0.0156848641588718,0.00955194505429954
0.0877332262248133,0.0475306838404706,-0.0272067908924853,0.0110752316667566
0.0780515520048337,0.0706595089117718,-0.0340165950872045,0.00986368278832801
0.0787601128946834,0.0684531695207997,-0.0359155152697907,0.00550568837266214
0.100731100732445,0.0363404247472584,-0.03814355542552,-6.89846189194827e-05
0.104796736576695,-0.0129533412334981,-0.040612301348115,-0.00378169913087838
0.0335421797738837,-0.0429453697369484,-0.0293837711361182,-0.00445560533890669
-0.103785484387122,-0.0347357059649644,-0.00631087753042287,-0.00342890773319476
-0.204703956335864,-0.0155502456782677,0.00871296823188447,-0.00159065426178547
-0.199795493908311,-0.00902264295039765,0.00793826559156758,0.00087713093684473
-0.142038649657963,-0.00382870285977906,-0.0013092391771116,0.00321414719216102
-0.0952426159824363,0.00717320795376904,-0.00833447561341453,0.00453492756002484
-0.0563540176863921,0.00829227508114459,-0.00855609446513157,0.00454363763170886
-0.00516999813146973,-0.0264516681339889,-0.00642706158943757,0.00345551877721625
0.0561437933314783,-0.0913458389591026,-0.00428512979184879,0.00137918608458122
0.0849681172850277,-0.112117893279394,-0.00800017399291742,-0.00159188835758988
0.0631461775033429,-0.0469381008243555,-0.0227928346840134,-0.00455229291080834
0.0381878551559131,0.0363377006404084,-0.0367027793984742,-0.00609988707265561
0.0354514646964074,0.0679551464759847,-0.038016041682401,-0.00562717793977537
0.035659550414147,0.0689817442377976,-0.0280970863362301,-0.00389414878501737
0.025651901680454,0.083417335987666,-0.0150613154505189,-0.00209626216619164
0.00876009163325238,0.0988407748584339,-0.00598098952229354,-0.000927050469612774
-0.00857541195889103,0.0946155367548856,-0.00159177788164764,-0.000450614910398674
-0.0243063189825917,0.0906345614416733,0.00201215304661685,-0.000108152786163667
-0.0377543182274764,0.10004386307383,0.00920294755990076,0.000485045293885843
-0.0500816348117906,0.101704185709834,0.0159896933399653,0.000894108126194348
-0.0585597353960144,0.0870219211403,0.0163344107395974,0.000692676766737799
-0.0593038644651639,0.071718227462144,0.0119465128228372,6.84583353099814e-05
-0.0564196697875876,0.0538766175501585,0.00653420650031255,-0.000808946070209358
-0.0498061002572616,0.0074054030087562,-0.00354655973188938,-0.00213738938266362
-0.037161985317926,-0.0444315083557485,-0.0207644773561351,-0.00367648030755404
-0.0236560053746273,-0.029395973182968,-0.0285157284884072,-0.0045157931478384
-0.0106044616190646,0.037228492914853,-0.0153145329774424,-0.00454489158319921
0.00476537834370067,0.039423343158012,0.00131441044690016,-0.00494640995106221
0.015108953229989,-0.0590062911741321,0.00576107869543563,-0.00610695656722973
0.00957799499146555,-0.121003636360175,0.00699154045090561,-0.00641112774593228
-0.00541387321770616,-0.0547148386456947,0.0137615414022374,-0.00469952179773083
-0.0150169230652737,0.0405905426298244,0.0177390825030859,-0.00238956102632102
-0.0159337223039483,0.0741494184466876,0.0152999662291443,-0.00161346714998438
-0.0130034729734043,0.0697814056086818,0.0152221806512585,-0.00266915523270116
-0.00694152757897776,0.0552238894174176,0.0129504702036536,-0.00416117079402511
0.00326762576428405,0.0223456711803871,-0.00316418496465751,-0.00452300527203517
0.0115093186737531,-0.0143962100720253,-0.0222855314616545,-0.00289740417076647
0.0106224429625102,-0.0226926494304501,-0.0254565740115734,4.66801657492744e-05
0.00192055560992326,-0.0153900849222482,-0.018322762826266,0.00202594396920248
-0.00493708226024794,-0.0182143384076657,-0.0179167777637271,0.00219950023686951
-0.00241809020007655,-0.0119355360882397,-0.0140327942763228,0.00205542541595448
0.00443013789027522,0.0102897018731592,0.00421369138103446,0.00159123568843525
0.00705029651801061,0.0138676441126987,0.0164829635160154,-0.000554398172122092
0.00247394333876263,-0.0133222422319503,0.00946317746166419,-0.00333902677291735
-0.00797734432902946,-0.0386675133520765,-0.00177677613741175,-0.00386324900569211
-0.0122699413293466,-0.02816720356649,0.00153578043870755,-0.0020602025573092
-0.00332503600085124,0.00152719274640296,0.012770450704493,-0.00110031115337547
0.00574055531069993,0.0114836629054191,0.0151608305362587,-0.00207926630117537
0.00631049189108274,0.00159634968924125,0.00946891377696597,-0.00306083271973168
0.0051563173239107,-0.015417192717356,0.00213506166066361,-0.0026146378713614
0.00838192337617462,-0.0350637294013057,-0.00186512034087376,-0.000941763170753504
0.0156726622056372,-0.0481297303935221,0.000852017790518188,0.000918168475021227
0.022938877330192,-0.0598936547970061,0.00184365743243125,0.00242147437959157
0.020185843409494,-0.0731575091492834,-0.00654881454608785,0.00392569274768482
0.00870345835384014,-0.0615491584921495,-0.0102564431937066,0.00477840231275416
0.00440650039129714,-0.0248884279841943,0.00304055946412783,0.00307275972459135
0.00505366820104186,-0.00224068021738755,0.0175467936702861,-0.000974830278837199
-0.00158085115703748,-0.00632827129340512,0.0184378836588803,-0.00449199459430234
-0.012881379071247,-0.0116048114740238,0.0126140053884915,-0.00548402580541204
-0.0177742791702866,-0.00398478951309703,0.0140916621345875,-0.00374579464487311
-0.0137618280845488,-0.00990399742178871,0.0300258331899692,0.000215601671172178
-0.00548231029252101,-0.0467471726514433,0.0429088774903135,0.00499762547378972
0.00762005513688778,-0.0723226352181506,0.035243063399961,0.00849078821901043
0.0166012684882941,-0.0480602488260944,0.0190364024643071,0.00895623513318096
0.010896500243692,-0.0125356450676526,0.00185240659936214,0.00651542283277498
0.00506575069651624,-0.0172312460040275,-0.0193661620919396,0.00348980797298905
0.0106479803555484,-0.0502641987891554,-0.0331340796194371,0.00162786365351973
0.01200915917715,-0.070000592097598,-0.0281891116407539,0.000359367076880463
-2.8804988275323e-05,-0.0568148257783525,-0.00787293454318172,-0.00158895094261144
-0.0100213504960964,-0.0273146377547579,0.0149482265786529,-0.00444793364830198
-0.00462793952701615,-0.00597806471880483,0.030197260553986,-0.00680618485295401
0.00671325830343151,0.0156174031274613,0.0392203828911494,-0.00714716566626363
0.012338689346479,0.044375934680427,0.0406465611828458,-0.00580275749619608
0.0208951005621421,0.0629372387382204,0.0324563621114356,-0.00401558703648922
0.0318230614524996,0.0690085624897531,0.0198198009344683,-0.00230129336821197
0.019063533654018,0.0749154525844599,0.00711628268014786,-0.000590030388791523
-0.0271895120906105,0.0910468759482531,-0.00197824432399103,0.00199778329838629
-0.0687680674789093,0.11169432611612,-0.00420711974654914,0.00612019491963794
-0.0561426531802155,0.0984190789424897,0.000805945219471478,0.00932795500929307
0.00316252966858464,0.0172313409819012,0.00561371227988413,0.00755667010850808
0.0682107526255343,-0.106762693837399,0.00293318344121259,0.000322728871690241
0.107676199725949,-0.19772942040348,-0.0016301759504579,-0.00668704425857254
0.08805959087081,-0.210415316605377,0.000733572922687034,-0.00653457683205083
0.015484204197504,-0.163154274670541,0.00799592411757879,0.00140123742104335
-0.046960507310888,-0.0871903547682672,0.015224340214121,0.0119195716210437
-0.0502353152587895,-0.0206184811405374,0.0239575317883648,0.0173967066059697
-0.00417974780696906,0.00181276858214816,0.028368267227977,0.0112527437745934
0.0481389403552864,0.00486538685146719,0.0181599182661902,-0.00395062171344623
0.0705118406773982,0.0323238787217439,-0.0071974684762524,-0.0162822521407625
0.0606685620898973,0.0620418631784073,-0.0363094271028681,-0.0167129514230006
0.0353536868394124,0.0597352742784675,-0.0517593086629286,-0.00722871835412947
0.00592919256207983,0.0362791906331176,-0.0493350481484296,0.00375459800036313
-0.0115272869148856,0.0121598436116409,-0.0376995400300492,0.0102799195799551
-0.0120231493961573,0.00188151656011919,-0.0202087547722898,0.0105347329771038
0.00139308833593639,0.00381309009185963,-0.000746646586274165,0.00449643553322527
0.0240456496081089,0.00124519894225638,0.0102052174044149,-0.00477151747910386
0.03753828304146,-0.00308295687595015,0.0109769451451673,-0.0109582268890245
0.029404475995021,0.0131996749181809,0.00944632204134821,-0.00951707248270165
0.00614122404923731,0.0476024251721684,0.0104436904921462,-0.00347650186850278
-0.0134518192864039,0.0687955426705479,0.0123278931147186,-0.000335572888657125
-0.0181078130842223,0.0573743574188816,0.0105934465501804,-0.00131912505846129
-0.00161339689405306,0.0111795020835965,0.000983746212922382,-0.00149757674394378
0.0290546969556791,-0.0484807609231106,-0.0154201754595045,0.00132182972234717
0.041911643830977,-0.0726657914384592,-0.0297069051213836,0.0064760498631701
0.02907955308105,-0.047928844199856,-0.0360305842419131,0.0136678356869157
0.0125779270820085,-0.00909587328101001,-0.0382537505912136,0.0208803483082214
0.00396617701468201,0.0140764526507318,-0.037990639770507,0.0233790810693774
0.00073767771439916,0.0161054411224626,-0.0332406123947628,0.0191037413242944
-0.0225004545397109,0.0210625257479351,-0.0258276909163263,0.0113875636716202
-0.085371458718127,0.0338659407997758,-0.0186698614351954,0.00399768628339293
-0.136281443096872,0.0195296668742998,-0.0195726895768228,-0.00130376213596143
-0.109562982256037,-0.00425358578952623,-0.0216710209528044,-0.00398636964686051
-0.0137528250921331,0.00273345324995766,-0.00625340457362181,-0.00496066468973191
0.0955953482474487,0.0160038893175545,0.0153214779328147,-0.00558794285964986
0.163206894069843,0.0130948512040435,0.0214557098125829,-0.00646011118475577
0.171908484409146,-0.0318194644373768,0.0108678914225295,-0.00732207279069635
0.138545963754161,-0.15387150876744,-0.0103819714020434,-0.00650391750395731
0.0866872936270545,-0.208108766335604,-0.0244523169787575,-0.00209032964486073
0.0551711144896542,-0.049156456009933,-0.0133056900901713,0.00300346153983727
0.0487244563295471,0.132680106736802,0.00469568760666913,0.00306843849790834
0.0222398920256209,0.148866664831279,0.00596531941996982,-0.000865258394011813
-0.0473882450887035,0.0945158378369545,-0.00562186864848298,-0.00268974382036895
-0.127385959091091,0.078375226322612,-0.0199767702217837,0.000140146454365477
-0.155096790435602,0.0844416307300198,-0.0257671065509193,0.00540121581355304
-0.119869968926061,0.0550282194267883,-0.0210691139981902,0.00979666108356881
-0.0733963066440325,-0.0767519218013858,-0.035149941230224,0.0126511411096953
-0.041553150329013,-0.21094424451672,-0.060243819964533,0.0155569304542924
-0.0163364521948069,-0.121114079593987,-0.0364771327234985,0.01590000840416
-0.00412560813179112,0.0795507613537438,0.0160922220677731,0.00770342800014411
-0.0055846957638789,0.125321928842713,0.0323114525686673,-0.00611987611835557
0.00543360144315656,0.064315843382064,0.0216889684786964,-0.0147943285230492
0.038619918365565,0.0258451205918521,0.0151049560632539,-0.014082978332898
0.0659830470903899,0.0113490339083045,0.00979042950535145,-0.00856396565995956
0.0632485887637105,0.00090072610086666,0.00179377873766135,-0.00306548871728596
0.0410838478111871,-0.00749803888106781,0.000977124490953816,0.000436668288179324
0.0195328861100466,-0.0291938422452598,0.00344621922026176,0.00105965079609066
0.00484725376121545,-0.0845703366413774,-0.00665308996583954,-5.19146908343031e-05
0.00109690018783357,-0.100822497654052,-0.0157166253174797,-0.000340004450394524
0.00660842158505308,-0.0207384224861863,-0.00484090934209808,-0.000940229421194307
0.00858396394043799,0.0418652460643434,0.00661239439501739,-0.00479624449599013
0.00294771783194551,0.0201674070711768,0.0047141158656348,-0.00954134011668075
-0.00452507522950444,-0.0116029448661949,0.000372233980355727,-0.010898624173749
-0.0145026927178319,-0.0138031226594263,-0.00211017161217419,-0.00892854269837636
-0.0244712648880534,-0.00874943646950878,-0.00441259595361734,-0.00605483698757553
-0.0247104226039825,-0.00834958724876644,-0.0060658529170422,-0.00375956315748623
-0.0163739045814305,-0.00437511622489439,-0.00464661391641706,-0.00261803035671603
-0.00864949488880189,-0.00711129777283799,-0.00478415774980035,-0.00302795575601651
-0.00425329962353113,-0.0210454618578497,-0.0165208933758002,-0.00427782845551075
0.000321335548537438,-0.0110821108708947,-0.0257071811926812,-0.00480020835874943
0.00413468004911277,0.0221396646714015,-0.014914531501295,-0.00445076756117712
0.00460602333644643,0.0339504460680403,0.000507757044638818,-0.00434396214415905
0.00287874632071424,0.0220345956454756,0.0064575221828258,-0.00463672349354203
-0.000767117987651261,0.0162858798264757,0.0109258842584139,-0.00475603671980681
-0.0042128906049624,0.0143465345077858,0.0192843384994876,-0.00484884420466987
-0.00641263640582871,-0.00787288940450642,0.0236372208017027,-0.00483169859958402
-0.00823273105388736,-0.0235097960660862,0.0203548706647514,-0.00387317139010094
-0.00840704573586417,0.00383813368997135,0.015443770791022,-0.00254575571316746
-0.0076470783308091,0.0366593750074766,0.0112000665792144,-0.00260501046469065
-0.0066529267310788,0.0384834652012484,0.00699397751528052,-0.00398449526856435
-0.00620191997916783,0.0237370082998512,0.00332088312566161,-0.00493337133082062
-0.00758028329237417,0.0103285524195761,-0.000711729163358545,-0.00450322192297034
-0.00994069449843833,0.00427440675641531,-0.00481436775012677,-0.00310108394874765
-0.0124668985880986,0.00758183790682736,-0.0050979859848083,-0.00172001708244494
-0.013908672002399,0.0188290594969501,0.00107615084141684,-0.00106474905876836
-0.0122617595115932,0.028645833988035,0.00937107763764087,-0.00128083957777824
-0.00685410020900037,0.030997039695335,0.0139032588601702,-0.00242723009077906
-0.00187225409540538,0.026880093481539,0.0157472135381691,-0.00389204054559996
-0.00143550326106684,0.00283049042813286,0.0130989894092206,-0.00427796512569403
-0.00370981033625389,-0.0458767659853764,0.00155886722340364,-0.00253925544429048
-0.00424633283460155,-0.0570019121737917,-0.00633806609111769,0.00138313152099809
-0.000716471276577819,0.00612595242033807,0.00165345201620385,0.00509979387278638
0.00144516280956455,0.0656702746121101,0.0131826415237533,0.0052890201770108
-0.00163256607754004,0.0678275444089112,0.0165709595016408,0.00256098075368076
-0.00550079449008343,0.0429917188116251,0.0165508946330662,0.000282635615387487
-0.00860254446762045,0.0187610709856368,0.0184834555794563,-0.000222480009560014
-0.0109587798131857,-0.00622385074305686,0.0191266707211949,0.000502588127048992
-0.00976470617821006,-0.0355979508857031,0.013411033549979,0.00200609096252992
-0.00262451766402275,-0.0636348725475128,0.00581305496290058,0.00337106338167386
0.00656594304871228,-0.0816336714523872,0.000381597937243208,0.00358785287613033
0.00693796586635214,-0.0765737461149516,-0.00258057731176458,0.00289413477505215
-0.00248785720859628,-0.0484370860676126,-0.00117996851836215,0.00210621468004011
-0.0134179732126295,-0.0155188330283775,-0.000216088352503458,0.00163689136493383
-0.0230413144325944,0.0100721126178477,-0.00119588807035686,0.00155756670317975
-0.0284836408120419,0.0325697462613487,0.00514572274439928,0.00180678368367892
-0.0264431122514057,0.0571571883639781,0.0169298068344266,0.00237821760226332
-0.0204441667612301,0.0738631351827553,0.0189090352117424,0.00304119179487964
-0.0138475918450427,0.0587970013382546,0.00512493019194592,0.00310508674733096
-0.00681936571403119,0.0283532709947749,-0.0121843505016529,0.00269073458092867
-0.00236085600996697,0.0387456952964142,-0.0124242154011582,0.00297022592941078
-0.00209514676466022,0.0631121996513039,0.00161860961761415,0.00406476221836498
-0.00498044340054292,0.0457960929226402,0.00875457677463236,0.00482702761578157
-0.00873332037034151,0.0251771955795756,0.0113054292462922,0.00469596885567861
-0.00424155860623567,0.0231381108929308,0.0161184802359398,0.0039956682263887
0.00272423118083297,0.00346079076880262,0.0155822919202504,0.00309501777257738
-0.0081551092482045,-0.0199480004599993,0.0103140219223411,0.0022478786280922
-0.0266884404076364,-0.0168062334785981,0.00468362896728337,0.00164731443722375
-0.0332002831097871,-0.012084820754561,-0.00279983010623531,0.00129710139018027
-0.031803360089752,-0.0158041370302703,-0.00823921933020124,0.00120130222654622
-0.0239578545746136,-0.010037643200249,0.000834711275134389,0.00114293300220547
-0.00639474970922925,-0.0160664644389718,0.0181793395515835,0.000612502791696411
0.00664669361843827,-0.0449451268237894,0.0184817770746971,-0.000203124372588504
-0.00169812359743581,-0.0804393812586477,-0.00607015491475498,0.000137776539850378
-0.0175254559014384,-0.0924386405839718,-0.0303164670561986,0.0028959376304239
-0.0179464509935322,-0.0357893895088553,-0.0235323157004178,0.00627992079537536
-0.0118866262533895,0.0656485585774427,0.00554967004945053,0.00666015175843876
-0.0121099528295522,0.144350578001986,0.0251491276338964,0.00347502858453848
0.00137274327060375,0.176550380027492,0.0229748152441328,-0.000828495316470547
0.0366570084846712,0.176115188010064,0.00764698537484506,-0.0041429090255084
0.0593717449251431,0.15848046866743,-0.00964421182146064,-0.00587779456877309
0.0568329128379677,0.12308421004348,-0.0226509897459535,-0.00622206420189095
0.0530808927505493,0.0455971806654392,-0.0285379398795249,-0.00481617007261908
0.0506406294963311,-0.0887963440726284,-0.0256975687798439,-0.00133053538228963
0.0410048796040385,-0.186947758114688,-0.012831878420964,0.0028651759565508
0.0252251742368894,-0.170690646137131,0.00347435104611831,0.00507519357332451
-0.0048686185254122,-0.121081048678613,0.0107127709326342,0.00424964110352319
-0.0501893731982094,-0.0987426519761318,-0.00108250880546846,0.00249837365372694
-0.0906358904925032,-0.0718938797856351,-0.0210183380258158,0.0025297114300682
-0.103570847881532,-0.0203320268265351,-0.0215528731610283,0.00445000513343453
-0.0987957338912196,0.0286605546839638,-0.00607759743766568,0.00572386377107311
-0.0992363812816976,0.03968431317427,0.00241366093163055,0.00427961533707765
-0.087914173834067,0.0301285581136829,0.008546449795546,0.000236451442292793
-0.0368208448784437,0.0256314239076471,0.01836955899755,-0.00533141161777834
0.028468168841268,0.0181496137074633,0.0209958459941174,-0.0107898445540679
0.0548722683464691,0.00287878239798696,0.0137266850822292,-0.0136503127070617
0.0536332483423761,-0.0178075553538358,0.00272598956718216,-0.0122319645187825
0.0800451960688368,-0.0285751448895915,0.00564370081008829,-0.00690138817912407
0.137802781578973,-0.00144898121968057,0.0306475947830133,0.000376275657803588
0.170903113171388,0.0453167283543548,0.0486931682714479,0.00671804207463292
0.130319662314887,0.0611313853759456,0.0324419636309207,0.00994500982324037
0.0389815048945337,0.0530981138894992,-0.000852052590597591,0.00987440106827059
-0.0240713508920428,0.0380722467261379,-0.0192165564419951,0.00674734251470019
-0.0344812397160456,-0.00225958937663054,-0.0232713320358428,0.00123310987433062
-0.0378406766441673,-0.03608340612879,-0.0236279931405083,-0.00372075745352804
-0.0482137435560196,-0.0343899557331525,-0.0175662067821004,-0.00558618545963472
-0.0383486402041394,-0.0341122585713589,-0.00858580920969644,-0.0049793362866951
-0.0093725206233671,-0.0519418555221204,-0.00570146864349832,-0.00367144557598937
0.00342989424058923,-0.0757378762200035,-0.0112497795853421,-0.00235130050677839
-0.00180182668642989,-0.0853453920442648,-0.0176758730522403,-0.000721409294849308
0.00113171366224583,-0.0477181032488352,-0.0149779006013899,0.00133521504723927
0.00846901330795138,0.019445582772123,-0.0053923039220245,0.0031986621059206
0.00698359509058661,0.0540044493046646,0.0035780966268057,0.00413576962639574
-0.00609861380089526,0.0392364787207137,0.0133353988985964,0.00391167725058658
-0.0253709183561401,0.00718517711378583,0.021141382339238,0.00286516218255276
-0.0343983945316682,-0.00401550928472297,0.0183654553978777,0.00162600412005047
-0.0257601516831977,0.0286722900628602,0.00631538575907531,0.000379683350846442
-0.000679757025353021,0.065209874105201,-0.00714452612834338,-0.000947626126848747
0.0296783653878747,0.0289453027575675,-0.0182308403498148,-0.00187361825806236
0.0385722858660515,-0.0473364126932855,-0.0219453798433437,-0.00163551011391017
0.0288332511624214,-0.0531240107444445,-0.00867436089576844,-0.000925888155823792
0.0344455794972765,-0.00430592977900434,0.00918544851108364,-0.00202715405423645
0.0635088383005469,0.00267836763434058,0.0110372291323888,-0.00481231502673419
0.0915646108688625,-0.0238785209465291,0.00326535781626626,-0.00585157345996086
0.0899554872486226,-0.0148295229666996,-0.000434849122556854,-0.00354003206123913
0.0592542005673591,0.0209823371561616,0.00208650631316929,9.78420727838422e-05
0.0237112930965067,0.0269116345883558,0.00282266677361327,0.00277090320029125
-0.00560189007512103,0.00172431432743717,-0.00454181854118721,0.00397502776009195
-0.0180712828670791,-0.00844554731393236,-0.0118659198032789,0.00414394550330394
-0.0036553326075685,0.0136566816248227,-0.0131671017192504,0.00340857715369755
0.012395085714989,0.0361285379721549,-0.0147136829454251,0.00198343863434251
0.000412410543670267,0.033998944143946,-0.0163692053230614,0.000826284218253024
-0.0206118513024534,0.0198901208282693,-0.0109366240813595,0.000551697174585119
-0.0135276122836714,0.00838621885088502,0.00198418329518458,0.000715001775137704
0.0145203593422587,-0.0145633931317333,0.0102008989896628,0.000646070291023084
0.0337173042534235,-0.0693463564630151,1.82288155013803e-05,0.000277015026115244
0.0310179803450969,-0.124751433577936,-0.0170728443252211,0.000176000182702871
-0.00161191771889165,-0.10960547796489,-0.0160509986138521,0.000403941682640045
-0.0606596239780492,-0.0283130981422105,0.00358280430910867,-0.000326257750792417
-0.118081049725963,0.0299265433336386,0.0179165347849489,-0.00260819181753275
-0.120993042552741,0.0190861529594675,0.0126411365382352,-0.00457794949825438
-0.0482329294196246,-0.0265226216477711,-0.001851739583609,-0.00444062975060851
0.050465506692365,-0.0628461951639819,-0.0098178281563901,-0.00266871363886615
0.122332444139866,-0.0776947693431001,-0.00633431251522988,-0.000767338339633671
0.148167995496752,-0.0757984962516268,-0.00142843716545282,0.000102005306096238
0.128341804317977,-0.0524847456401354,-0.00454501852679584,-0.000750853511766939
0.082189804031667,-0.00978623951819128,-0.00745518720379942,-0.00276422435706776
0.0406544749326526,0.0152989235475053,-0.00237935906906359,-0.00387596811130584
0.0184186378745881,0.00385107574735128,0.00267149264157014,-0.00297389666123092
0.0100319879677963,-0.0102104321903931,0.00282185720926083,-0.000801431296310839
0.00287229469697173,-0.00396174623116679,0.000437229159434976,0.00171553961179042
-0.0189366114245973,0.00758189895741989,-0.00904192675248448,0.00409689638995376
-0.0566699703444642,0.00794498184242512,-0.0215896969236416,0.00592193166238482
-0.0908036509150248,-0.00511374117795801,-0.0214316451012998,0.00630813952763013
-0.106247822260144,-0.0368219669625165,-0.00678455090611384,0.0051057056607022
-0.106061884415914,-0.0719316748318127,0.00775749238519557,0.003925382461986
-0.0931955822516295,-0.0367639173084228,0.0138035450710081,0.00327155517741318
-0.0686986172149404,0.0665450755804887,0.0146317246791815,0.000802762632204771
-0.0463871615921855,0.121272423475711,0.0161544442726079,-0.00472288206285719
-0.036547872378349,0.0995732810091638,0.021168178649017,-0.0101882692535626
-0.0279600018130957,0.0603839076790476,0.0226326667361883,-0.0115749210175322
-0.0075095746036301,0.020183263548564,0.0162140059595068,-0.00847855868896992
0.0262957652974957,-0.0342715249101193,0.0114847062129821,-0.00344446298243398
0.0599867167941905,-0.0830321890264013,0.0124798931828605,0.00100660454046366
0.0714697109715157,-0.0885870790062567,0.00996331342805726,0.00377011705500942
0.0624633048763399,-0.0574210741568362,-0.00137763741720909,0.00524037170130032
0.0519653445094473,-0.0175343121977685,-0.0114417098964828,0.00600137085067934
0.0426595749053416,0.0143513517952804,-0.0100248640296728,0.0055884744777688
0.0267085220242435,0.0303949034266052,-0.00467217441526565,0.00374122822277555
0.00151134071155248,0.0352728485513802,-0.00315342155492144,0.00139160427522944
-0.0279510997185762,0.0368000908864861,-0.00419448177123601,-0.000380034836898563
-0.0502722118934449,0.0378538561338139,-0.00704708971763724,-0.00087700022981363
-0.0649246038540576,0.0390726262510693,-0.00954864819412087,9.37590536231284e-05
-0.0832660406600078,0.0409214247393262,-0.00911116472928598,0.00132910029965236
-0.102286698900449,0.0439692512639235,-0.00606484009852467,0.00123508374580725
-0.108792096989903,0.0470252241589004,-0.00164673652014971,3.01315467358268e-05
-0.0913178504806623,0.0471446389962561,-0.000230621960355353,-0.000606949932996907
-0.0446670482556016,0.0447459899299571,-0.00209326913402398,0.000293197574035679
0.00983775593434444,0.0458013194804594,-0.00155448191909994,0.00164016862443523
0.0405825445557276,0.0533544794951224,0.000218201904885262,0.00202435997331251
0.0415116405240232,0.0618756239609809,0.0018086965615192,0.0016644724555622
0.0274113507917351,0.0594151012122852,0.00747785413533474,0.000831857249635149
0.0136966533822201,0.0393981873952327,0.020041355175059,-0.00114140428721826
0.00581062595479122,0.00770254587596024,0.0236303834731323,-0.00368184611537684
-6.5021212426658e-05,-0.018512422656129,0.00417787120940948,-0.00362127240679801
-0.00466328449315821,-0.019838291090888,-0.0131287415532289,0.000744122107743344
-0.00113654186275164,0.00261960482273842,-0.0100290361804682,0.00553366926180235
0.000609151641828147,0.0253542607421126,-0.00153974858591364,0.00579260375278311
-0.021199903566415,0.0292726684480875,0.00278883139557938,0.00167343003258366
-0.0558227287912373,0.0192675369354674,0.00616614969081921,-0.00319430340641533
-0.0747269552575838,0.00609693380061811,0.00724940383851916,-0.00611121180360626
-0.0728553550194719,-0.00697512395422473,0.00252393295887239,-0.00593155768862398
-0.056820668967839,-0.0148101659368952,-0.00196405522859112,-0.00313290956470089
-0.0333072525673978,-0.0267960806298495,-0.00371607707486764,-0.000635837484827629
-0.010675029598096,-0.0704219414770354,-0.0120406045970794,-0.00128303909993154
0.0241452785400112,-0.106329106520226,-0.0185408860186989,-0.00429873393055938
0.0862584289541964,-0.0641530507925391,-0.00329143396115216,-0.0074847898640184
0.129066189006707,0.0124213459006862,0.0187631120144606,-0.0102059785943404
0.0926844845626262,0.0496911114340445,0.0234462120987264,-0.0104851682650492
0.0142476318197244,0.0455660275073076,0.0162329309720016,-0.00467256187069041
-0.0339871580924388,0.000565450353746118,0.0072791843851525,0.00715607956504269
-0.049143800815595,-0.0715931954053294,-0.00227983010607861,0.0195241183231767
-0.0443309780280804,-0.0596336062242258,-0.00255320708034125,0.025562344648951
-0.0205537046612298,0.0632207832131797,0.0111033751093518,0.0206787701402199
0.00123238368203574,0.122727948786648,0.0205998147062813,0.00647520014158161
0.00702309646323404,0.0592449695801186,0.00967755868508169,-0.00794837823720084
0.00463525027152295,-0.00344092885825523,-0.00888033902265535,-0.0137499630370936
0.00364737937491972,-0.0113044887740955,-0.00904157702145406,-0.0105133233061826
0.00551865951416629,-0.0330621947668521,-0.0038170966587359,-0.00479248272844107
0.00716224142926779,-0.0996997145026008,-0.0137824979293433,-0.00194622284553242
0.00383404147009517,-0.087394678126504,-0.0127686025203129,-0.002306114130755
-0.00564469410762371,0.0277867559115468,0.0100887572529082,-0.00525573071858797
-0.0161635264827065,0.0583002221351135,0.0177990835906432,-0.00975758461713823
-0.0210185659336913,-0.00916559540382857,0.00224434579150791,-0.0120722714945406
-0.0170201322099743,-0.0259413433951672,-0.00375532621021367,-0.00992158711909453
-0.00819517387097249,0.00488602745874168,0.00630889752449472,-0.00519022883713543
-0.00102958032859073,0.0120823000640766,0.0127691523577362,-4.59482353988329e-05
0.00514605950297872,0.000570776499869894,0.00698093885002396,0.00501966872404325
0.0147338161297849,-0.00151486044638289,-0.00492517630093528,0.00930901405546887
0.0213765837040913,0.000955342469290389,-0.017198125326029,0.0117097872466249
0.0169342823383023,-0.00669859701928974,-0.0244873430628033,0.0121038496219413
0.00817669420679245,-0.0293330077368438,-0.0214982988469363,0.0111570277759773
0.00412079361826933,-0.0839595853663261,-0.017310805242034,0.00962344801211366
0.00814698075273589,-0.135853962700853,-0.0162141805830422,0.0089867179588872
0.0281377978378286,-0.0676432155712045,0.0015233795288918,0.00921708440931138
0.0520363090346928,0.0784527021338242,0.0373881815113198,0.00587483826659984
0.0505134013803815,0.0994245144356251,0.0517760276420958,-0.00371159001652428
0.0298353106396408,0.0165281175455945,0.0343149210174472,-0.0138922897479436
0.0129268639572047,0.00167808456073607,0.0241947234474426,-0.0171242775194546
0.000990525701092808,0.030405688235807,0.0256434750137436,-0.0125213196666476
-0.00995637612265954,0.011386712329173,0.0127960577370338,-0.00362975735240901
-0.0164567140671261,-0.0262931900218471,-0.00705172434010994,0.0063670756392142
-0.0152394347015938,-0.0465512055303951,-0.0152697226744351,0.0138473253855419
-0.0113409084822964,-0.0385048970572633,-0.00953611077062799,0.0149612867771165
-0.0142953710909734,0.00118852827988122,-4.87565623809977e-05,0.00842063866388413
-0.027280090263375,0.0318473888244722,-0.000698036391630824,-0.00258692087204041
-0.0407989304037343,0.0301680633304978,-0.00942566028873311,-0.0108990655866081
-0.0479332399611501,0.0124793110853656,-0.00858326854536632,-0.0113811777929426
-0.051506786266789,-0.00927644117231725,0.00583437991464479,-0.00572114874306292
-0.0477462444242105,-0.027846286082334,0.0171253173739082,0.000944447346078738
-0.0309705962921166,-0.0383526440473178,0.0160018134418158,0.00494941663746433
-0.00370179009209412,-0.0415102378492198,0.00942480306619031,0.00553540501233536
0.0267479241261325,-0.0400788774720346,0.00455904788989404,0.00428199164312884
0.0477631893170904,-0.0364000400014153,0.00149360350105791,0.00360278467274616
0.0588683690694094,-0.0226400314562093,0.00112004248496585,0.00562869731490839
0.070261374599442,0.00791858311455762,0.0106708877626205,0.00924477086259763
0.068083265667534,0.0278450725828544,0.0178361671814149,0.00907765024139787
0.0490223327224723,0.0143934393683172,0.00624949870872923,0.00311743276957274
0.0392643223734551,0.0211664670705685,0.00191371874000894,-0.00380664045264675
0.0351852418630116,0.0843755800642862,0.0221603819961852,-0.0080998905035207
0.0215172348967171,0.126790448771258,0.0387269957630021,-0.0106895750653303
0.0067198326961531,0.101137024926519,0.0331579415783947,-0.0120524390206139
-0.00463051567331742,0.0632238795473148,0.0167918082264175,-0.0117664231898294
-0.0145745269709119,0.0506415106010632,0.00282682718434454,-0.0102790774243961
-0.0257110899736751,0.0547054450944404,-0.00348533669112319,-0.00720619877879757
-0.0442101193193061,0.0604937117329753,-0.000504348054624982,-0.00192251053213965
-0.0694130940947192,0.0425129156379396,0.00662297139086025,0.00367890031802369
-0.0861616326513293,-0.00234722553738967,0.0107773474601097,0.00667329451909861
-0.0764403357684742,-0.0373823440928998,0.0100161566935285,0.00637017536614044
-0.0408589737383426,-0.0442550247961127,0.00781194764965922,0.0039204501462039
0.00239743752582836,-0.0477115994891822,0.0088444300495734,0.000568504743799241
0.0212347691057978,-0.0647009132467137,0.0126176040708556,-0.00228858031521788
-0.00663470778981871,-0.0662508764868972,0.0169350695801516,-0.00305077172084696
-0.054549158024202,-0.0431491897434612,0.0161352461885524,-0.00176793544082482
-0.0797736386458371,-0.0237489483137802,0.00794399771287435,-0.000122220234646536
-0.0661431304942197,-0.00958571156472825,-0.000840202265381951,0.000800651166017403
-0.0190301092370199,0.00687663963351848,-0.00284939789791799,0.000871012308765333
0.0377156919723791,0.0259395328931856,0.00588610548405662,0.000585257870341152
0.0730507638531284,0.0385026014440185,0.017790022137201,0.000307271910828698
0.0764263196553857,0.0415654205963263,0.025117376508082,-0.000830495462582007
0.0633920823483936,0.041477709123522,0.0278150938800624,-0.00387447938129195
0.0613951615995156,0.00414643071554636,0.0211178049495891,-0.00769895846197708
0.080100443607882,-0.0654913303783568,0.00882581980901781,-0.00910649211936829
0.0843507768286992,-0.102555897382979,-0.000903814196132138,-0.00701680707880566
0.0420303038827175,-0.101082465930587,-0.0232914564270454,-0.00314161065635907
-0.0156399189353929,-0.0537965507264377,-0.0414411524301845,0.00242686922315459
-0.0435260758393804,0.0497375097724511,-0.0145891556741779,0.00801900088149932
-0.0412525953442515,0.118834165018033,0.0182483856014604,0.00793062509703982
-0.018860570391273,0.0881259148752116,0.00929737319964015,0.00179558896869101
0.0159001572046495,0.0221289305025871,-0.0118711735070791,-0.00379212470757545
0.03717330770741,-0.0159661713008324,-0.0125933084118775,-0.00491236177381387
0.0298127376069075,-0.0374044698716946,-0.00279718434177626,-0.00310433827400942
0.0102361264384862,-0.0566237698703939,0.00185796357172553,-0.000952990426562516
-0.000920857400137462,-0.0733684744101115,0.00281705227226482,0.000453084450097732
-0.00288454494358762,-0.0808586046598239,0.00520456124104631,0.00108946875778701
-0.00349796216314097,-0.0649106417477439,0.00911093253103181,0.00141525939997132
-0.00277788978570566,-0.0247306679078057,0.0115841892651091,0.00183128104943326
0.000264992765899849,0.0176316630431954,0.00885289905021672,0.00226532639887395
0.000472441483505708,0.0314764305665862,0.0026550931416761,0.00249280559278265
0.00212740347305505,0.0152883201534687,-0.00204764852187486,0.00264445300329727
0.0228577500443349,-0.0108218519888849,-0.00433985707051243,0.00318739202615306
0.0573719965037584,-0.0398819728096495,-0.0070276836874814,0.00404828440141413
0.0767525592241037,-0.058283283481316,-0.00847052468239037,0.00445036445631559
0.0758971039700096,-0.0528046776670833,-0.00456805193168933,0.00366349181490166
0.0672363822689581,-0.0376649467069069,-0.00218361305594313,0.00128511703430823
0.0538354730890278,-0.0326703672713545,-0.00751153467770294,-0.00202397959082068
0.0409683098396222,-0.0469984734553253,-0.0154243489705889,-0.00403272667707631
0.03270123891866,-0.0625982799713838,-0.0182111171153587,-0.002979767655265
0.0177332500795605,-0.0437343620471081,-0.0127049696166234,0.000173937919783525
-0.00662641086053798,0.00927995238767956,-0.00310605409415562,0.00275450041333591
-0.0265393416297816,0.0612369570364929,0.00435970819581683,0.00328134290196066
-0.0329125071568615,0.0880449650964184,0.00774051175998837,0.0023256140221219
-0.0186938631744773,0.0896383813426715,0.0080331593208647,0.000815832743194406
0.0182844942562907,0.0624311324869015,0.0038108755905917,-0.000864034637812523
0.0648673700218949,-0.0144362775012246,-0.00664317716592939,-0.0023925510403422
0.0981242451823792,-0.12254389066089,-0.0187285181580129,-0.00319426413055586
0.10413145753422,-0.167242473301121,-0.0243679840950099,-0.0027133704122163
0.0918711516398818,-0.0907960405642592,-0.0229874776108435,-0.00103512663877114
0.0785564639749549,0.0273811245296876,-0.0176635325488653,0.00110003704950065
0.0614382930670879,0.0847712617454022,-0.00467714657947096,0.00284505489515127
0.0221020482993501,0.0830531395974605,0.0115743213292291,0.00369812293460265
-0.0238222693383453,0.0816808590030357,0.0177681739080307,0.00394476775388342
-0.0371990631783554,0.0987725931393153,0.0167541794105553,0.00412315325040093
-0.0263558526897601,0.100956505855266,0.0199083410927817,0.00374601673252667
-0.027112889353643,0.0784782521588217,0.0245912304103135,0.00227560738496789
-0.040972683343765,0.0634473073204785,0.0237066240121341,0.000407698974622908
-0.0438310699769998,0.0661601662157855,0.0214609670234135,-0.00125806511944281
-0.0248159826796764,0.0584790896354144,0.0190913154467192,-0.00291604129102913
-4.82100531373e-05,0.0220046127241212,0.00883347910962283,-0.00432938184473868
0.0074909511858349,-0.028754507412464,-0.00566133562675753,-0.00453318000750827
-0.00549207081957572,-0.0659547923006915,-0.0171659482293437,-0.0029617620839328
-0.033641676104512,-0.082414070123434,-0.0287384202659644,-0.000180491275340391
-0.069129579880859,-0.0864334086217367,-0.0410009558071863,0.00247994776193129
-0.0941558786615824,-0.0573288550835138,-0.0430498208311997,0.00393090357426913
-0.104296926981177,0.0121550977508234,-0.0281377415395524,0.00366782559836007
-0.109614295263878,0.0813103363403495,-0.00672300751261459,0.00201273913770089
-0.114800831586377,0.123636174050425,0.0100259393268566,7.06234077608586e-05
-0.118965187774893,0.134976969713766,0.0186545986909379,-0.0014483563843982
-0.11657503175863,0.114181386361911,0.0195724414377219,-0.00234749102135726
-0.093562602081885,0.0692346542486648,0.0153015196004385,-0.00243360916651415
-0.0490429022382603,0.0191190418922702,0.00594891483371998,-0.00172947163404278
-0.0129770299349919,-0.0163188512596231,-0.00514839315244689,-0.000672089501374354
-0.00397540129551188,-0.0488083222506087,-0.0105288378236231,7.77323837021168e-05
0.00676592702957975,-0.0963926735887997,-0.00856765321562303,0.000453018335361114
0.048487264998656,-0.134109920237331,-0.00455574490443133,0.00118998288864959
0.0968534420910473,-0.118742473378227,-0.00482782348148056,0.00274062393519349
0.108014257600132,-0.0510160511300662,-0.00753236535220734,0.00403739071731288
0.0729338118013436,0.0235944975206641,-0.00594655224642233,0.00299221904410038
0.018960377907131,0.068119176129024,-0.00511019975234934,-0.000654580834279424
-0.0103674633127769,0.0733030897313126,-0.0137200798018827,-0.00420857030711059
0.00747820522633276,0.0558869493845193,-0.0228544625066061,-0.00502815634649464
0.0386599178428457,0.0386907777305596,-0.0208684484066244,-0.00314322593972666
0.0319329484308873,0.0294836493749787,-0.00814544586278038,-0.000459063103536699
-0.0142503131595118,0.0291205732758348,0.0082763621761012,0.000669842142861383
-0.0646733327598567,0.0286681804329093,0.0115715235148084,-0.000489768041653754
-0.0898301454864487,0.0210588961496088,-0.00052339261603586,-0.00154184218425748
-0.0792582086595271,0.010581639019369,-0.00650469504899995,-0.000778316727264105
-0.052781973958355,0.00180616304757196,0.000603268536013215,0.00016694234425689
-0.0436799625351997,0.00554095469822262,0.00954250448798397,6.29600052841853e-05
-0.0516596840908014,0.0119874189667087,0.016316589386602,-3.19418463054434e-05
-0.0488563925626164,-0.00677819783193146,0.0180734875596395,0.000253027185590012
-0.0311316457222746,-0.0453339449944201,0.00791678707748423,0.000378772466559641
-0.011521450954562,-0.0640025573204519,-0.00358994659068979,0.000968433328908424
0.0118245616480155,-0.0601326763010284,-0.00581887025286945,0.00219695749573539
0.043918648545318,-0.0872591735048185,-0.0121002557826121,0.00271654504436517
0.0775961440989501,-0.137423552940706,-0.0292396277258909,0.00179328460496393
0.0960112891837092,-0.13473466845113,-0.041030477977408,5.79065377688467e-05
0.0958275747677648,-0.0752087782094742,-0.0353246895829458,-0.00186700656947228
0.0959489645004775,-0.0181413515755077,-0.0185914465536549,-0.00368011190346073
0.103273280428522,0.0121935652225569,-0.00823039719119837,-0.00515402013036842
0.103417413750092,0.0207604826789346,-0.00989740592099606,-0.00549607824100265
0.0853868446473602,0.0213509463113299,-0.00259480561884116,-0.00331055382174988
0.0558060991014854,0.0246374837529652,0.0192962066513019,0.000573737924751551
0.0315072039740519,0.0194893131373121,0.0282101539568319,0.00263655950352307
0.0201623931226617,0.000812839233496072,0.017435533691482,4.71265028805563e-05
0.0145167747535856,-0.0135895944434514,0.00926853054605691,-0.00733869316105738
0.00529150844587186,-0.00839240096592013,0.0101078631806718,-0.0162156048725441
-0.00351142577731371,0.00616571941292128,0.0105747808189775,-0.0210248240202531
-0.00162124028636259,0.0123308014771261,0.0098505257311545,-0.0186455390731305
0.00709218177305462,0.00712062423622768,0.0106815400507833,-0.0105041728309105
0.0129713892100913,-0.00609413299964884,0.0103081858922083,0.000578471401571825
0.0172607642206924,-0.0258066713233413,0.00494306677257729,0.0123039127834549
0.0201805780241966,-0.042225415778577,-0.00524483797235241,0.0214338253974838
0.0171651204540184,-0.0426973976631184,-0.0154420057141413,0.0249782314356506
0.0134350025225846,-0.0349489120726609,-0.0150979516213705,0.0239130788695793
0.0192625229923418,-0.026752770924517,0.00121091951170704,0.0214289451847282
0.0400342797740317,-0.0257428336095931,0.0175223502306443,0.0182092960822081
0.0554705531376754,-0.0628980627016234,0.0135801344290307,0.0133451434672263
0.0392446882157609,-0.106732278133353,-0.000667418283448903,0.00656539700826177
0.0137874721315035,-0.0957566485013844,0.000609407453849804,-0.00311082005379305
0.00475377758434974,-0.0255316992961855,0.0155615190563889,-0.0167011950011837
-0.0102114349676502,0.0558851945636107,0.0172389377973855,-0.0313625994376948
-0.0416862372491984,0.0959098588241625,0.00546826142505302,-0.0394171380547531
-0.052294525107373,0.11171179574778,0.00645162632601114,-0.0350749938006053
-0.026121377209812,0.091649693983561,0.013694607713635,-0.0210272024184457
0.00528137769147745,0.0303686362833925,0.00830311162516642,-0.00426752625649627
0.0159913509910839,-0.0076013171917166,-0.00496444864368372,0.00994812862699983
0.0047678071757857,0.00250167376887964,-0.0152459305816887,0.0186808023546466
-0.0175403767887931,0.0297238901768682,-0.0175298541068544,0.0211676124628097
-0.0330758136904754,0.0337098332005348,-0.0165720017975098,0.0196964348751576
-0.0293600221630523,0.0108906636603328,-0.0151882758456813,0.0180541225421936
-0.0127293056243457,-0.0140254211477313,-0.0116678949127647,0.017273902513542
0.00379671482271877,-0.017920733652769,-0.00338835102647027,0.0153567262151162
0.0114340890402797,0.00783266728902032,0.0156611662497917,0.0098500475600538
0.0103062735450419,0.0357491593404838,0.0330203045902212,-0.000151319458085875
0.00382255915001687,0.0340781634643511,0.0339217090975911,-0.0117583149571758
-0.00519117152063894,0.00858250724869711,0.0301003963289072,-0.019261696599188
-0.0147774732977023,-0.0313431029377897,0.0279615731730874,-0.0188934789777207
-0.0257752524883192,-0.0955674417065725,0.0199609037349611,-0.0114762529445132
-0.0308889062003765,-0.153551803976037,0.00283853408153594,-0.00049555143282265
-0.0232260700492823,-0.137705691497482,-0.0172143982739291,0.0106010506077576
-0.00900132574083835,-0.0536758151043679,-0.0259294068754563,0.0192048414059967
0.00475595080737135,0.0189784242138624,-0.0206252298929162,0.0231129026410792
0.0171543751714032,0.0377286121203845,-0.0140478480707831,0.0219604117748569
0.0198018260628921,0.0393429806315933,-0.00772488819904728,0.0185931466948564
0.00056811315196557,0.0483570644170861,0.00490101455115847,0.0147336799065736
-0.0237309347080017,0.0304398768779049,0.0148969351362709,0.0083213281995807
-0.0249155287657411,0.00858969447830391,0.0203152063071345,-0.00153018336912907
-0.0175205438523098,0.0323290275863307,0.0275457258133602,-0.0121990643975903
-0.0303252158389233,0.0449804188704423,0.0245393386764661,-0.0202031683095569
-0.0548284729505031,-0.00616894297147889,0.00580518040838105,-0.0221941338611129
-0.063142514544689,-0.0296076384165965,-0.00581301876076922,-0.0169552373846782
-0.0400111026316936,0.0463994974389456,0.00137173111466901,-0.00882087743667435
0.00596981023556638,0.1358009889104,0.00473000136365384,-0.00376110940235672
0.0388587826629062,0.140289125423616,-0.00795948239178202,-0.00212883637051329
0.0346577831826405,0.0461508451657533,-0.0236258314634465,-0.000262295895094014
0.00531304204347978,-0.065729292298423,-0.028097892407697,0.00346501389744668
-0.0251636897992119,-0.102926136159352,-0.0177699959582727,0.00745260009904917
-0.0257029105034545,-0.0795521765229202,-0.00662577037663842,0.0098907883889821
0.0051344599835559,-0.0493015088627772,-0.00647614577045987,0.0106178698314425
0.0267394979650585,-0.0305632004548511,-0.00922409891874982,0.010255180039538
0.0214170193307883,-0.0269778946330843,-0.00494694615494157,0.00910304782309927
0.00639401495806644,-0.0250004394230904,0.00385836350670814,0.00671513396280703
-0.00474891080775185,-0.00908067617647055,0.00916776218099346,0.00267538197576329
-0.00899914942051606,0.0051728986876639,0.00845814345215209,-0.0020190561275986
-0.0118088785204192,0.00230771220529695,0.00460842895683041,-0.00539271466139471
-0.0163617285105783,-0.00709856106853386,0.000386562040921662,-0.00653686412987875
-0.0160438559477155,-0.0119004063825068,-0.00300054467394362,-0.00646417997683459
-0.00963079948095654,-0.0161841811448098,-0.00445722664895214,-0.00664235992345249
-0.000755732795356156,-0.0207435989765646,-0.00199426118445336,-0.00701400316578947
0.00442414909601197,-0.0212522540207388,0.00208506518364873,-0.00636106907361892
-0.000633696402496836,-0.0244748594834875,0.00247402766748569,-0.00454459645451047
-0.0101811091099544,-0.0360027788171066,0.00305444786455827,-0.00279646827276911
-0.014512856140658,-0.0469030590992967,0.0114202062845066,-0.00207148332872125
-0.0092014207118558,-0.0455487272990809,0.0255129005943005,-0.00219042772430168
0.0041537233257505,-0.0356427656534292,0.0417316895613179,-0.00251869461461375
0.0146017178861027,-0.031628201793554,0.057396600154975,-0.00310126247890859
0.012228275417999,-0.0572179908773654,0.0528515033380756,-0.00397638177430696
0.0014479696270271,-0.0810786450268301,0.0185741469014249,-0.00393073982817195
-0.00224905740851228,-0.0029102859323113,-0.0111175890420603,-0.0037576232484811
0.00229407821225291,0.14381044030085,-0.0164748338155476,-0.00662925325082268
0.0107331691914763,0.205536422227907,-0.0166005589372156,-0.0111937425830799
0.0185271936188062,0.131155911468264,-0.0340403671313921,-0.0119624859967869
0.0201311164306447,0.0464698474419925,-0.0602400161424071,-0.00620165107796955
0.0349798409392083,0.114123194704915,-0.0523107678769949,0.00277663922852388
0.0524967739529792,0.240611025468172,-0.0130214627852465,0.00876302051376741
0.0402713813120067,0.219429042983273,0.0140633878910758,0.00993944289531473
0.0200319572318303,0.0659588741779782,0.0113342411136957,0.00852431529364221
0.0236488602768072,-0.0886710070245466,-0.013210262629815,0.00490758974311256
0.0566832124228721,-0.163405029863201,-0.0330023952966729,-0.00237059354448182
0.0897497763727268,-0.167180178052955,-0.0312510505507132,-0.0125654997744093
0.0710825200522708,-0.158158843863611,-0.0164242695707562,-0.0214114983780779
0.00851013166353368,-0.153456233053729,0.00138653246271317,-0.0249025865990795
-0.0469066382290514,-0.131084980984441,0.0158588874940598,-0.0216729481514252
-0.0695791840239281,-0.0702686493965846,0.0252718341980514,-0.011262091907857
-0.0620097144277191,0.0103739144495113,0.0307930747799294,0.00401435348801938
-0.0448681287381974,0.0633953455196176,0.0293445721044286,0.0168709950306851
-0.0382772785735897,0.0840901384314657,0.0213349497056075,0.0210027186894534
-0.0504225167053381,0.104950860710583,0.013409930684765,0.017451764794182
-0.0575230934828965,0.127145579918862,0.00659023140227317,0.0119203882327719
-0.0235868541609958,0.128992385335625,-0.00347019235280183,0.00817662158515765
0.0293446845076404,0.102143866681417,-0.0166139730894038,0.00548939381339418
0.0482868567150941,0.0522902671125277,-0.0286575863575147,0.00175872962172733
0.0268215974532073,0.0190573855849257,-0.033285161531554,-0.00223709635020652
0.00109666633203733,0.0391269057424384,-0.0281925450522015,-0.00462999300658901
0.0015563840723713,0.0718938780686465,-0.020840646732537,-0.00595708445193635
0.0257857446510613,0.0706089374230744,-0.0172905397314302,-0.00722326039527579
0.0437407186097408,0.0564298024304082,-0.0132777402013587,-0.00785678220440639
0.0337752927449181,0.0584572526629576,-0.00772266992661589,-0.00705075061167245
0.00443703461267604,0.0762208008130578,-0.00410425817047877,-0.00462789776759304
-0.0317173375363185,0.0957977212995041,-0.00243237288423397,-0.00115543537832682
-0.0622710473064245,0.0827936955359281,-0.00695895564655829,0.0024909106520321
-0.0667590151743442,-0.00247600298001384,-0.0168109648447063,0.00563210123611116
-0.0490616423543863,-0.105270278559643,-0.0253027496402229,0.00778566578889014
-0.0316072076421927,-0.119267241803243,-0.0318335980240271,0.00945790995250373
-0.0236859966209499,-0.0409215903905038,-0.028527454730046,0.0112348812749073
-0.0253538407010292,0.0596250300434941,-0.0107066171740218,0.0116575880166302
-0.0247701333561565,0.110815732261857,0.00703234804015967,0.00908062376554554
0.0114979147107151,0.0684025348627391,0.0192562240945397,0.00476711497350929
0.0855547412258104,-0.0403497259417463,0.0215466180203383,0.00123616795822959
0.108630449494654,-0.0904113372764826,0.0096070608145006,0.000126614833127463
0.0211994675865575,-0.0249050011442587,0.00831082761752852,0.00188467061945691
-0.0810992149111523,0.0269601561335773,0.023420347907206,0.00490287617364608
-0.0894939302084871,-0.00644622595779559,0.0269677691356647,0.00676776778270022
-0.0364305550241679,-0.0598085015047583,0.0103365400616793,0.00655064518542247
0.00368468064128469,-0.0831302234585378,-0.0149861263235854,0.00489955947770178
0.0242537132683881,-0.0662351035318999,-0.0325397611041869,0.00291167398282584
0.0329256390861763,-0.0270067619034499,-0.0284256723167529,0.00125675057837002
0.0295439989765052,0.00455026202767224,-0.0109188346610407,-0.000181566902748727
0.0209687668254747,0.0200926198374062,0.00391169303476876,-0.00187517683433179
-0.00578343957909545,0.0249195915295425,0.0138000707185723,-0.00353475088431237
-0.0563845597252358,0.0153182854431414,0.020863575020017,-0.00404119429054013
-0.0943248685129119,-0.00726435369504254,0.0249339855890098,-0.00307587180053558
-0.0850243224358018,-0.0278995041886167,0.0249038918014863,-0.00167454871744732
-0.0431190393441327,-0.0426505490754464,0.0199703268533721,-0.000840174660811572
-0.0073486922223622,-0.0586885921621499,0.0135010928109829,-0.000852535702669715
0.0100282425586315,-0.0702762820184553,0.00918712405935851,-0.00134059896761201
0.0183882224425716,-0.0638520042051129,0.0050558698864462,-0.00175721220360242
0.0237920397834927,-0.0459125694214927,0.00027633813626666,-0.00174650637758852
0.0324442121005913,-0.0350474749038222,-0.00187968589292852,-0.00105031459130121
0.0461080953130412,-0.0328637890712543,0.000832799965675501,7.46864243765617e-05
0.0543817102318574,-0.0327473667748214,0.00442953282759528,0.000769455915552214
0.0470119197329453,-0.0325287923358735,0.000914850532261053,0.00065031083986634
0.029579316337628,-0.0190570062494244,-0.00520222251837458,0.000251667170100286
0.0212834709339701,0.00707134760501046,-0.00369973838980718,-0.000525707100552735
0.0280560326912071,0.0159573432487633,0.0023479571077672,-0.002073758772882
0.0315605862375871,0.00173588576560516,0.00819695298477122,-0.00339714251725178
0.018207519441326,-0.0122075773139997,0.0137779367947849,-0.00353398776407907
-0.00320239411675034,-0.0260587409535902,0.0142646349685866,-0.00289740616273475
-0.0197506099241437,-0.0515380463108087,0.00629914170224869,-0.00218588374001736
-0.0268919638968072,-0.0733302040704451,-0.000610900192877963,-0.00161015111749011
-0.0281056638654056,-0.0749032830918545,0.000112973570105651,-0.00177598010986084
-0.0311929279394331,-0.0580412310986167,0.00198602170233003,-0.00333323498304736
-0.033089413145084,-0.0338918122222532,0.00186444144065988,-0.00527513230341855
-0.0226291200859538,-0.0155682087950141,0.00368537170171854,-0.00583945568286264
-0.00870590101686138,-0.00279358234853785,0.00829482315510893,-0.00505895946006869
-0.00716415678598921,0.00932432353113495,0.0072413987055439,-0.00394553937080537
-0.0124727877219162,0.0102202243447242,-0.00183655011384555,-0.00144841225957723
-0.0126251731442132,-0.00859803834786772,-0.00802304742111818,0.00339734075639929
-0.000964067793158024,-0.0251916206880353,-0.00573899858886786,0.00747017533314418
0.0241906811940158,-0.00583681954854521,0.00202153911955206,0.00627716566054423
0.0447754962820978,0.0398682260514135,0.010566473406838,-4.51310270189326e-05
0.0295815259181824,0.0616867292050003,0.0132055442026318,-0.00679156746792546
-0.00603469944097853,0.0356832181444141,0.00582472774853165,-0.0103064858351655
-0.00268074823807677,-0.0195113685585493,-0.00762569240822581,-0.0104018764072046
0.0350654810762063,-0.0642032357377474,-0.0188605857180769,-0.00820927586538978
0.0428874005433214,-0.0609456985953914,-0.0215305482513664,-0.00419418072260172
0.0145872266138209,-0.0189584395202929,-0.0157475410332128,0.00139374884141862
-0.00488294567225843,0.028152024986973,-0.00842367258716257,0.00737242860801803
0.00397983720458477,0.0608243526776471,-0.00300321257984735,0.0116025587014075
0.023609529538937,0.0522573390506245,-0.000920206653147779,0.0120795952420657
0.0266639565721229,0.00593541176175454,-5.02066172889774e-05,0.00874384791111595
0.0102558323657437,-0.0226160146613759,0.0109131292536834,0.00339823330880908
-0.0043500855285722,-0.0464933646203302,0.0251126926998015,-0.00240472747403755
-0.00605910831654322,-0.101429831072883,0.0234192179119588,-0.00712931035757353
-0.00302222284115479,-0.118542139307089,0.0102604750388473,-0.00845939049605837
0.000439920578016083,-0.0696235021259622,0.00108753491004573,-0.00583832274178774
0.00409030677912274,-0.0212374536448682,0.000196868118557535,-0.00145355731300455
0.0036040307178712,-0.00532654148822127,0.00461333536681087,0.00220284503914495
0.00487294857054513,0.00233091776049046,0.011420136897867,0.00384534755574105
0.0115448804124145,0.0187019177292398,0.0131576641309698,0.00343308060486078
0.0172359256381496,0.0313616536854315,0.00188568914788033,0.00244812690928862
0.0232341660427949,0.0450931574605213,-0.0147045070543439,0.00310386446769925
0.0270785826954924,0.0705711446649529,-0.019182624066719,0.00534814703891011
0.0211689485902048,0.0770329481274359,-0.00369442734498676,0.00626589246022431
0.0158511096366151,0.037742384524845,0.0171148597120063,0.00375620782556893
0.0247194765048929,-0.0227492311989017,0.022095982923798,-0.000566191132839208
0.0408228658945144,-0.0690876083299552,0.0121284065949541,-0.00352721942761017
0.0488243892928876,-0.0896806882105472,-0.00244602226173602,-0.00388697038164173
0.0349228078076843,-0.0823107302779869,-0.0218365356704558,-0.00200319527611176
0.00337939135201137,-0.0574016259535935,-0.0367595028469333,0.00115778580101947
-0.0135556690764745,-0.0376204585364923,-0.0282654541003151,0.00420981992366053
0.00914925724962943,-0.0386942297880318,-0.00740326951975129,0.00620157953445904
0.0422878482776873,-0.0427630699447726,0.0051561678010913,0.00718880753664195
0.0313197598270567,-0.00682894497305531,0.0150153665861772,0.00752176301958684
-0.0148389680106177,0.056552996613763,0.0295313896012551,0.00620660671980333
-0.0412274603067069,0.073783800072982,0.0362236463871621,0.00195541025756073
-0.0297580504081815,-0.00462506811312781,0.0115710600709192,-0.00305491216580762
0.00263149236674505,-0.0674212316066504,-0.0238400698450827,-0.00431729945497696
0.0341687952244843,0.0254445522499011,-0.0224079263482593,-0.00225423991524498
0.0450451472701987,0.09719601181382,-0.00797223616553627,-0.00154700178063646
0.0436209454526151,-0.0410169919553999,-0.0281670441063684,-0.0014520278185712
0.0465291932034439,-0.124492483482429,-0.0478015062725876,0.001690901073152
0.0319584805969866,0.0340298313473288,-0.0215402257818555,0.00308969269062659
-0.00630596000556833,0.146193057646963,0.0129058618587951,-0.00324466481604291
-0.0287237233114741,0.072450392149496,0.0185666838227222,-0.0108726117249779
-0.0223947908029862,-0.0179389477580497,0.0120051281372457,-0.0107263762871084
-0.00949507024802144,-0.0460023407402642,0.010200818022522,-0.00419167391241509
-0.00118350697904384,-0.0394906779978734,0.0178244107888479,0.0022563074037671
0.00308218455828981,-0.0227286285540163,0.0277444295930328,0.00541621781143862
0.00868307350442475,-0.00980127673953448,0.0239325109436917,0.00609433525137422
0.0224707756200373,-0.00979828324240148,0.00731503176954985,0.0057559180138023
0.0366396787649269,-0.0157463878033327,-0.00836579059853034,0.0052049940385009
0.0277528948698491,-0.0128215575425656,-0.0159362209329828,0.00531058015064582
-0.00629251203940507,0.0013143270474007,-0.0146491856784626,0.00572344892643844
-0.03097686415126,0.0160120656325357,-0.00943179444660196,0.0047251192808451
-0.031881537352623,0.0238216811183656,-0.00656028295827395,0.00164070295828762
-0.026920044618342,0.0307548385155115,-0.00450422380929917,-0.00237442625156214
-0.0224119633794022,0.0370510853391893,-0.00267775745579327,-0.00567509850855587
-0.0160568700791326,0.0342217121814811,-0.0042099092675267,-0.00703390971869361
-0.00815244510118857,0.0133383573041837,-0.00946062155777572,-0.00605142350430461
0.00263707362770838,0.00288868759583836,-0.011393544526074,-0.0036930251283306
0.0135668816692988,0.038319940326431,-0.0013441138606224,-0.00221868289956815
0.0189924621307226,0.0613450125865133,0.00967208176887958,-0.00312369970080819
0.0203973435222741,0.0260353151907338,0.00469690170636445,-0.00485883520306371
0.0192967724946466,-0.0053570347268917,-0.00553531552873772,-0.00455693790759639
0.0134465214138516,0.0069801123611803,-0.000970916653690064,-0.00186606041481697
0.00494150180153109,0.0224225691365091,0.00697730648862215,0.001104515417548
-0.00708471908313792,0.0175463015204122,0.00367717042431481,0.00303236182386922
-0.0228408717465654,0.00974798501551222,4.41626660134201e-05,0.00389278243906786
-0.0326734848546631,0.0105130263088733,0.00246163480849864,0.00368279179769866
-0.0309727514242297,0.0183855637010418,0.00695387937852841,0.00238629067320829
-0.0225872471725978,0.0246929935542545,0.00968796412129005,0.000317687194855895
-0.0151836439873862,0.0206444174949756,0.00825326311424027,-0.0017684826776921
-0.0120358043390276,0.0118315256089102,0.00549588791953264,-0.00314124995685626
-0.0101395433793905,0.0122775030051988,0.00472767250354071,-0.00352966153623421
-0.0015075561749359,0.015448909329592,0.00656423637658293,-0.0033068657113831
0.0151412465166225,0.00942728323711733,0.00897763946898235,-0.00289518807367562
0.0268567710477845,0.00132403676084002,0.0086794862768519,-0.00213629891259949
0.0243105610040423,-0.000111192287742829,0.00804291829257131,-0.00104277975048871
0.0106342779007819,0.0097158254099356,0.0106391989042345,4.32571878025371e-05
0.0021593255668986,0.0247113124323147,0.010947794316123,0.000864694803650004
0.013499459295815,0.0289571524033723,0.00655377539962355,0.00102227337573845
0.0369246066269156,0.0324002682188504,0.00543047935986194,0.000263992364791512
0.0522140706360932,0.0467200964118877,0.00933931387231032,-0.000930563728939223
0.0484295723431483,0.0481989612231626,0.011387489289851,-0.00168392998468275
0.0323170325639083,0.0146299400149557,0.00912457350340738,-0.00154958805528164
0.00457518530771996,-0.0452611065955918,0.00842348887338978,-0.000814478279785271
-0.0364808489353715,-0.0889014672076599,0.0118134289190047,-8.07396964416967e-05
-0.0574834028690668,-0.079117986331742,0.0120074301007242,0.000345152782327688
-0.0456780972103155,-0.0324388065109988,0.00636691705545477,0.000190045485311251
-0.0441543532407103,0.0117500018904445,0.00241951829005348,-0.00154318683817927
-0.0597679813967547,0.0408897297415865,0.00666331432806646,-0.00584684282782903
-0.0490239129676857,0.0615376295640322,0.0152088047573717,-0.0119447857335618
-0.000323996875595478,0.0775058646604305,0.0190310649568771,-0.0171234300984762
0.051173189892788,0.0894493504385466,0.0168861042792544,-0.01736299334137
0.0754783543679506,0.100281732512866,0.0143201514939598,-0.00943811202025009
0.0723328698397157,0.117706022786893,0.0152959303455251,0.00485088567838686
0.0447450459380433,0.120013329928979,0.019195189849528,0.0180543057159575
-0.0200181473140099,0.0722532437240022,0.0238064633581443,0.0228837118578144
-0.108084553240877,0.00585335128781095,0.0267310171291713,0.0186776985875463
-0.161326936173677,-0.0290327855128724,0.0242186354657758,0.0106019476193631
-0.13540245159661,-0.0478324459244822,0.0113588118719527,0.00417842090258718
-0.0446877429402961,-0.0559571260268542,-0.0122063144270864,0.00252441854689172
0.0518299398148482,-0.0288468382089111,-0.0307625497565948,0.00579127317736409
0.114508823892562,-0.0178266354156187,-0.0282207796188365,0.00982981716306465
0.150329389422537,-0.0806470485814718,-0.0136587602133729,0.0065905923138917
0.167919336253501,-0.132809418717511,-0.000445724254986603,-0.00859428406222342
0.156792861116379,-0.102505633970289,0.00348940280111288,-0.0299856735813936
0.117541989231246,-0.0547531669567002,-0.00775056701130871,-0.0452333485750373
0.0529846564388293,-0.00537842681710962,-0.0141801980287846,-0.0450183165806069
-0.0321348539142873,0.0606040514044099,0.00223774010651603,-0.029903817084456
-0.0889864014136501,0.0889713819307957,0.0222692070207202,-0.00850734202120158
-0.086668565738689,0.0722931837702177,0.0268785616304936,0.0114645233273737
-0.0639903671933684,0.0585921358527419,0.0191734559260985,0.0279164766917244
-0.0588011836591737,0.0679349119474433,0.00428915967884509,0.041162448630487
-0.0715575044603788,0.090556293939057,-0.00795545662412461,0.0494952707339481
-0.0754659353191943,0.0922471930609496,-0.00843062389902,0.0498167806814668
-0.0524647478883461,0.0508757603716749,-0.00468810700042244,0.0410811427568473
-0.0201219875478416,0.00348025084666713,-0.00550532274754981,0.0240383057900146
-0.00346820489585367,-0.0113460008233809,-0.0105168825145129,0.000511492050094153
-0.0103842486935931,-0.0263318596104843,-0.0169364331764728,-0.0231452421699682
-0.0213661243445467,-0.0933586076417676,-0.0281890607055078,-0.0370046759776879
-0.00738453665079923,-0.120235447257156,-0.0369167898473845,-0.0369967327045662
0.0264098775689151,-0.0379691660996662,-0.0274978765752719,-0.0291350020555401
0.0530883232576333,-0.0239045957813043,-0.0122932797306866,-0.0194018222864588
0.056324755510438,-0.114240222918616,-0.00635704187948406,-0.00642273958313511
0.0262798208714589,-0.122249469985115,-0.00350638554517161,0.0092552593139518
-0.013991357437942,-0.0392846653398786,-0.000186975559248761,0.0203910319026192
-0.0205700985634278,0.0206890420781289,0.00182096609785654,0.0231796002603632
-0.00161209619779867,0.0356724309592914,0.00280136668378233,0.0217359606711413
-0.000113566672218894,0.0367154028584302,0.00184852185995305,0.0207882443040344
-0.0205582159640676,0.0423004659720728,-0.00283125249795897,0.0206690942101131
-0.0319186922227092,0.0302963755177827,-0.0151671062910946,0.019059911303473
-0.0163337758784824,-0.0241365409971069,-0.0349172431506202,0.0139078372041953
0.00976331105122976,-0.0634637052568984,-0.0487981834727089,0.00599055004472227
0.0150249673405136,-0.0399219390068031,-0.0461544801373929,-0.00124970417919735
-0.0046260707254648,-0.0027413006201178,-0.0333659436256024,-0.00572221175424506
-0.0239401361392482,0.00683492530629548,-0.0235073417045972,-0.00775099587215981
-0.0288564990799721,0.00254047430154537,-0.0164134931546149,-0.00790958017659416
-0.0235332236668649,-0.00258856413608277,-0.0057463687441834,-0.00683141343427594
-0.0155483710859971,-0.0106686583984574,0.00298206848743504,-0.00508283991115042
-0.0123824718901017,-0.01867066635099,0.00349271788856859,-0.00261725143743337
-0.0151498522024426,-0.0217975808059204,6.27071209314161e-05,0.000371681617302756
-0.0155658326586108,-0.0241370518627696,-0.000231983710040865,0.00298909908610146
-0.00482676037893661,-0.0283902022301492,0.000486822315910413,0.00446157819479778
0.00575798843830594,-0.028824515321732,-0.00146956397422629,0.00453206768640302
-0.0015272295374266,-0.0243455137485369,-0.00354233382544761,0.00357902007047108
-0.0159527034751542,-0.0224137748964114,-0.00573352326206319,0.00243543432703497
-0.0210109205998931,-0.0245427107447915,-0.00771096359236802,0.00153568210567234
-0.0189968894435545,-0.0245880329994164,-0.0067939709644941,0.000827262945650407
-0.0157964858502213,-0.0207101908812517,-0.00532491974343545,-9.82315991197311e-05
-0.0125271690829521,-0.0170089003624482,-0.00600595750657783,-0.00167390467797215
-0.012892613526548,-0.0138895667542736,-0.00579898125863416,-0.00370685217227493
-0.0207143551537748,-0.01072247479525,-0.00433894593972279,-0.00544845532323527
-0.0273098825418799,-0.00749377699114192,-0.00444581712178985,-0.0062915263481383
-0.0240114926010611,-0.00147963717099547,-0.0053949326377504,-0.0064092562130876
-0.0149073506024037,0.00674152004626408,-0.00481634989091598,-0.00643865028707862
-0.00504622884133991,0.0138645258445966,-0.0018374139013517,-0.00679560497256699
0.0055442397593187,0.0168316087261883,0.00126068724307471,-0.00733212298857369
0.016514821456568,0.0141840911659357,0.00227756888327529,-0.00761603382715457
0.0275709119520593,0.00912855416955069,0.00195313037780875,-0.00753574894835291
0.0367828672912166,0.0034259417016365,0.00309534850919006,-0.00729724656457975
0.0389985535732892,-0.00295608974694335,0.00506727918226685,-0.00719305771674413
0.0334641989041066,-0.00399875947345692,0.00434127203898537,-0.00741461605766328
0.0242152975260093,0.000395329155022234,0.00258930476379102,-0.00768968595631407
0.0156599241070401,0.00344079963775899,0.00270601466666772,-0.00747170759200325
0.0102485915391041,0.00442919862184365,0.00344190773524469,-0.00670694417545917
0.0064551578567825,0.00544135554013683,0.00324806959786315,-0.00589707509139958
0.000972147218652478,0.00549468917357464,0.00285403254462927,-0.00547208036585494
-0.00673472286717379,0.0031606562830873,0.00279079315662187,-0.00536662558781096
-0.0126090604834525,0.00206856747554852,0.00266088024234416,-0.00519449179669186
-0.016059275515632,0.00363259252823392,0.00296393989663366,-0.00478770445829898
-0.0173988060223811,0.00484482495967574,0.0044233244661015,-0.00430940406193669
-0.0122573417425038,0.00462492166188893,0.00553168332675808,-0.0039517580852639
-0.00359080114707956,0.0026331860165104,0.00457082833280689,-0.00390550681024634
0.00214219653962507,0.00105052836911509,0.00325974614935476,-0.00423901144705927
0.00455727591928554,0.00176239600008393,0.00335719191095918,-0.00459601621100344
0.00469799767119317,0.0027163153923417,0.00365416318654439,-0.00445219839275484
0.00505239936869535,0.0031689408914474,0.00308301584144932,-0.00369116599075131
0.00730540239303216,0.00369538462979548,0.00129283004242407,-0.00275032238344985
0.0100457006908911,0.00567406694326743,-0.000197436600796626,-0.00185946488718006
0.0106906071903533,0.00980237758051021,0.00273350204604591,-0.000955019564429056
0.00839470812328078,0.00781832426819595,0.00697745947405417,-0.000662655466969826
0.0051568504496922,-0.00807339952892318,0.00330533608368672,-0.0011378643377449
0.00438317877905495,-0.0157294758696253,-0.000502892273650028,-0.00124685362669091
0.00704645522128973,0.000246121327299269,0.00556155656977309,-0.00109308831506552
0.00799319490639093,0.0119970187158534,0.0111175887129961,-0.00172103435437539
0.00570195363594804,0.00918989712375295,0.011004431453027,-0.00251334690942094
0.00345349952423979,0.00612199058419561,0.00939426998364323,-0.00238424537428309
0.00202870645013598,0.00383114339101183,0.0077031713806589,-0.00101556494172006
-2.1986443026336e-05,-0.00141121723951706,0.00574126453870439,0.00159351898972891
-0.00300723312840053,-0.00668023755291903,0.00115840710061742,0.00464402428983008
-0.0047831997722557,-0.00762032987694732,-0.00490985705836041,0.00678321335677357
-0.00454514643680884,-0.00600154034135215,-0.00713698010751085,0.00743958465414098
-0.00655013890190608,-0.00389094603898258,-0.00285982096316192,0.00708381182819648
-0.0144289614097569,0.00315741811212233,0.00781887372093092,0.00634718030447315
-0.0232345760911177,0.0148617437039419,0.0229893669944076,0.00526742420613429
-0.0258869453235336,0.0337194399248184,0.0377121600811919,0.00358710266198809
-0.0234430897720821,0.0647515389835219,0.0460135678697396,0.00158077235857038
-0.0278792454375152,0.0816553264136141,0.046901909194919,-6.96591925865948e-05
-0.0461015618592417,0.055354226647394,0.0436025511542485,-0.000887548909877328
-0.0642556847274694,-0.000794761722986315,0.0382234566689604,-0.000889123439890842
-0.0663335368581211,-0.0513180642716725,0.0300181087638645,-0.000570055262701537
-0.0521411743262911,-0.0753439393501193,0.0166343228342827,-0.000111624290809107
-0.0231977077927273,-0.0783596267003275,-0.00276434532742925,0.000581878235203996
0.0104609097444746,-0.0621354195921131,-0.0260974586870006,0.000896887729629483
0.0291294412954201,-0.0234808461443993,-0.0414922402988878,0.00069274314831298
0.0447409271230825,-0.00307995037233227,-0.0364201733358595,0.00120475359112767
0.0757244774134175,-0.0227054638546814,-0.015946074035861,0.00348501740035386
0.0948207502158759,-0.036891031187777,0.00620049015375325,0.00678956454448142
0.0723692580037667,-0.0404061596479223,0.0239645288689814,0.00919039566254568
0.0323488571392969,-0.0369451265627512,0.0383463993139639,0.010107651422242
0.0173439272458685,0.0189746913285712,0.0513096363147226,0.0094590570496289
0.0340801806375264,0.0853075222862309,0.05804293094387,0.00610706108537116
0.0623608760442235,0.0697546445874962,0.0515399988800228,0.000512198459305174
0.0808724014062958,-0.0240873696752332,0.0347375798343127,-0.00651827918584146
0.0846328249044302,-0.108189637245851,0.0207780987393425,-0.0147331703709493
0.0854427468805937,-0.101100941171137,0.015891503120454,-0.0205770510397342
0.0767598404360405,-0.0258842300047917,0.0086329429886266,-0.0193195747259278
0.0228767141240228,0.0380776397983764,-0.00600496598171999,-0.00909091294816903
-0.0764702840719311,0.0560051342410183,-0.0149502436323067,0.00742194586847071
-0.15592532658103,0.0304116429201187,-0.0150055332777826,0.0226155791088817
-0.172438151171548,-0.00903625682726408,-0.0169159940528855,0.0287939937444294
-0.144441998236197,-0.00353647431539825,-0.0209654586395558,0.0244541823832546
-0.0910979663837695,0.0536853416716331,-0.0224707556815187,0.0155083907260287
-0.017646728403109,0.0758815434719193,-0.0182781914795095,0.00974818883071916
0.0502594757740001,0.0138956660530487,-0.00799002366789613,0.00898357895511726
0.0858607984018479,-0.0602029393422684,0.00239909952575102,0.00772878000740234
0.0991623003507052,-0.0786334996684468,0.0103635178687843,0.000877739944591185
0.104952509589617,-0.0649103676716818,0.0146112203167067,-0.0102192219292606
0.105621999547708,-0.0574787544865184,0.0112377227328913,-0.0197790430173319
0.0907878867043869,-0.038210339463694,0.00672962593241368,-0.0228318126411648
0.046602813845971,0.00876870252215973,0.00725408851475732,-0.0192724725260658
0.00932222695216992,0.0236814291942739,0.00268178729243742,-0.0129237533664818
0.0105976292496021,-0.0192725202368367,-0.011629351237145,-0.00669976309264902
0.0261463739824325,-0.0730082189865719,-0.0312787745278749,-0.000543978200553265
0.0396833899541845,-0.082983213727455,-0.0462282724230519,0.00688010883058658
0.0476628203457203,-0.00971052425615503,-0.0406437618987513,0.0148147714893546
0.0416761207490548,0.0784886639010687,-0.0185362059585839,0.0198987901379796
0.0253476918002692,0.0862224424058834,-0.00570403030747212,0.0207511287773092
0.0131587594700268,0.0267150018449937,-0.0183819643859067,0.0186870255750723
0.0159199870798478,-0.00901279556665502,-0.0317742271257357,0.0137587492355043
0.0171981505696723,0.024689366165961,-0.0196125516494605,0.00567236848790757
-0.00160515580711454,0.0456602770419054,-0.00806876664620507,-0.00294337810619092
-0.0190220881316988,0.0249621704554243,-0.0113310955578371,-0.00797637370508493
-0.0177376344647347,0.0290733909575352,-0.00533175933579692,-0.00750556581650688
-0.0183302190973596,0.0602757844329019,0.00379001650600691,-0.00340191699820219
-0.0360280186961134,0.0834468382933291,-0.00319021731806504,0.000968862244390299
-0.0541080055426487,0.0911738868390308,-0.0133651929014079,0.00356176513907971
-0.0546547567817685,0.0954334232720624,-0.0115844682996409,0.00332160142097001
-0.0480879802021521,0.100881624089467,-0.00488198906634632,-1.10769029988337e-05
-0.0512039473797771,0.0930638615182349,-0.00400367703012665,-0.0041339513703809
-0.0620291380030975,0.0712490851687138,-0.0101191158938489,-0.0051866533539596
-0.0659670674646328,0.0782741069000061,-0.0143548237902752,-0.00235899183854249
-0.0517934556287855,0.124244582686609,-0.0114041126670915,0.00115878845302438
-0.0252468073313298,0.137690104378811,-0.0102003395122493,0.00221936755602938
0.00227597997133189,0.0652971594760228,-0.0155611289973968,0.000838986597930141
0.0205013379840757,-0.0573512592349216,-0.0197974905553748,-0.000825282810533172
0.0221930442589861,-0.130149755262079,-0.0166383798424332,-0.0010132826395168
0.0218060276743449,-0.110736727978586,-0.0113289362993859,0.00022661532401565
0.0355036863001897,-0.0705197345144177,-0.00692013461961929,0.000892242484872879
0.0538587304599815,-0.0720356776686115,0.00199437156157015,-0.000833768254547633
0.0600584817360674,-0.0968985805877825,0.0128264890142218,-0.00415944200863279
0.0543074435933726,-0.0846825929834889,0.0192094654889106,-0.00626756367609992
0.0484312365812488,-0.0184604295454235,0.0204480044402328,-0.00537434919257043
0.046158951677832,0.0421327513086763,0.0157351371619594,-0.00225519146663279
0.0433165362571348,0.0580397009527875,0.00805246328828321,0.00106249973289337
0.0195531832989219,0.0539725683702023,0.00623806660277202,0.00213469152676982
-0.036901475303957,0.0576507267528496,0.00972397925081696,-0.000582879764522954
-0.0835608062285971,0.0673575011559901,0.0129946363938706,-0.00553468432930113
-0.08409411965575,0.0599740330455442,0.0155965937566707,-0.00945895802461518
-0.0631365564469833,-0.00123085439820392,0.00933562282103808,-0.0102160594881482
-0.0511302662423057,-0.0890941039548289,-0.00471900080414246,-0.00686543665629591
-0.039645761994006,-0.0707126373586985,0.000499363077686608,-0.0011559110437408
-0.0184511903367875,0.0509839135125389,0.0238057933726945,0.00133802841708864
0.00711556424429807,0.100849417971411,0.0299503366501374,-0.0021095684231117
0.0354855010187646,0.0490793472105808,0.0181538983842673,-0.00665768602548831
0.0566822492529262,-0.00515696905082187,0.00869337904546147,-0.00695662404634727
0.0641406471471661,-0.024424013701187,0.00636126269423721,-0.0037094751197619
0.0698115724137428,-0.025615257289209,0.0133416221883841,-0.000769570589093188
0.0863203326513972,-0.0477407766768024,0.0227742769229501,-0.000463272365711325
0.104872757368883,-0.122318673577739,0.017114554640959,-0.00186697638542684
0.0919144016387344,-0.208184799110952,-0.0072551199259611,-0.000667492057993936
0.038163946442683,-0.203997387003874,-0.0269742245265329,0.00689782815960799
-0.02165761702835,-0.0966846768018822,-0.0214588954956813,0.0169666526628804
-0.0608394214166384,0.00813094036054107,-0.00584340315781195,0.0189241509339331
-0.0742591511219992,0.0498829361530799,-0.000516656387081496,0.00686400368376835
-0.0640976215203158,0.0492684236630696,-0.000280338429965644,-0.0131820432357396
-0.042557171109727,0.0273902108037017,0.0030322833304431,-0.0294104962833475
-0.021855847816993,-0.00761791329012494,0.00253149173562141,-0.0335025748281589
-0.00641719819637174,-0.048172586659787,-0.00439555307051492,-0.0228664218103274
0.0123180979224327,-0.0836560933819893,-0.0130541093048056,-0.00209389339706073
0.0378987269927384,-0.0916698278409993,-0.0180177385546168,0.0168763312166629
0.0536645157524533,-0.0613351628148208,-0.00554274063881513,0.0228329596342965
0.0524354953383015,-0.0219353128017832,0.016054884842912,0.0141984958542249
0.0432558620042438,-0.00838031798562338,0.0208980624066267,-0.000236639525073166
0.0317615124417986,-0.0196067795767839,0.0106121958284182,-0.00962709183121124
0.0213990819111785,-0.0204705408244793,0.00363194555188436,-0.0095592875151898
0.0146126930821222,0.000804095525380058,0.00603705782523921,-0.00322570223921511
0.00837343004226403,0.0142106012955882,0.00847772965717351,0.00313726785985065
0.00207626081653905,0.013896324986698,0.0062986665194844,0.00608410390048625
-0.00493308314661623,0.0161203674341404,0.00383097627918169,0.0063246943340876
-0.0146322259194604,0.0198664951294559,0.000620776362737155,0.00580911975945492
-0.0231104551928888,0.0205025776775895,-0.00291741929960951,0.00523242400140414
-0.025266265870759,0.0208518600535001,-0.00329720376326985,0.00379706079140625
-0.0188299512850256,0.0223619905809955,-0.00342321845397306,0.000832628388541268
-0.0149658524617087,0.0202531893448136,-0.00693117159171983,-0.00259450571137353
-0.0242158377795345,0.0120836607909047,-0.0109519121942526,-0.00445501020193253
-0.027555331025395,0.00314691055713195,-0.011917751807661,-0.00367516424583841
-0.0108021288794174,-0.00136396772946709,-0.00936312552548034,-0.00120538616161263
0.00766888886108566,-0.00554063779044812,-0.00500532781798317,0.000869782605506102
0.0128350903630149,-0.0158294177806038,-0.00108372175592762,0.00162365208245287
0.00731777530873634,-0.024954498846533,0.000980066040632947,0.00133214895654098
-0.00359015983364592,-0.0209411080090507,0.0023607072657193,0.000502283718739624
-0.00576716848113328,-0.00116135948071953,0.00651070248591916,-0.000128464835842225
0.0104560805363055,0.0199890074135707,0.011975596447869,-0.00015697991222975
0.0349822615035854,0.0118936108782235,0.0113056133001148,0.000205212694207453
0.0546042712418491,-0.0202699101953585,0.00166606533512459,0.000570955346837624
0.0529589741259976,-0.0250022078941914,-0.00831311066135809,0.000711709469512824
0.0344245769797702,0.00912817182530436,-0.00916049110583535,0.000638344935526728
0.0286918305719908,0.0413954486016086,-0.00366568279482071,0.000427065014657808
0.0338817002945087,0.050423961741859,0.0015786315234406,0.000189529538800765
0.028252639993783,0.043276310736479,0.00422024022550579,0.000171281162975049
0.0153444605332648,0.0297682510703144,0.00460354120312864,0.000486454787293011
-0.00542433607825494,0.0200870885300713,0.00487207404873283,0.00103988731298942
-0.0401954466549923,0.0245038638592126,0.00356248282709407,0.00168634432333485
-0.0710227814521159,0.0394865323070734,-0.000692220958237438,0.00225690765172845
-0.0869189855159326,0.0460277743393744,-0.00355209298287067,0.00262415426681404
-0.0942855014982995,0.0297896460286339,-0.00194875510220421,0.00277419644621389
-0.0838616466682533,-0.00103545616207738,0.00302626766117159,0.00277676929075059
-0.0482511390917632,-0.0194095146649062,0.00785472239901018,0.00251093448378785
0.00458802128845093,-0.0179691604920139,0.00819430724398678,0.00169756525401412
0.064903622796639,-0.0191518910179298,0.00523734472092764,0.000542921284358976
0.107835910462765,-0.0320913538675197,0.00376197540125211,-0.000179689592302857
0.121796789860735,-0.0456903887523651,0.00447336714359278,-0.000233220909025574
0.12138556526058,-0.0477113267650321,0.00657134005899855,-0.000101851026441932
0.115577536860601,-0.0351497514965682,0.00896849479877603,4.11473126838101e-05
0.106627949113196,-0.0174445951824682,0.0097717917534563,0.000330576722898962
0.0910792510227704,-0.00196482042990336,0.00871184380788031,0.000674764777225005
0.0533059543604527,0.00511063913572491,0.00549273977064023,0.000867475975813328
-0.0152751622760757,-0.0021289339944474,-0.000768492182193603,0.00101835807880371
-0.101986695042892,-0.0148604202607122,-0.0066260807719325,0.00148796771851155
-0.170857509178378,-0.0120434142251111,-0.00592044551715911,0.00244768514708492
-0.17191854486428,0.0104396978278714,-0.00270091070947477,0.00366794372998054
-0.107274300382527,0.0331036930316442,-0.00510751180112341,0.0044085427763449
-0.0386094055621801,0.0413153711144923,-0.0113903857359143,0.00412015921274434
-0.00227711136676625,0.0359082849487314,-0.014441465327642,0.00318047985885315
0.0105010882726388,0.022951179845043,-0.0121903665321114,0.00230437907370767
0.0136981300455524,0.00800613009977687,-0.00906173335629715,0.00177940712670359
0.0132364363989214,-0.00456740824337241,-0.00481160106440372,0.00136386665680162
0.0104629748106321,-0.0145413316759088,0.00280934523158275,0.000496163375141831
0.00581069948460688,-0.0215664445706312,0.00796736481023072,-0.000884189769583699
0.0010202235878168,-0.0252257196374606,0.00899408355169472,-0.00219492639052769
-0.00281758294921916,-0.0275336219966602,0.00879836722344373,-0.00318837503994689
-0.00379496063304207,-0.0278421070403715,0.00542263329162534,-0.00368923317826998
-0.000747503393819692,-0.0241555010366627,0.00256929741456525,-0.00302253333066109
-0.00164009322142385,-0.0143948045261932,0.00596183916134236,-0.00160563754548994
-0.0147513030319627,0.000473024184388993,0.0106793958109617,-0.00143367980691461
-0.0299492794469884,0.011481652368064,0.0075737338952268,-0.00293218694473731
-0.0318761734780583,0.0164164794354367,-0.0025097014905464,-0.00395516780286096
-0.0247010838685571,0.0253751736417841,-0.00750643661971924,-0.00300554541727849
-0.0206583673690915,0.0334566128697678,-0.000794226607887231,-0.00131345893756687
-0.0206457216421591,0.0255362430273403,0.00691286775935182,-0.000754008861172375
-0.0221732245496173,0.00319545941299531,0.00701772996512423,-0.00106576912039832
-0.0249157246279833,-0.0282285843695078,0.00843190176882296,-0.00114011415296546
-0.0260437256397407,-0.0612884493999455,0.0183814569562403,-0.001098692980903
-0.0261849486836705,-0.0835201202536199,0.0277646523693423,-0.00111098462289125
-0.0282818328459257,-0.104275827068886,0.022731294367719,-0.000316699072265748
-0.0261712128784888,-0.115422264474094,0.0138612368386394,0.000458017623689518
-0.0161115296550568,-0.0904068277005894,0.0184387640255617,-0.00169454496402686
-0.0115505903127233,-0.0597972125822874,0.0255044952841705,-0.00606305325492529
-0.0213253536331237,-0.0495907598954278,0.0232204378668227,-0.00839656879481464
-0.0310973471861619,-0.0397789770648633,0.00983997381756802,-0.00700914096223399
-0.0249011843084799,-0.0347887037623468,-0.0134228106072411,-0.00326518930049276
-0.00809935376786246,-0.0282433637184591,-0.0355087094355474,0.00135631458752095
-0.00439718136983474,0.017897999962387,-0.0422302130603665,0.00593943666574626
-0.0272309008769907,0.0554292417747217,-0.0283197577277011,0.00930049706355971
-0.0521915436282046,0.0420953657011476,0.0015868057121483,0.010987898413055
-0.0564320077491163,0.0778590901424403,0.0354866935160805,0.0123508943284491
-0.0665165181982411,0.178356476599717,0.0494960138676575,0.0128743281481684
-0.0998536395354931,0.225562402693631,0.0383214114823831,0.00814651590706053
-0.113755467543427,0.20123604159412,0.0224103617211246,-0.00351223752743563
-0.0710420722427214,0.157555133797637,0.0134759861296365,-0.0160310367489753
-0.00960017238291214,0.0918632842098129,0.0104413039877693,-0.0218555616817095
0.00579514524072865,0.00630185722337595,0.00607183140605651,-0.0194592683116592
-0.0112286596625357,-0.0518296197032111,0.00239573393357505,-0.0123019689476028
0.0118920774302871,-0.0913453173233541,0.00496089075639132,-0.0042725245293538
0.0766084385778275,-0.172482464885827,0.00134039394352831,0.00302507970122291
0.119266124417978,-0.243031467920407,-0.00777484194667341,0.0103356513024385
0.115917574151001,-0.181276848984049,-0.00281716765959927,0.0160634087040975
0.0765959362454312,-0.0322193771025754,0.0107867163447138,0.014207577150598
0.0264025886265645,0.0566979387641365,0.0157403448061267,0.00361420391639479
0.00131950981664157,0.0576619063055097,0.0131815827927242,-0.00717666494944284
0.017830381482531,0.00411575230046589,0.00653203064138899,-0.0104055797868983
0.0544634270860384,-0.0561368943084981,0.000253342639818655,-0.00650968860521618
0.0638137300795817,-0.0556986337758154,0.000834347300771529,7.63037563280954e-05
0.0298500586929572,0.00131305410177737,0.00109819468582796,0.0063433968042534
-0.0185892423856581,0.0632326900606449,-0.00862521402787107,0.0117267373632079
-0.0462339686614563,0.105634238498977,-0.024244746047895,0.0164015145762652
-0.0424804964892517,0.131101856287894,-0.0320590635152752,0.0197163280439759
-0.0242088446969942,0.137142242858072,-0.0254683827035072,0.0200581625935501
-0.00558586071255389,0.107468569972407,-0.0115086235493562,0.0171393035454719
0.00776178660682125,0.0431243311273374,0.000348773935015631,0.013044152590766
0.0101995425482688,-0.0294422626114463,0.00324207834104876,0.00883466771699611
0.00756683353847759,-0.0598083107762394,0.000315455509306756,0.00334391137754719
0.0120584684039094,-0.00977123704173682,0.00692551334745043,-0.00340442708623077
0.0258203693848709,0.0648656959771828,0.0212647875308016,-0.00950626392526282
0.0422713592292803,0.0841196651776517,0.0244123410851782,-0.013574365015062
0.0546395717726272,0.0557660692125922,0.0158364737659505,-0.0152157024672364
0.0590314427071609,0.0258961753579413,0.00745847045811534,-0.0141759462954156
0.0579919513956857,0.00897871266033057,0.000865320112659135,-0.0107022724209674
0.057508625909963,-0.00405429864428419,-0.00599878592703639,-0.00589468798056187
0.0577745240138988,-0.0183163241174149,-0.00861461646743303,-0.000830237476927306
0.0562701855954951,-0.0301991001049024,-0.00463738574767851,0.0036817860444511
0.055025105787628,-0.0407290029320262,-0.00263861753485549,0.00652547530073993
0.0609713203379516,-0.0683489024722986,-0.0110138382772854,0.00702574915760586
0.0739580226065022,-0.103897301438291,-0.0238995464282082,0.00586484906280072
0.0791373477453938,-0.0915665583939634,-0.0253910804491232,0.00407494102792216
0.0695338606148639,-0.034801780789392,-0.0105360795700638,0.00206450377257823
0.0522273696733766,-0.000381515623214937,0.00631569790640188,1.39466875801846e-05
0.03105374688127,-0.00206745813606884,0.0125806904524686,-0.00152303214575154
0.010731460009551,-0.00424131616801444,0.00991259362379205,-0.00206101518610959
-0.00386367541863879,0.0116043914593009,0.00155928327519098,-0.00184192986788764
-0.020405466006497,0.0358930164663777,-0.0104468468053962,-0.00156530822430226
-0.0346346867051161,0.0501384971234331,-0.0210566631869096,-0.00170285400634942
-0.0222834550574126,0.0495957397132742,-0.025404124191881,-0.00206847807709208
0.00926213627181884,0.0409527550788163,-0.0213593861902652,-0.00236028134269248
0.0271603813975941,0.0234854006557418,-0.0149115747147993,-0.00258923868519886
0.0260377350326945,0.00442691873484783,-0.0101555015600996,-0.00287203564162203
0.0185407706157174,-0.00177932272942696,-0.00210434003131438,-0.00375369953761757
0.0111666826483114,-0.00294956581450853,0.00573583443416666,-0.00534409375406426
0.00673436638926583,-0.00727654807833494,0.00616642155078762,-0.00651346179809453
0.00401470619083653,5.53306495393729e-05,0.00552400978961268,-0.00646592246340732
-0.0115244433018226,0.0219930739785245,0.00559576591143467,-0.00565512854459189
-0.0517340056340704,0.0308799940777562,-0.00160686191031517,-0.00468443690867091
-0.0892948287854488,0.024560651568708,-0.00787467360397248,-0.00394826303167876
-0.0879445697373206,0.0310416175965787,-0.00186796157922278,-0.0042276097532942
-0.0527928028613974,0.0435486693155863,0.00625580262746536,-0.00569919109713987
-0.0185086909404288,0.0540254939468228,0.00610673745780617,-0.0074494666928739
-0.0173964354810922,0.0665199847635607,0.00519342949684699,-0.00880179809227549
-0.0417889069993949,0.048126805359051,0.00635431925337898,-0.00929856944605526
-0.0442721306679699,0.030321293125438,0.00959567590752268,-0.00773060363931086
-0.00366848400170636,0.0672944959353697,0.0189543627697861,-0.00446906393648764
0.0547520533762879,0.0289822064205151,0.017138904632839,-0.00176812138865551
0.0858549187008595,-0.111022325009081,-0.00693830421513175,0.00160557494369914
0.0509326146310021,-0.119292229039581,-0.0343890869165582,0.00800983103988943
-0.0197148730603207,0.0122209179367645,-0.0521310682370593,0.0139722085856197
-0.0546899441640474,0.0444975052500991,-0.0611446140867691,0.0148292298464057
-0.0254001897415027,-0.0109134874117813,-0.0507385926861695,0.0113343592728264
0.0404613888083893,0.0195946474858424,-0.0143665701158265,0.00434968502853794
0.0929144252409268,0.0590328673855091,0.0163615174689137,-0.00719085281671451
0.122006275899443,-0.00607839190517737,0.0176864901643543,-0.0186644522636355
0.12233790046869,-0.087306209790798,0.00741588192384183,-0.0224224364274279
0.0667150650721743,-0.107778085382452,0.00191993196469476,-0.017176350061198
-0.0249788415761119,-0.0939895138350075,0.00373999459443784,-0.00803014243264256
-0.102808738871556,-0.0782379122236223,0.00988615651277622,-0.000752516577189345
-0.137654721951567,-0.0813679053062669,0.00394212027660736,0.00239911213405783
-0.120261962549435,-0.0900965161125611,-0.0102618393518092,0.00368367968021832
-0.0751658838615717,-0.0512705814649604,0.000810866591143153,0.00572021416820796
-0.052443681637044,0.00604947708259906,0.0312805585257849,0.00704779899545613
-0.0523187302451088,0.0178200816268931,0.0385699111781507,0.00584131116057861
-0.0235717001893161,-0.00205716202915614,0.0173724457676029,0.00383597830764545
0.0381458514187468,-0.0108637316184325,-0.000871071584738398,0.00291448639068555
0.0831314321189674,0.0126142992261422,-0.00693400491676334,0.00244608705706411
0.0921752699435466,0.0555086966969248,-0.015076235679503,0.00182565591394819
0.0868133078433177,0.0828094936810181,-0.0244995747860698,0.00174267233995931
0.076996592954078,0.0728072883728936,-0.0282780835173116,0.00229144659029375
0.0510359996800857,0.0329123192064515,-0.0275296977640515,0.00285223890658387
0.0129368080905157,-0.0115350655262938,-0.0181455553201389,0.00143301251611398
-0.011070284219567,-0.0360028244792589,0.00275168250028933,-0.00481923690057043
-0.00713972224986472,-0.0404721054478921,0.0222043492352983,-0.0136898945143831
0.0156882181970268,-0.0503015731487309,0.0288146817937855,-0.0183047460333882
0.0424382111482359,-0.0792748565608814,0.0262792458962853,-0.0159570270725631
0.0676356652131755,-0.110399578619114,0.0194824871204749,-0.00921055122373748
0.0711996801294365,-0.125425188553984,0.0114875681704054,0.00047262688397472
0.0276625939069495,-0.130507736951673,0.00551859038904367,0.0116496963999921
-0.0382050369294478,-0.126722263404247,-0.000339973997779261,0.0187709508001815
-0.077319014529359,-0.0986174623752189,-0.0112725659302072,0.01810802929064
-0.0714684712302151,-0.037167531202803,-0.0238743356394321,0.0138123355957356
-0.0380630733151835,0.0460692701276276,-0.0276747699446138,0.0123277847568208
-0.00542948719158402,0.105781113271329,-0.0264572582759895,0.0148314920424857
0.00910288265597489,0.109337084821802,-0.026686349537301,0.0174400262853353
0.0030813456769893,0.0807469727317236,-0.0233360614350419,0.0170563461608731
-0.00920445159246945,0.055375228136317,-0.0152478893075926,0.014309888559674
-0.0125018049305849,0.0387677742370743,-0.00371844298581063,0.00953412703356743
-0.0104054778724751,0.0229973625663743,0.0100689363878482,0.00113136053490653
-0.0109967967626095,0.00808524386774431,0.0178594758295336,-0.0103364509378533
-0.0132882863813386,0.00406413507741923,0.0108779582851218,-0.0207532860837856
-0.0145030942710545,0.0174297557043086,-0.000663265432740592,-0.0254186080892872
-0.0127386756363899,0.0355166045548568,0.000379616873598353,-0.0228091726146187
-0.0081296604447351,0.0443891037188296,0.0065955562669975,-0.0155170829262164
-0.00382331741451306,0.0439281107178383,0.00645697125633248,-0.00694637838788439
-0.00123301216650971,0.0391687323466068,0.00285154811335971,0.00147658505894102
0.000393316479006995,0.0328544717397315,-0.00170662946906389,0.00921569999025987
0.00247007524483491,0.022459221357977,-0.00645149740692772,0.0150466843791771
0.000520306772666488,0.0129970266046653,-0.00971328848369197,0.0180410269088803
-0.0196595737011506,0.0133860219307193,-0.00973049036084467,0.01857849300606
-0.0597859343398419,0.0198962586176311,0.00173376893695655,0.0173165279549401
-0.0921757799604194,0.0229371382062121,0.0230288667800696,0.0141314084716769
-0.0856792240798752,0.0169339777204851,0.0305580523944337,0.00936063810755844
-0.0465870291804394,0.00616418005792317,0.019584496258285,0.0048743479583442
-0.0138241691303974,0.000107505555563912,0.00877979624750779,0.00239215611636594
-0.00887408158372596,0.00185705146040905,0.00270316473332614,0.00207719332953344
-0.00778756233286155,0.0121525713622784,-0.00237576693735416,0.00304129615260537
0.0103131502630295,0.0328600318121521,-0.00518817030868001,0.00418087544228942
0.0156908033767219,0.0605672036269356,-0.00728146630838839,0.0046683885175904
-0.0111694559629097,0.0858178742623007,-0.0140965503621798,0.00461632074077878
-0.0381766224784883,0.103902255772904,-0.0212293777690101,0.00467916016008247
-0.0483570872690776,0.11764003386048,-0.0173575210175736,0.00436423174569739
-0.0546308957105076,0.130500422455963,-0.00640813451336895,0.00250778467031221
-0.0492059962069565,0.125277248438258,0.00504921897089846,-0.00119325980189266
-0.0195899216426862,0.0561568845997765,0.00876474942932211,-0.00604898132828838
0.0172629358971277,-0.0488483210934809,-0.00244169986804694,-0.00972509142327998
0.059523212331737,-0.0511991883512131,-0.00552271839677198,-0.00996161738107813
0.120815971001661,0.0372459955692072,0.00544183769853825,-0.00871763956719137
0.169322884398581,0.0226407405770783,0.00170937485697825,-0.00900295487245288
0.169790734075586,-0.085395185180929,-0.0164266915217937,-0.00971863403719044
0.130095345851607,-0.125984886358991,-0.0271022331843233,-0.00872599714859501
0.0671652759699773,-0.105090087851314,-0.0259317012269646,-0.00592393333862629
-0.00995314429404781,-0.0926843667957081,-0.0267664676070631,-0.00266236146645925
-0.079804735382264,-0.0451420968292637,-0.0250183144494168,-0.00091520146798096
-0.106966709807202,0.0575684211884273,0.00894911387657406,-0.00313290251972478
-0.0867499201624615,0.10076635061116,0.053345171682452,-0.0102974823992264
-0.0681871983696077,0.0564799484627116,0.0633553478497282,-0.0174278063753838
-0.110072824108437,0.0388198462067446,0.0544053985891684,-0.0176083807561387
-0.196135520327204,0.0751479322846389,0.0489780644774318,-0.0112476931414485
-0.237155436895668,0.100013943963456,0.041892232628586,-0.00310363848006497
-0.192639194262378,0.0900174295281408,0.0336477917188101,0.00564892369687242
-0.110579728511929,0.0552306483357545,0.0266921603275923,0.0140802357891047
-0.0425456282318102,0.00858688222327485,0.0178522280251591,0.0181043929380075
0.0048660916144268,-0.0372873014374448,0.00268914775738761,0.0158187704432127
0.0438264558161214,-0.0884334531597085,-0.0225654745531408,0.0100858551830795
0.0756465789476622,-0.12407652659275,-0.0468887652856494,0.00509269863392087
0.0948480215946479,-0.0976792576183389,-0.0512597913671692,0.00175227071055561
0.113563636142104,-0.0373192810379661,-0.039166135642237,-0.00196609463842507
0.134811719969116,-0.00671587735545404,-0.0278325960668311,-0.00701194833710216
0.141032437177777,-0.00609950562108093,-0.0202169921665672,-0.0128229086962046
0.1311474297338,-0.00315978105745335,-0.0121335185828851,-0.0181849717762795
0.111313247980079,0.013286375740458,-0.00366014412760989,-0.0205467219775787
0.064752066184874,0.0406612073636968,0.00328962149552002,-0.0178580250951071
-0.0246384511467374,0.0793416081281499,0.0103894959407362,-0.0115672591942289
-0.101783565478597,0.106452237415652,0.0209457111922623,-0.00533859699111394
-0.0909335278251974,0.078505746197575,0.0271903789084325,-0.00167922858112278
-0.0189059815921316,-0.00265772143608889,0.0221112813257305,-0.00035576844845927
0.021317437229812,-0.0716355693558235,0.0136721315581567,0.000471778367542578
-0.00985508465626801,-0.0792801214721777,0.0112459684964671,0.00170559694963822
-0.0685831602794141,-0.0490311279630338,0.0150255459155843,0.00259338111485865
-0.0989481483446059,-0.0315996579034024,0.017723339849063,0.00270370084842128
-0.0924446582116667,-0.0457337133697887,0.0118658464424707,0.00382563990898819
-0.0716752218592631,-0.076037125524071,-0.000934113091270285,0.00799610368898108
-0.0552395184101378,-0.0871511271517247,-0.0111411709437854,0.013599716962165
-0.0373630996825497,-0.0612032201124418,-0.0127457702822154,0.0163378157088956
-0.00275772796900897,-0.0263215749300116,-0.00930666669577761,0.0146869500569933
0.0429729750537195,-0.0101964991136037,-0.00725067638900148,0.0112601145478662
0.0714845778313194,-0.0128731248539393,-0.00677744946407771,0.00813420585817975
0.0558716176543374,-0.02331273871605,0.00312916113555012,0.00464679439164539
0.00585185218308142,-0.0350562653388071,0.0219371418077024,0.000495417180864852
-0.0281238153620141,-0.0482137097604485,0.0314120982113493,-0.00245592245541827
-0.0129139178154457,-0.0564394748449999,0.0352836369654528,-0.00295906291146501
0.0205998929237455,-0.0550830359794724,0.0430547300622172,-0.00322171776588266
0.0256218037105559,-0.0552459912582217,0.0433753019512877,-0.00610933104587733
0.00693503949042749,-0.059601465980153,0.0339882379035456,-0.0105911033933365
-0.00423179916188567,-0.0505744472229364,0.0269053732236591,-0.0130970026032213
0.00135245188884728,-0.0351891460046662,0.0235125868061288,-0.0116569881935622
0.0297609010740694,-0.0418479243759047,0.0108204594975898,-0.00641399831597672
0.0794761032725703,-0.0734908672053418,-0.0174518089051114,0.00252247731680615
0.108791407825946,-0.076524674232769,-0.0447444523931708,0.0145640010838284
0.0916818629519984,-0.0107261785071846,-0.0502485586006808,0.0251515335423736
0.060038830788425,0.0523220895209979,-0.0341513368513452,0.0273340956346886
0.0446984499242466,0.040344211393445,-0.0165002151867205,0.0195852380290044
0.0511691617615785,-0.00770741130429793,-0.00569012847328162,0.0080081241813731
0.0798100993696636,-0.0279624706142997,0.0108002396882482,-0.00148148314338119
0.105011168251793,-0.02734058859767,0.0272076133316716,-0.00786662230336666
0.0971502459961621,-0.039327250451168,0.0276509408800177,-0.0113005262661977
0.0625841819393317,-0.04685020448438,0.0188662564280333,-0.0114393770164156
0.0291058522306228,-0.0376183808594033,0.0109592264510418,-0.00949027639415334
0.0258664397346104,-0.0297414000237542,0.00401762715703021,-0.00745611087199299
0.0370949418327337,-0.000481079963358088,-0.0039020697179069,-0.00585102609740775
0.0222417211530113,0.0662858046295408,-0.0125211840348019,-0.00500959865947562
-0.0165359916215746,0.129515943420826,-0.018089021156949,-0.00769742888357458
-0.0424081789353555,0.158458395359864,-0.0198775321665343,-0.0148383459382132
-0.0306405715808208,0.170277888415311,-0.0152795869671323,-0.0213672207259641
-0.00472475347980745,0.192603199608343,0.000499020043210056,-0.0229817497487621
0.00184560690205722,0.202162863183697,0.0158824391810296,-0.019491623346442
-0.00571682577021672,0.12159565936772,0.0138434065220485,-0.0101074819698202
-0.010074380700158,-0.085986388104079,-0.00101673472108169,0.00518885206618116
-0.0132701134927583,-0.300993207689021,-0.0133057077692148,0.02075876876499
-0.0167063383016768,-0.348262026217405,-0.0161205918146099,0.0282893903780922
-0.00593597788708565,-0.227656654252742,-0.0139144883387727,0.0263888785936025
0.0198202574625702,-0.0690967069911279,-0.0134237776542609,0.0220278532408103
0.0302145890219147,0.0414069532304429,-0.0132722732622144,0.0195189231941807
0.0116361848402037,0.0912067315514148,-0.0112121615807312,0.0154036684826122
-0.00634641897912289,0.100461850738565,-0.00901948812906402,0.00695642899183296
-0.014547524310299,0.0898841054242098,-0.0105677246562845,-0.00248262971023436
-0.0301075362984715,0.0693625002241432,-0.0164013135916861,-0.00896021266419049
-0.0477744666527457,0.057338585583593,-0.0162308308261954,-0.0127287127371965
-0.0513609198735024,0.0664899042361638,-0.00530300222707901,-0.0155560928917125
-0.0325176673627206,0.0723026623119066,0.00505244098282246,-0.0173617785960837
0.00437707484187841,0.062310939789548,0.00777737602358738,-0.0171843145521258
0.0360671724256864,0.0541113484719337,0.00545888226366908,-0.0147556851321151
0.0444357159884822,0.0582111023750632,-0.000872372896778432,-0.0105919795657766
0.0503805315108078,0.0762389671039085,-0.0102540671232645,-0.00552573428140826
0.0615049194425237,0.0945844403238989,-0.0177775838509094,-0.000689567834343811
0.028550855331743,0.0808230527846482,-0.0185038169155783,0.0033037654283765
-0.0471672168301911,0.0359851796330797,-0.0103736538217148,0.00735162677194615
-0.0958551597609394,-0.00180227174921008,0.00249707970977693,0.0115943510308527
-0.10453311307264,-0.0393113049180822,0.00472603251136148,0.0144541543157529
-0.0968510302768921,-0.0880657494539693,-0.0115652165054629,0.015725454711691
-0.082553292134107,-0.0971102581509185,-0.0265392808638314,0.0158756735023104
-0.0875243331559512,-0.0544975402328152,-0.0255097036563693,0.0133154333273142
-0.113923792599149,-0.00569455670365644,-0.016881121739157,0.00817506200259353
-0.131494337868678,0.0240170627495349,-0.00951530176504103,0.0040996157717639
-0.12281850535134,0.0348353487052155,-0.0107051257049337,0.00247581741867635
-0.0985447388291629,0.0465440908234754,-0.0163611849003584,0.00129727525673387
-0.0903536340715552,0.0606970491197356,-0.012992957639376,-0.000427969794744083
-0.0973708313311623,0.0543721994747054,-0.00257125038731047,-0.00200841176693432
-0.0895774144382603,0.0203885450635456,0.00513932487237346,-0.00282624440325918
-0.0771764307524054,-0.0488438351537426,0.0066658185623403,-0.00246828973574535
-0.0763971726674558,-0.133695107441051,0.00447686060608722,-0.000436597691378641
-0.0519046385375786,-0.162651302241883,0.00485991149154907,0.00304607637745225
0.0138568329793609,-0.121482460931575,0.00994041869684371,0.00596983778533783
0.0814690028201377,-0.0613199503124323,0.0168402269032427,0.00595929019313547
0.104352356482019,-0.0139636282124226,0.0192838515472283,0.00332682968646585
0.0734010133453744,0.00712582861021507,0.0131060519900528,0.00116659386187601
0.0248504783263169,0.0240523737763345,0.00584767565551011,0.00158336512304052
0.00571401167188887,0.0577671199373491,0.00492844191733172,0.00288960481479427
0.0419721832218325,0.0892404564629375,0.00717038994919624,0.00219817001176161
0.0831468740135497,0.0986787026202122,0.00741722058905253,-0.000996042293186832
0.0541706408396668,0.0665333471465776,0.00264174710901017,-0.00497519363202131
-0.0116362526873808,-0.00414090724028229,-0.00679463407350732,-0.00781969494566576
-0.048736848113494,-0.068661836981442,-0.0146731464125213,-0.00879973702599492
-0.0551968726288636,-0.0865303501131297,-0.0152638938334572,-0.00838704269935043
-0.0426038600537116,-0.0649679471660904,-0.0098379407676617,-0.00765417514584179
-0.0266744948445222,-0.0394286404842601,-0.00399833518684425,-0.0072309718755387
-0.025634567181046,-0.0242995846172773,-0.00187350726955454,-0.00662236428102966
-0.0396480098524545,-0.0069644211143415,-0.00332640059531929,-0.00504673836175876
-0.0545359865332555,0.0223864047828828,-0.00660048293041583,-0.00243177554415094
-0.0384594604928422,0.0514913733893016,-0.0107583275717246,0.000653431249479216
0.0130474496376119,0.0636354812699871,-0.0115342033250909,0.00318902278677643
0.0670049119982753,0.0596593495133194,-0.00586381597360585,0.003462517843619
0.111951680542539,0.0479546392226965,0.000662611758040367,0.000644566768115775
0.146150798211678,0.0301598152718238,0.00117988515161483,-0.00301298392287922
0.155220871702903,0.00885268506341452,-0.00370077989543069,-0.00401390846245293
0.141112125895529,-0.0151614857387646,-0.00643423950192846,-0.00216900750014776
0.122809244535975,-0.0651092295226456,-0.00468144438775746,-0.000967509607312986
0.0989619181543703,-0.176390648099642,-0.0113127997742921,-0.0013780514962589
0.0623233226607499,-0.259833289839323,-0.0235178002934444,0.000108796997316932
0.0134974772088325,-0.135542212644599,-0.0113315503060959,0.00321940179347833
-0.0518982880504211,0.108148657355538,0.0219099967811337,0.0014117006181113
-0.107102504809492,0.199237284689321,0.0388524922827098,-0.00677498678196319
-0.10891907389018,0.122391995801124,0.0326147464167678,-0.0136076798906569
-0.0624112175315727,0.0396421377954367,0.023395888429255,-0.0133396768434388
-0.0128760651172667,-0.0043030190922806,0.0144896077141142,-0.00790513414280107
0.0121327665313663,-0.0263082822186967,0.00311359949356663,-0.00151921223045332
0.0244090400406353,-0.0138315754084488,-0.00174679377393058,0.00272103980799514
0.0455944659721691,0.000657625670245245,-0.000877560141837701,0.00253127943442429
0.0669435607247559,-0.0234972237389858,-0.00290339360721358,-0.00175186694739418
0.0651693513704184,-0.0780033529663979,-0.0112482870449819,-0.00595458345168732
0.0453277117494795,-0.0929896151470015,-0.0193884905618232,-0.00567319278342083
0.0225783716059456,-0.017459244857224,-0.0187061882245673,-0.00135865650348495
0.00521158252509177,0.0679832272466347,-0.0130864219994458,0.00267507825462779
0.000597601095116724,0.0892158301672912,-0.00715893431459675,0.00427911204758867
0.00212575934744999,0.0703668353085625,0.00104874868917847,0.00448052222911213
-0.0039581304145172,0.0171181370039296,0.00195932045928808,0.00439047138679268
-0.0189258446562476,-0.0688611263048179,-0.0133931659482939,0.00593333129316678
-0.0264606645175969,-0.087417070021134,-0.0187378955831448,0.0100986001665736
-0.0135984041657289,-0.00645382950436958,0.00250168578017755,0.0113127184968037
0.00522854158425254,0.0481374888542608,0.0168603971622139,0.0033175786977111
0.00840399818790132,0.0342973778991784,0.00908551026609412,-0.011364081306197
-0.00307401717542586,0.0166739804531787,0.00561299030103747,-0.0250373753712464
-0.0190073575789268,0.0171679103276289,0.0200401977475514,-0.0318325120078429
-0.0393467111637584,0.0260151130067904,0.0390432297220767,-0.0289308668551817
-0.0618739868024065,0.0352033193734794,0.0439678103380233,-0.0167984155015109
-0.0773162444306945,0.0381764407259323,0.03419797594585,-0.000398377000362569
-0.0851417933087343,0.0309299188040023,0.0230203950347629,0.0136044813187718
-0.0933293504303027,0.0174889820056884,0.0157605165740691,0.0223762960680758
-0.101549130203214,0.00873347954928494,0.00806632845006541,0.0274131760363519
-0.0884531331602923,0.0130075039687899,-0.000451794353426783,0.0302083360025718
-0.0368845498993252,0.0313434679562476,-0.00619364319776781,0.0307294407340398
0.026086910979053,0.0309341965830763,-0.0179869036593342,0.0281936942269573
0.064595098515576,-0.0135647928636408,-0.0340737802274971,0.0212752110730249
0.0803905080893538,-0.0783153997632736,-0.0387074613700944,0.0095659481270861
0.0871104742211803,-0.0949085693587403,-0.0310307177079187,-0.00447721555991926
0.0847879433136981,-0.0105513291300244,-0.00954204398609387,-0.0171643741809549
0.0686592711794732,0.0800062032373873,0.0171490353950129,-0.0262844807404917
0.0379523871168688,0.0710126549082489,0.0276762562117642,-0.0291907751763454
-0.00546802094986726,0.0147558004548377,0.0208359478439288,-0.0239922619301632
-0.0448737592232843,0.000952172196191356,0.00740293036793926,-0.0137118982867238
-0.0562417906310403,0.0336023490997938,0.0022356583248791,-0.00352913244747054
-0.0464181217963254,0.0529842768744003,0.0129900626320665,0.00362034780608703
-0.0360130605775854,0.0325271121419534,0.0175614503394128,0.00733914442046671
-0.0273330832586748,-0.00919208852880853,-0.0038024917995139,0.00939250195663445
-0.0123675073939641,-0.0378510425755569,-0.0270932702989856,0.0118335471905367
0.0141000865218109,-0.0416343360104307,-0.0212581058313915,0.0139873496527845
0.0408221543412523,-0.0601756888216365,0.00128412637560922,0.0138962971403687
0.0470166467051698,-0.0901135554722786,0.0175941692467287,0.0115808523052483
0.0318868167801079,-0.084215221110056,0.0277722633626473,0.00853575094014212
0.0130180614349225,-0.0445641302230004,0.0315865383455637,0.00613440697022449
0.00256658487150491,0.0017491622774149,0.027816396362991,0.00485252182473755
0.00330622314172684,0.0376899250467414,0.0226669778151184,0.00366247121666741
0.0145596685528755,0.0525804915571044,0.0149395185476818,0.0012401392163161
0.0283020393066002,0.055675980773607,0.00393513928760085,-0.00180567281707139
0.0370460894839532,0.0561108538029198,-0.00101393272542439,-0.00309153638014428
0.0415172742751101,0.0385358944968242,0.00286209583856986,-0.00150743621151277
0.0390529594864984,-0.00606344456987577,0.00539104273306085,0.0015747008565932
0.0236387017796418,-0.046223555211454,-0.0011562364192992,0.00458592718565996
-0.00868728978699688,-0.0470474250556018,-0.0097815625322535,0.00629053611817916
-0.0480726723646377,-0.035308798670123,-0.0146317349981841,0.00410176292214319
-0.073533986989911,-0.0410182697186085,-0.0192314013512122,-0.00283009887246906
-0.0774960470536817,-0.0413864884549039,-0.0211475964498481,-0.00978225238246703
-0.0633294092846579,-0.0310354930495301,-0.0161980918593451,-0.0115781785007521
-0.0231851990847437,-0.0344570540353831,-0.00716174217306075,-0.00829793788009741
0.0551876965801386,-0.0542617838669401,0.00409700244911334,-0.0030248346539048
0.158335309106444,-0.0693911802599029,0.016796797693314,0.00217727378440721
0.22643172275376,-0.0587487228113327,0.0254150932071305,0.00661066142577643
0.200792860019399,-0.0365795310448062,0.0310047252055852,0.0086442751715908
0.112384331437173,-0.0394968455799955,0.03024949680858,0.00643628271475247
0.0363065682614154,-0.0291735919237019,0.0172382140964675,0.00217184504483464
-0.00766998954548304,0.0272885166726634,0.00966659936446614,-0.00150119237012925
-0.0350841162746677,0.0530111088808942,0.0125760649916846,-0.00802097042274703
-0.0516630648975884,0.0260463699072463,0.0115868092099555,-0.019017989872606
-0.0569051980183217,0.0174528830757835,0.00406318627405197,-0.027116624094513
-0.0567009812436624,0.0486541712508059,-0.00958291215203223,-0.0250144915384643
-0.0531890622550918,0.071837341096709,-0.0270236844334247,-0.0127422753740725
-0.0339161870475677,0.0601235809166358,-0.0386045415812131,0.00471115797271832
0.00520194607883574,0.0382592059032506,-0.038388462394945,0.0202421209744674
0.041806976990718,0.0213186414050931,-0.0310782186407509,0.0276843004178098
0.059830654970171,0.00340461133586797,-0.0219784991536353,0.0258265473661997
0.0693743152146461,-0.0116607279599169,-0.00999149029544954,0.0183433271153514
