0.00369491344796344,0.00575132602546768,-0.000277574586281073,-0.00188277168679364
0.00100564960122624,0.00307285774153307,0.000660972353636859,-0.000307157344799814
-0.00188015325759963,0.000354214316037344,0.000288848329185962,0.00126482914391831
-0.0053639795021714,-0.00152526438758821,-0.00240152473339728,0.00180517875072635
-0.00637674783001811,-0.00504413425799658,-0.00526759172242217,0.000840873582928247
-0.00459658475806582,-0.0143438013050796,-0.00561508411266293,-0.000863850992164066
-0.00322487986741693,-0.0321952472146077,-0.00417224352514979,-0.00191827427989816
-0.0021791569098029,-0.0519900088288863,-0.00473738284504316,-0.00169380081125429
-0.00120777689961774,-0.0666759576765195,-0.00725920242846281,-0.000293026326611113
-0.000574500891335292,-0.0778017694939364,-0.00655166684179429,0.00212242354480586
0.00110799804867646,-0.0817523369959045,-0.00433252566288151,0.00470660223977465
0.00302811830740984,-0.0682256285825587,-0.00578418864328202,0.00562460053829473
0.0016925231702548,-0.0406422082838041,-0.00770889024871296,0.003967386253092
-0.0019474130118577,-0.0152086680109876,-0.00498657631874036,0.000405553954006225
-0.00645209747558419,0.00515293711501306,-0.000292074189329607,-0.00379001792852728
-0.0141624869563225,0.0373118412801171,0.00331826650430885,-0.00683064369183642
-0.0206819008370708,0.0797198614443234,0.0051570384671496,-0.00678802962302093
-0.0203635095688492,0.0974239681138905,0.0037436599855922,-0.00334171555149541
-0.014856159929458,0.0714930707370731,0.00130701711461522,0.00156115553643399
-0.00596622395525804,0.0294277065302891,0.000192938284260842,0.00537322740972109
0.00639566530235357,0.00284720748404994,0.000199790220951523,0.00669113826609527
0.0166731490169279,-0.0121827846838187,-0.00319659223206775,0.00533917342244618
0.0177932222608602,-0.0234338050902873,-0.0104579176957124,0.0013870168209448
0.0126627458090198,-0.0260692117460683,-0.0126280828792703,-0.00379937514543348
0.00670228910695454,-0.0228284758444047,-0.00938625766220541,-0.00691169002310313
-0.000921433663267885,-0.019470985084663,-0.00668146583969419,-0.00624948407020696
-0.00626317238268381,-0.0173717655631256,-0.00604493268600684,-0.00315870355301301
-0.00226417790954093,-0.0153730348560559,-0.0046529619064434,0.000921819131740696
0.00581755892661866,-0.0127781647159982,-0.00286836222120147,0.00543578740739433
0.0102397110426378,-0.0117870522046179,-0.00809059059400452,0.00916782633884631
0.012293116512649,-0.0127202539815993,-0.0168436573918416,0.0103563967636249
0.0171768486173162,-0.0143921503767234,-0.0217403517662173,0.00858111423606511
0.0234863827396399,-0.0187905871362054,-0.0233807204563625,0.00494361669107735
0.0221411743717044,-0.0238216633591596,-0.0185521300504659,0.00100467457605422
0.0123847899364742,-0.0208532510009996,-0.00777304429473881,-0.00178126239256339
0.00248541853572637,-0.0129408486145628,0.000186671849328159,-0.00298123264398472
-0.00144610937101113,-0.016529033394015,6.48933768674122e-05,-0.00334084056011124
0.00165687613129385,-0.0327422145164575,-0.00474657349167686,-0.00393314783367991
0.00785924743750412,-0.0459437342905687,-0.0065802541957448,-0.00506012204591
0.0111867192643073,-0.0491249665312832,-0.00495986279935858,-0.00567086966171145
0.00821817631439294,-0.0468620539042365,-0.0054024246970749,-0.00458468622391527
-0.000239388803896821,-0.0391695179301091,-0.00640827871351488,-0.00227297622485049
-0.00960970589853672,-0.0228677121964934,-0.00373784281102773,-0.000328027839228346
-0.0122228488744741,-0.00534491006991829,0.000676490618694858,0.000423787161896129
-0.00788202519374406,0.00511841983436728,0.00455487321907187,0.000163377470268605
-0.00465690036233036,0.0158068927839202,0.00760569407189447,-0.00038132914753736
-0.00584576049371262,0.0348059622697503,0.00939071573083893,-1.06956309130464e-05
-0.00531962964025261,0.0487964347280157,0.00674269222110645,0.00176844512848852
0.00440444839352229,0.0438633933657447,-0.00121584734055742,0.00387388982295929
0.0147742776190248,0.0320842668213705,-0.00539371714056446,0.00516688218042541
0.0122910420590026,0.0270823415389575,-0.00238308097479561,0.00545323614832167
0.00180065095463599,0.0249112171790309,1.15960575553893e-05,0.00453665690081908
-0.0034184130756979,0.0201585434942873,-0.00032870670969746,0.0022915835612286
-0.000546377477754014,0.0144250453726866,-0.00105301576332223,-0.000234042532797313
0.0052716070467034,0.0130578476477849,-0.00284425590834057,-0.00144106610293939
0.0117392015647382,0.0147469121818558,-0.00551279510081192,-0.00126892268308991
0.0175958690690839,0.00856321582848477,-0.00739469767181579,-0.00144041348361616
0.0204172868325069,-0.00874443081278904,-0.00823327578016817,-0.00293398262783882
0.0179420895490613,-0.0263662271979769,-0.00841818993266945,-0.00487150172889121
0.0110085482503997,-0.0350602211125385,-0.00645500335442192,-0.00611228080594262
0.00528884481897308,-0.0370787937538363,-0.000920916859288885,-0.00608468092954895
0.0006140154776067,-0.0368882487525499,0.00315424304173649,-0.00488059240060281
-0.0103403917930387,-0.0259091526660919,0.00311040602742504,-0.00333466387812524
-0.0259789561678271,0.00244314360848869,0.0050232616759029,-0.0019620869375978
-0.0363923619159727,0.0336014995980415,0.00977191229525572,-0.000565271012020546
-0.0348486879280344,0.0510625664784427,0.0133940339534554,0.00148862129821601
-0.0224986074467247,0.0528001889525678,0.0156106544130914,0.0047097962728404
-0.00940534201176542,0.0456732124761382,0.0147145959773782,0.00814135702910707
-0.00245630464711332,0.0374606434865325,0.0108240560654503,0.00985260899477503
0.00085005760941792,0.031636591469293,0.00831190314958491,0.00897605078982391
0.00468203323566174,0.028023103636797,0.00834159979296154,0.0063051708362526
0.00711627286568509,0.0208992371671544,0.00900794993550069,0.002951700822782
0.00449107025238336,0.0116578774230748,0.00922297912552921,-0.000750733478729138
0.000594689276639719,0.012809814041854,0.0108662018126966,-0.00420335228666787
0.000170759381191541,0.0214155390756666,0.0128789726390478,-0.00608289138429153
6.21883557584517e-06,0.0282320092465753,0.0113618810859812,-0.00593103219351557
-0.00442206958783287,0.0354076630480778,0.00819081997435304,-0.00442215430932769
-0.0105862146846417,0.0482337518806126,0.00651490794385619,-0.00250697595416789
-0.0149316528162922,0.0648862002362038,0.0052872415046577,-0.000715291915056486
-0.0166674213140017,0.0714111490194779,0.00204236857865678,0.000992359822322171
-0.0145091859689378,0.0614031815244423,-0.00276781721649076,0.00228294818775025
-0.00924856479596764,0.0419521624562745,-0.00743653293725448,0.00247575980799686
-0.00625424277848421,0.0216891732182766,-0.00967220659849911,0.00164641513819546
-0.0096820523753036,0.0148199678555132,-0.00387141950739981,0.000505212134244866
-0.0161174596760798,0.0192144490589307,0.00644853147878821,-0.000383227056012352
-0.0164585061834857,0.0118313712150381,0.0113350303362448,-0.000333325958873911
-0.00799835543283559,-0.00884806512499261,0.00884053300772684,0.000900729129045166
0.00240175695718094,-0.0246416314751427,0.00300510443277355,0.0020103537874939
0.00822697809528094,-0.0287155082148943,0.000224184410134671,0.00179810832263291
0.00760506629982902,-0.0231138355596083,0.00190775956689276,0.000922661678856474
0.00389635395084471,-0.0118413632981881,0.00575434288181939,0.000528135356835821
0.00431031491917078,-0.00363358044282102,0.00748537304640589,0.000628383087501387
0.00967212424526299,0.000143303478012342,0.00151647830518149,0.000311726360830072
0.0117960288825983,0.0035054146094526,-0.0051629025729371,-0.00110367499113402
0.00696489830289977,0.00489725616773826,-0.00596798994705193,-0.00320920397781938
8.70963127337782e-05,0.00291224884175861,-0.00627358240523438,-0.00486067109980433
-0.00454219811304593,3.71834305436212e-05,-0.00709853861979578,-0.00511309800589659
-0.00711011318409997,0.00109165898870936,-0.00628497518447291,-0.00356830488533087
-0.00987917643555607,0.00546457650360506,-0.00353073760335233,-0.000633649241130394
-0.0132062879345794,0.00858330432107186,-0.00114737423540113,0.00235472084523787
-0.0132704892293924,0.00876340230871874,-0.00432403632512107,0.00400783027974031
-0.00814204845635702,0.005651096552919,-0.00956278400283654,0.00367791295907083
-0.00331664221943128,-0.000985400679294792,-0.0102704802022348,0.00170206818104054
-0.00184161299689877,-0.00946506250298645,-0.0101710687399334,-0.000737459154921324
0.000718531760775123,-0.0147182140587277,-0.0123566691594331,-0.00272511196704784
0.00494972510535253,-0.0160583706412537,-0.0147956593173929,-0.00406884570748225
0.00770066212417968,-0.0177492493131037,-0.0157188362918696,-0.00468707953782122
0.00722339149268643,-0.0209548935998527,-0.0134649563525678,-0.00433928354849487
0.00450541579794216,-0.0239440653057411,-0.0106829078014538,-0.00314424069056634
0.00408213709554281,-0.0247135057033715,-0.0105138158212059,-0.00180600940987642
0.00595637427133788,-0.0219073953654298,-0.0114338203004164,-0.000691018597893669
0.0047359098439573,-0.0172080098963473,-0.0104465015357446,0.000249346833620706
0.00116244540089113,-0.0124593490116203,-0.00805532278377491,0.00118683485263045
0.00095984677418328,-0.0035451010879956,-0.0062843889134668,0.00253657256381249
0.00283054775164594,0.00936896690663929,-0.00236452004223714,0.00388884241568889
0.00267556675374882,0.0148673072949647,0.00228251369390149,0.00387593233615003
0.00221289347609395,0.00711051818908683,0.00129161721270679,0.00231076772327674
0.000685388617200026,-0.00426948233785237,-0.0039251470552989,0.000198755861742666
-0.00555708576496335,-0.00310482316359442,-0.00588382665661156,-0.00211643569215742
-0.0100937874773377,0.0121397642784375,-0.0029463351813975,-0.00422753718046231
-0.00641342242010455,0.0236124150925858,-0.00107198707282794,-0.00498257036530648
-0.00204387847111452,0.0178213097202321,-0.00338147954151797,-0.00386196222306034
-0.00109490399914605,-0.000557378889766307,-0.0057283361769307,-0.00156336130197684
0.00039918051121719,-0.0163887984968673,-0.00555016612880018,0.000421143875767972
0.00259419395197237,-0.0226173868719338,-0.00606009295277493,0.000962870709487658
0.00345510643676774,-0.0221626436761872,-0.00782790135520053,0.000102956398254963
0.00273318114937035,-0.0165661586432187,-0.00837013176901619,-0.00123739639363136
0.00281072416473115,-0.00858734346440784,-0.00729896511764542,-0.0016378462195123
0.00485393117619804,-0.00314516443545968,-0.00611949515017908,-0.000396394683404475
0.00758787203423157,0.00125538938294026,-0.00432762463949737,0.00181039639536189
0.00902788006110103,0.0069094210311207,-0.00151773663243014,0.00392842566616586
0.00807585553841627,0.0101232196582266,0.00152927105781031,0.00497301476530272
0.0061948839896734,0.0103673588588003,0.00277712588941514,0.00446100780775037
0.0054959300505198,0.0121224935970661,0.000645959212525292,0.00299808655388527
0.00421312962850396,0.0174774380111391,-0.000445336769341599,0.00144384189549371
0.00194518743637387,0.020870411575055,0.00152912114048584,0.000257816906255705
0.00010496500493956,0.0181309147673133,0.00382741945978193,-7.88984515079404e-05
-0.00179557408514767,0.0156647555074228,0.00452925814161184,0.000463504052907716
-0.00283177026644706,0.0152231502547476,0.00517594683096206,0.000987327794489466
-0.00351105342499817,0.0110807110187322,0.00855340907950489,0.000888349612674669
-0.00391673503131101,0.00227525425200918,0.0108762433442643,0.000231534995783929
-0.00160589781423787,-0.00707901487372102,0.00922838096051116,-0.000625378100999852
0.00384398163972489,-0.0125012428076024,0.00575930879500781,-0.0011548725192502
0.00949200226110684,-0.0166994484549079,0.00238613181048964,-0.00121744552228401
0.0126871994481328,-0.0227120938556812,0.00106142806500135,-0.000902521826951636
0.0126265899334457,-0.0243620008831198,0.00190420805971718,-0.000234331608701677
0.0105810167820177,-0.0196560412815024,0.00436822595655425,0.000720840973428752
0.0091843187301948,-0.0146631821507221,0.00833478403948018,0.00198340632789506
0.0109577986670092,-0.0128267473591275,0.0108681862083978,0.00333630548211976
0.0146978600194983,-0.0144378153716632,0.00865202694242813,0.00418082646166646
0.0157374552858768,-0.0169589036752669,0.00466388878045625,0.00414559844268622
0.0142816923670147,-0.0157485682755682,0.00326001786129192,0.00340751420900999
0.0118730891335971,-0.0107644638490617,0.00462086582929131,0.00234070679360916
0.00982993721985775,-0.00518107112867321,0.00594264276876702,0.00117317381815968
0.00835014871012412,-0.000968728712464929,0.00621364922305141,0.000216989061612509
0.0029061186732925,-0.000421984499655331,0.00780443578672687,-0.000339748895455229
-0.00751697110947044,-5.17469358411529e-05,0.00951681965715248,-0.000529943187340579
-0.0182280584202654,0.00375617286926289,0.00955797717970758,-0.000208774013545123
-0.0223803937305336,0.00613043082691569,0.00673704669041556,0.000446618930525263
-0.0168135512394725,0.00133700115611372,0.00142942512096188,0.000520302469139077
-0.00655945696142713,-0.00806433165496927,3.99878720947176e-05,-0.00045393168301381
0.00322357389525406,-0.0133496417810605,0.004385114526258,-0.00191269782135256
0.0117862873634701,-0.0122216229594372,0.00795542860142136,-0.0036026301734405
0.0155936319814387,-0.00983441942621474,0.00756769333321347,-0.0055619019447547
0.0131789209636641,-0.0103973697601925,0.00769340883885539,-0.00680722301158146
0.00909799542582346,-0.0116324798096262,0.00955426033721938,-0.00607208316097782
0.00609204092669384,-0.0132258400290209,0.00614625585735356,-0.00338094574537409
0.00447114947425304,-0.0158444314661352,-0.00302046944395962,0.000185511132496301
0.00343917275835639,-0.0127424555494773,-0.00845546733956897,0.00326284743594409
0.00340316098241598,-0.00217111340915232,-0.0076058997292477,0.0051541675577761
0.00529102311740461,0.0124568119847527,-0.00580251707101654,0.00602886503270209
0.00551315726729808,0.0320040773061102,-0.00354930114364513,0.00604782148805617
0.000897524464439261,0.04978106297639,0.0010002391428633,0.00579928856119659
-0.00167642557718548,0.0511802714071552,0.0051137748307237,0.00634898037338453
0.00281930194281837,0.0315753371501003,0.00114004539186615,0.00670567332839232
0.00964075424208264,-0.00156249890476805,-0.011140285555599,0.00356667505944128
0.0152019594786915,-0.0293177083671438,-0.0206529938432147,-0.00320601356806451
0.0175713071157498,-0.037547433803463,-0.0228432761952781,-0.00945753604283805
0.0159157292272797,-0.0368404168903327,-0.0208744483898694,-0.0121904444172669
0.0119156364114303,-0.0433031113219365,-0.0172567608288385,-0.0113843763946456
0.00692346869989854,-0.0626399270158064,-0.0139547877961891,-0.00835671759792741
-0.00122138156705155,-0.0891234599231323,-0.00974477880228139,-0.00477377035542513
-0.0152371054726652,-0.0985213668714649,0.00270717230539392,-0.00171144224333995
-0.0271868233678962,-0.0728894043248444,0.0179069871840133,0.000779158490291068
-0.0281267869703768,-0.0248173086086325,0.0195733617172755,0.00253354475683927
-0.0250242833765486,0.0216168781792574,0.0119944853569582,0.00295471500192043
-0.0255169316858575,0.0556435714255625,0.00792694593896752,0.00206839021961221
-0.0230140133243887,0.0790258732109274,0.00814599375853893,0.000883553383836946
-0.0107158689930065,0.0810306495182632,0.00531413221392856,0.000809674295139017
0.00491961033682794,0.0555422112842636,-0.0031257175054501,0.00227751204546547
0.0121691011013305,0.0229360290010191,-0.00983759668435679,0.00366198024469148
0.00732665205037793,-0.00199575230229977,-0.0110641343236419,0.00308127040346567
-0.000573356101533271,-0.0187394519405421,-0.00975958881004212,0.000867600344027926
0.000972139199410463,-0.0268374000200223,-0.00899663373335486,-0.00154479117384889
0.00989862059299207,-0.0266774044289601,-0.00981962494752775,-0.00312663423178857
0.0133009228549754,-0.0231647492676742,-0.0115311574942094,-0.00322674650144532
0.00880590123606149,-0.0232484895239213,-0.0125921172349677,-0.00210201534063801
0.00194988263896957,-0.0252332820716994,-0.0118381069873446,-0.000838425632489414
-0.00408399695262838,-0.0238655347979692,-0.0095419246802914,-0.000123244436346351
-0.00778107005002643,-0.0175419523464983,-0.00616588871152057,0.000278313047881842
-0.0101971538888648,-0.0105198462694923,-0.000490442671678007,0.00110163971183928
-0.0113031389279929,-0.0134227577594226,0.00453081008907174,0.00249603830756419
-0.0076620070684572,-0.0250530535563715,0.00404054479171538,0.00343021460569402
-0.00165748964097605,-0.0365706552801515,-6.80971738157583e-05,0.00296311501646437
0.00020005460411019,-0.0421223900475315,-0.00202480645322976,0.00149529790844115
0.000440834330894557,-0.0366713445606625,0.000812434243213217,0.00027715988244961
0.00425681609758197,-0.0247410658945542,0.00639581377789279,-1.9013346813253e-05
0.0118291202271101,-0.0167116494821666,0.0109318838911952,0.000185197706018023
0.01999756548816,-0.0129288618815254,0.0125739658891831,0.000105546084901765
0.023736662151362,-0.00342140843286049,0.0150782082051622,-0.000499792382357987
0.0209179943640437,0.0089708385872299,0.0193193824003577,-0.00093966801183729
0.0119935514323296,0.0123581542377009,0.0193114136333422,-0.000627955448367101
-0.00187139064048834,0.0130387593429319,0.014397189312236,3.14079537908618e-05
-0.0162643474928548,0.0242440306992354,0.0113374212172009,0.000781352296130747
-0.0272829966629362,0.0438353673520158,0.0119067310673169,0.00205412555036604
-0.0344594828006833,0.0607342970492463,0.0133668447702741,0.00370786612413077
-0.0370122200410981,0.0626002704666576,0.0147437061914109,0.00420628298660232
-0.0309076571413121,0.044809476399108,0.0115194908830706,0.00252395565027544
-0.0140220760157204,0.0214459588033467,0.00142164439374906,0.000266771389694134
0.00582325903040918,0.00456813398609544,-0.00739054417625962,-0.000286417574873382
0.0198198151589561,-0.00572822112985488,-0.010032593552421,0.000862181584141175
0.0270949948951334,-0.01205158012935,-0.0116510177741185,0.00182329576741941
0.0264899589785401,-0.0167512406163041,-0.0134495514530557,0.00126531652735463
0.0163981809098464,-0.0178585034708474,-0.0110938476717892,-0.000448235154073584
0.0046038027652838,-0.0175935074591783,-0.00437417334000655,-0.00215307817837656
-0.00237333036980635,-0.0181770215899147,0.00285792032576057,-0.00272378411940582
-0.00552299273366461,-0.0153958229166658,0.00643699425917734,-0.00194820740408516
-0.00578633873009771,-0.00911293803798384,0.00549622657134293,-0.000745394459882043
-0.00688060239022024,-0.000159506691922717,0.00376891996185533,0.000242800313485706
-0.0111552178183992,0.0111347946519132,0.00402263053630532,0.00075476109513135
-0.0189195157675021,0.0223259823897314,0.0047768290369613,0.000637958967084495
-0.0271222639517649,0.0340779497645093,0.00568258106094772,0.000296522319303685
-0.0258103180719345,0.0481221468745428,0.00858353873146052,-2.30215551696232e-05
-0.00964610313668993,0.0556724630990809,0.0097934533159835,-0.000287329832000823
0.0120864951055348,0.0432849288311437,0.00539190613455771,-0.000207173353623163
0.0212009209612519,0.0174616671755645,-0.000261727938543417,-3.8574767761456e-06
0.0143793380051214,-0.000721020146562824,-0.00264877894239567,-0.000316596740290676
0.00366213200001463,-0.00545904732495263,-0.00309315945626124,-0.00102475059506517
-0.00250905419059708,-0.00589871622496057,-0.00581631611998347,-0.00153976138882109
-0.00342230163970259,-0.00745417350376538,-0.01167190522087,-0.00205810230345348
-0.00430586481857015,-0.0102151718430479,-0.0150265780131809,-0.00315745735110596
-0.00829460850700339,-0.0143184213294933,-0.0142783194701411,-0.00471228048892561
-0.0113640988380128,-0.0173666248573072,-0.0125581710036867,-0.00605833915855875
-0.00940175024573528,-0.0149831851345581,-0.0106436450236827,-0.00650467394689334
-0.00669450457441714,-0.0086318107614766,-0.00923581476757466,-0.00574001572035736
-0.00786295261697639,-0.000925688222635671,-0.00726110483682659,-0.00418725277013655
-0.0105235110109473,0.0104555362261149,-0.00208598558806705,-0.0025629334304321
-0.01087600852509,0.0205006786953636,0.00394779223543147,-0.000687163205527031
-0.00757189835506494,0.0174913321399866,0.00458598823657924,0.00206970228537804
-0.00390879130608073,0.00313066195225916,-8.16450917141744e-05,0.00487853013539381
-0.00290321513271532,-0.00952282965796988,-0.00472087586826611,0.00599213655707686
-0.00352213913361111,-0.0132924811424571,-0.0065344747617343,0.00468863861494037
-0.00493744303813588,-0.00940173913453065,-0.00509091727986063,0.00178476785148901
-0.00665996288034953,-7.73536548169312e-05,-0.000581634526862001,-0.00109797153109546
-0.00697106043703472,0.00847114975997846,0.00403844421392624,-0.00293978431257201
-0.00572281558652542,0.00751084540274262,0.00312462378471584,-0.00371921858064076
-0.00400683489817892,3.57082662524356e-05,-0.00131114228000962,-0.00378321036837398
-0.00202182568645545,-0.00321290700444099,-0.00212229530555006,-0.00312397735807751
0.0015093994957817,-0.0021843973595236,-0.00237972359802681,-0.0016778263414809
0.00573532277410012,-0.00261878266097614,-0.00625228536760144,-0.000510261102209744
0.00659605495658348,0.000489277437480938,-0.00813575798601013,-0.000764621982825024
0.00564144423465298,0.0107420618613269,-0.00538736457830292,-0.00164256033534434
0.0048349418406267,0.0192174614188346,-0.00171870199099983,-0.00145003696810911
0.0025141958533049,0.021457934971812,0.000201336909686569,-6.04202189849902e-05
0.00267122203865726,0.0224591878788066,0.000315592771027122,0.00138793232675865
0.00829879831706157,0.0245017494103591,0.000888856412092335,0.00233142899699557
0.0155599650585254,0.0237368957963507,0.00188575950763265,0.00268122661676123
0.0196019072668127,0.0195744761368096,0.00165301331538224,0.0021370939014486
0.0212569510586877,0.0175867115163121,0.00111202679468766,0.000877506369446707
0.0233288696202331,0.0158911922308115,0.000983963231602844,-0.000500207989452266
0.023562273611575,0.00702139854735083,0.000983760206040288,-0.00124669544163641
0.0226720962932648,-0.00808320709752758,0.000553732270743804,-0.00024490883677045
0.0228636969471576,-0.0199509964936359,0.000283048715144295,0.00232404673011786
0.020852323197988,-0.0220408232879245,-0.000593049172191498,0.00450305860553986
0.0156613121402363,-0.0178172414106009,-0.00289317604877362,0.00477410732607339
0.0118492751163173,-0.0147238551739696,-0.00397009727038556,0.00317284597345622
0.0101052862159141,-0.015064128235305,-0.0051126843786881,0.000944585233618177
0.00357754829113622,-0.0128300902480098,-0.00870906528945788,-0.000275995386458515
-0.00999062870629288,-0.00218499273533829,-0.0100876843937614,8.67985735663208e-05
-0.023696631448286,0.0152392498491881,-0.004639390668857,0.0010112197213647
-0.0321767151587316,0.0316711708197389,0.00238215861445915,0.00169553464971759
-0.0339143219090038,0.0377962019247505,0.00590857961025158,0.00246780293838767
-0.0278708493874777,0.0334203402105954,0.0078879799191758,0.00335019420562694
-0.0169594545048359,0.0308206476394429,0.00730087570344616,0.00386583265783921
-0.00323558074425326,0.0342156528492836,0.00168096260887658,0.00374585115644364
0.0159626768732385,0.0240941330502227,-0.00589497661561006,0.00285412255186343
0.0347384046015454,-0.00805995227068704,-0.00996721342419499,0.0014661480103531
0.0405355916027543,-0.0341819623471854,-0.0118016614585786,0.000287090099655219
0.032479698999321,-0.0357056202175733,-0.0147764358178409,-0.000493431311887449
0.0206488636128455,-0.0295107099257181,-0.0181850448652884,-0.00121369653849413
0.0133034531074022,-0.0276012607382736,-0.0213796356449913,-0.00192799053644272
0.0113678954334124,-0.0260081045058497,-0.0231249317167115,-0.00235402944986595
0.0119249136854311,-0.0295571564515986,-0.0231494980046379,-0.00238030409186078
0.0130563905980728,-0.0411385287181361,-0.0230753177137838,-0.00213587621267079
0.0119870595497937,-0.0484029497710019,-0.022323035835903,-0.00146160755544549
0.00426531894762181,-0.0425723573845751,-0.0191864115557979,-0.000431290628579683
-0.0105897373565452,-0.0278959937884651,-0.0140410726897761,0.000194953417799704
-0.0245975024201913,-0.0109317154987969,-0.00813315960002446,6.90647152719855e-05
-0.0338293041063984,0.0129122092953682,0.000288876100025651,-0.000564662868783006
-0.0368305799059469,0.0442019966874899,0.0116461967384266,-0.00122033705855282
-0.0284454149287041,0.0545610647109045,0.0172396821165434,-0.000763494620177203
-0.0129435579142561,0.0286954082751159,0.0119188868664128,0.00137586405570413
-0.00136332877332673,-0.00357404726112139,0.00428827715538754,0.00407395664056329
-0.000746834648843672,-0.0168495598303671,0.00338510954399097,0.00572574521666123
-0.00456693370942389,-0.0174252478192523,0.00623643335776081,0.0051940322794245
-0.00435460943219306,-0.0197563196322444,0.00461119390823419,0.00263717035514443
-0.00385269062382579,-0.0276408723251863,-0.00230253279112978,-4.06163645511291e-05
-0.00456950655390778,-0.0332783583951397,-0.00928987002588574,-0.00144536736205733
-0.00508624891650246,-0.0294032103055453,-0.0113450062007043,-0.002367736136183
-0.00760994192331403,-0.0154818240378526,-0.00681611718615972,-0.00368986587153619
-0.0130479436302352,0.00460069864210411,0.00167663813523897,-0.00450878679719926
-0.0158420735970021,0.0179915824132903,0.00670944736703298,-0.00346621212447762
-0.00792182445175386,0.013938206197227,0.00155008807972046,-0.00086368956956142
0.00618377916161274,0.00418891611854385,-0.00818099354887601,0.00122035985051164
0.013916616590077,0.00258318595990739,-0.0131213084963702,0.00105661690215319
0.0122583368280248,0.00651403058035861,-0.0134872014878354,-0.00108357674227932
0.00818573444062092,0.011937435659412,-0.0114448117192267,-0.00374148843835477
0.00830349308612065,0.0141241613255215,-0.00802061193065538,-0.00534170115002201
0.0133695258535888,0.0100243401797695,-0.0025077045704951,-0.00462563037846015
0.0185405377831469,0.00200128663730348,0.00506372275705399,-0.00167866752411309
0.0209161225965381,-0.0105154003843207,0.00785902107423804,0.00212326898819967
0.0227094035167753,-0.0255113523818246,0.00383415491551651,0.00542303500748778
0.021801545028358,-0.0368159753735466,0.000346371794750498,0.00724278434652479
0.0143130152095078,-0.0395189652734391,0.00299648490602304,0.00689914443659215
0.00390307088467432,-0.0305100421922421,0.0112117544463981,0.00470889899988
-0.000389176277904385,-0.016280105803382,0.0189569689019123,0.00190219292971697
0.00561395073850219,-0.00853762114897375,0.0199908656859484,-0.000732095278262413
0.0139142785834397,-0.0109323191644037,0.0136207434381031,-0.00303865701754736
0.0151993863022082,-0.0158607796183817,0.00679813100054222,-0.00477683993557582
0.00506799235687744,-0.0121688619356418,0.00848646438239161,-0.00509726589503022
-0.00936675474100565,-0.000636556375776927,0.0137924270915863,-0.00340199933482263
-0.0129328237072398,0.0110567614492021,0.013084964715305,-0.00062055772045817
-0.00782110405542683,0.0170559207044716,0.00759443010051815,0.00208192635622374
-0.00559745450266401,0.01546926776168,0.00348907818200879,0.00431402434688435
-0.0100905233441068,0.0120611726414132,0.00669672715683091,0.00590886386555308
-0.0178120267661861,0.00640818531511616,0.0132334530500018,0.00672053152650677
-0.0192202340773497,-0.00497550981712477,0.0130797013229948,0.0060351029886269
-0.00725885725074817,-0.0117261099954341,0.00737161247446149,0.00293602457568796
0.00831524803077822,-0.00566736165331665,0.00583772714704801,-0.00159945122512489
0.0139803000586008,0.00295967034196542,0.00946355545802257,-0.00506828224315987
0.0135051945633984,0.00199539387094753,0.00845107452052351,-0.005941247457664
0.010615306243688,-0.00412261598156657,0.0018290616707753,-0.0040678190201114
0.00153754123215637,-0.00344247517758016,-0.000459615926733742,-0.000958459810693485
-0.00834187743065095,0.0068976782332196,0.00469193707647635,0.000351473015524081
-0.00899876459218161,0.0170291952002029,0.00907579359780634,-0.00148044364734355
-0.002069289142678,0.0162488466681198,0.00951783248002014,-0.00447390565691006
0.00332884658611894,0.00864500970919153,0.0113789913488137,-0.0057035834623288
0.00444356486977401,0.00157348592328573,0.0133421284762185,-0.00408591180275424
0.00304931428641193,-0.00544065307488557,0.0114613008444649,-0.000744292993060729
-0.000752410411982235,-0.0130295980638437,0.0080312520963312,0.00279854672343791
-0.00616792202640386,-0.0213810059590076,0.00602494543177164,0.00538402888247759
-0.011397690787048,-0.0257509300656417,0.0058865983201076,0.00607884640811218
-0.0149118891678681,-0.0222977540172023,0.00861197430821986,0.00483754093627053
-0.0160605643908568,-0.0155096713992161,0.0134056558469358,0.0028557394976452
-0.0158863551349497,-0.00733209637153011,0.0172846029206652,0.00149908299784214
-0.014842279940784,0.000539157044900484,0.0178044345097438,0.000625410593946219
-0.0130480968200172,0.0045133972444643,0.0143225716278677,-0.00101912830887465
-0.0115873955695069,0.00712753663847614,0.0114693696592579,-0.00385693818500162
-0.0129743597489038,0.0118812265348776,0.0112264581639819,-0.00674104540976202
-0.0170971030689156,0.0142900374795973,0.0115644063541012,-0.00801185146941465
-0.018764311916175,0.0117100811102132,0.0125825053889997,-0.0070459459109845
-0.0165077938701772,0.010196769431137,0.0130271282760275,-0.00451907824634403
-0.0121347124395601,0.0101183541860789,0.0113018913461077,-0.00185099574275818
-0.00782607748134981,0.00971679478621733,0.00942359465460978,-0.000508166938230515
-0.00816613039281483,0.016537155439565,0.0103995084307154,-0.000656250212525518
-0.0107153887190673,0.0314218158625157,0.0118986287726132,-0.00122882011905207
-0.00854228131114968,0.0437176582335206,0.0110122605100828,-0.00143127339705446
-0.00203489891479738,0.0454425031008186,0.0104949756131736,-0.000396767677131773
0.0031243703981103,0.0393245240018066,0.00937180072191648,0.00269592448508236
0.00211004801862577,0.0343298805273158,0.00413902531211907,0.00579372210292671
-0.00325441523552322,0.036254734056161,-0.000514542999234302,0.00479686574902816
-0.0082332837300036,0.0444310329742072,-0.000387051888343733,-0.0005296355884545
-0.0107116003754862,0.0453847842157835,0.00121596375733829,-0.00562375566136061
-0.00859503324692695,0.0275152569161261,0.00164576089201735,-0.00707206350726288
-0.000985424518064684,0.000414593863280036,0.0019153851926622,-0.00523892255138814
0.00797076212808989,-0.0200229897983591,0.00203974601951058,-0.00209705671590279
0.0118625026486384,-0.0285234145632746,0.00247029643057827,0.000435434466730147
0.00695178176319433,-0.0277177649228289,0.00406182308903395,0.00162447838795088
-0.00196525378944341,-0.0212141161185276,0.006066332208228,0.0020617911695826
-0.00418580322369715,-0.0128215385001694,0.00729577676864438,0.00226435431282334
-0.000512226002501628,-0.00506669622440991,0.00562798770238741,0.00213343848837278
-0.000809084932332161,0.00166024973835954,0.00194124674653464,0.00133856573176449
-0.00441745321864873,0.00687419292527913,-0.000538393541607034,-0.000305173191806717
-0.00231310832771391,0.00974839802691982,-0.00179265090487589,-0.00201014193831974
0.00479012196899847,0.0108848404401851,-0.00265295680801687,-0.0025662179576884
0.00976922301581017,0.0107231556836643,-0.00229599514362438,-0.00162425818814255
0.0108248229080966,0.00984031954909137,-0.00202611608923016,0.000268951294836673
0.00883454664650637,0.0112854378838839,-0.00352181073882481,0.00211382173594683
0.00457887412416983,0.0137246018122478,-0.00562884072370258,0.00314209615427141
-0.00193699688312322,0.0153710255780079,-0.00687635837817566,0.00338628957876294
-0.00678723868359327,0.0178751976912023,-0.00640065344548082,0.00344179927282915
-0.00430672806667202,0.018155749922006,-0.00464137989038403,0.00336505551534862
0.00289851259972564,0.0148404876087648,-0.00371018547433524,0.002368788506127
0.00715507468538912,0.0105938898398565,-0.00508633094585764,-4.68036719641378e-05
0.00644632977070266,0.0079247146696741,-0.00806212580693001,-0.00333870189068633
0.00349333547454647,0.00629440839274274,-0.00996559447452602,-0.00618615150464086
0.000475878292938825,0.000436386797125873,-0.00890828482427988,-0.00708927434056793
-0.000156760240830337,-0.00737423020784827,-0.00704193996135213,-0.00520361955681578
0.00117974753277494,-0.0105788297232357,-0.00791002476344882,-0.00113047164295394
0.00147453219448533,-0.0110263907806165,-0.0113668829232367,0.00322374683115465
0.000924016846163269,-0.0116582616448071,-0.0126444949887939,0.00609363315171018
0.000470148756821586,-0.00942415935240249,-0.00838415224571632,0.00708415525340537
-0.00121428154938825,-0.00310425609525649,-0.0031445242417386,0.00665011001340903
-0.000625663184978789,0.00270308179819585,-0.00258403101473066,0.00524313502026059
0.00264009140723836,0.0050585227273707,-0.00571688525298856,0.00327384343256616
0.00197070798434624,0.0056096849554463,-0.00901152170214383,0.00131685229367805
-0.00329381438865086,0.005512454510831,-0.0100073931356007,3.93783610245276e-06
-0.00858047207459002,0.00233144389250242,-0.00761503925082018,-0.000677372807146948
-0.0113320580233016,-0.00403993161141348,-0.00437285612347198,-0.00118104325311633
-0.013431316303428,-0.0086050459258063,-0.00288634955658673,-0.00147099807959056
-0.0123992973166436,-0.00852683550116583,-0.00235000663552262,-0.00144503184034372
-0.00499911521599683,-0.00454486590435817,-0.00199742402759194,-0.00125574462357161
0.00191992035366325,-0.00205945297158543,-0.00333301741574889,-0.000798322871771014
0.00393597475735741,-0.00290817870051036,-0.00598510299704753,-0.000108718915386481
0.00575065037019928,0.00196224999704763,-0.0063260170908628,8.83156572687316e-05
0.0114189947709777,0.0112103624882972,-0.00464857632802559,-0.000870717185728356
0.0218395152588809,0.0131408969652055,-0.00218272483699155,-0.00251674826193287
0.0335834627923045,0.00831953338051136,-0.000943492325657524,-0.00346544862096505
0.0374500165160881,0.00503791247578661,-0.00252101201131411,-0.00249516657745997
0.0286578567423924,0.000409074481124094,-0.00405161771516553,0.000501273055382978
0.0121281740815596,-0.0139198946424231,-0.00709931742954356,0.00379874411661415
-0.0056624986064335,-0.0312856723376431,-0.0104170735708179,0.00489212165984292
-0.017848153150548,-0.0398191016898481,-0.00762606318093336,0.00340827715517962
-0.0180250673903019,-0.0429172018333688,-0.00353090064667317,0.00152383671234635
-0.0090352332168914,-0.0468420415297587,-0.00527531249365743,0.000762226720129182
0.00168059674098805,-0.0522681149467953,-0.011993976287863,0.000569899792810396
0.00899476213600257,-0.0613961065357261,-0.0206232955384786,0.000530333827192057
0.0107584258212875,-0.0681610830737803,-0.0274162162316107,0.00117975679076401
0.0131435772632891,-0.0655111257459326,-0.0300859784172373,0.00189044862546042
0.0214490596035391,-0.0605667931553753,-0.0280243050007741,0.00124945628901269
0.0298077861648108,-0.0528734296049233,-0.0209265227469065,-0.000834564061740135
0.0299586745685584,-0.0293700389629404,-0.0103655552798611,-0.00322040097195124
0.0195064604534134,0.0058652565724609,-0.000385304074773829,-0.0044101212282879
0.00483071464544212,0.0335780118523982,0.00779733091880623,-0.00369944101114156
-0.00625812534445824,0.0486945498272049,0.0149143909578771,-0.00166781461433316
-0.0112712981063191,0.0587055880491407,0.0160075449064419,0.000718547207034338
-0.0127144879057098,0.0590757299007907,0.00815705621883193,0.00252959475659825
-0.0192449812531985,0.04818526419747,0.00236813474748036,0.00299815384876149
-0.0282260965040529,0.0354997637060425,0.00638110688712069,0.00241577776413164
-0.0253690001211149,0.0181117503550067,0.0105568422354222,0.00176774336883282
-0.00924251631555023,-0.00422387158726183,0.0057819275230701,0.00179966577859178
0.00828111096039459,-0.0199486466491291,-0.00507495047143371,0.00243121485925835
0.0171647791538517,-0.0266346795483171,-0.0140342534585546,0.0025416105129894
0.0200320509507118,-0.0323495938515538,-0.0156114613985932,0.00139866720995052
0.0213715630003824,-0.0400664733110529,-0.0123805561341364,-0.000361513942980012
0.0200513911591903,-0.0421759466955666,-0.010009090067041,-0.00167146127033171
0.0168896238927851,-0.0369057267511504,-0.00856829961466102,-0.00210591487175375
0.0125974232092864,-0.0348204843663642,-0.00743317379763122,-0.0017363636020171
0.00746552647444373,-0.037020442776133,-0.00729070635013889,-0.000956910069150893
0.00278840040120721,-0.0318065926682115,-0.00547035551259365,-0.000270418806607335
-0.000235512229628755,-0.0183075451695073,-0.000604010173964535,0.000454346188070491
-0.000969042528191678,-0.00461050401265306,0.00322104764435183,0.0016055839035235
-0.000884570273623337,0.00662528540024689,0.00332464740382659,0.00259635857213089
-0.00189634887584742,0.0167875513326691,0.00338088112914436,0.00264759359614842
-0.00559044482670688,0.0299103965199458,0.00764834939947174,0.00200801163894924
-0.0104717867838125,0.0442863209292411,0.0133392946834393,0.00101957431616715
-0.0143213726038891,0.0502693704714916,0.0145691003770265,-0.000104682364802873
-0.020788692745654,0.0479628782243852,0.010973768425899,-0.000802614283370133
-0.029414528411387,0.0436734287432072,0.0062317471897514,-0.00108849764018371
-0.0334828539543437,0.0378489765435595,0.00336609515427303,-0.00161766660316493
-0.0302318773993904,0.032916946032261,0.00411832220055904,-0.00244643593600504
-0.020923839391455,0.0301634502814299,0.00714488010989869,-0.00277544280272068
-0.00899271694883112,0.0283290918562116,0.0100559395115941,-0.00153222999443183
-0.000517331539512195,0.0287755858142552,0.0105191662741438,0.00145752404994289
0.00250976443739735,0.024262259702358,0.00738746651797299,0.00504234495630105
0.00476641779996112,0.00972742348718564,0.00329167519948815,0.00773753110052628
0.00818939637578981,-0.00475035676837674,0.00094090844158733,0.00804773528687245
0.0103810462234947,-0.0144855483099347,0.00262306897014676,0.00490995451040303
0.0101906787557912,-0.0192175290341296,0.00719524435454171,-0.000626299667400328
0.00793646032000656,-0.0155917077753935,0.0106631377933156,-0.00550778600022533
0.0040728649335178,-0.00832497584766047,0.0125231257058234,-0.00720703662084385
0.00170698198790975,-0.00467642363149025,0.0126463543913242,-0.00499308432318313
0.00404034010631017,-0.0040571272608016,0.0092237947159721,-0.000481293896343556
0.00751972488686129,-0.00135448360885584,0.00562257638311112,0.00234477481265152
0.00365459548231063,0.00953677459490805,0.0083028713589129,0.000716482473346305
-0.0074267671714509,0.0322900381880029,0.0154150193930267,-0.0040962446295584
-0.0159123691356555,0.0595338421592328,0.0202808502424719,-0.00866574223589861
-0.0184983487556309,0.0790446885102408,0.0188331954712011,-0.0100172902095585
-0.0165188854162264,0.0822728157726055,0.0114505652037206,-0.00748412528669975
-0.0114351076824849,0.0636345894311167,0.00344657806281674,-0.00308183647172508
-0.00771858136505798,0.0330785350950654,-0.00156841428233342,0.000836896114202124
-0.00609072757794804,0.00746841574465197,-0.00367938001045711,0.00382914715506568
-0.00232601591051253,-0.0135338516933472,-0.00308824750247784,0.0062325190038279
0.00470484313685917,-0.0368079104977624,-0.00158098575648284,0.00710177755277101
0.0115169371525421,-0.0574680244781325,-0.00104101212120471,0.00562369597956014
0.0153851955849204,-0.0653459128974776,-0.00144753093337688,0.00248757879148431
0.0162945925979058,-0.0640598657147777,-0.00270997918119546,-0.00115191269417538
0.0156972034657852,-0.0636571406141196,-0.00305405762383144,-0.00424518015494595
0.0144281995707523,-0.0597413430040003,-0.00240346076130091,-0.00594670557406192
0.0126073480738933,-0.0445765562239573,-0.00180328966028252,-0.00623596052456865
0.0103133459488855,-0.0217558487510322,0.00148214983842423,-0.00559418580668939
0.00917901177053387,-0.000498558896788404,0.00534304240136517,-0.00406612635179559
0.0125281915192506,0.0111859377897407,0.00626616977509722,-0.00201514747571355
0.0190862799021071,0.0131207538326849,0.00643758713466949,-0.000212789587568524
0.0236023279838392,0.0141646111052929,0.00594790811513274,0.000841169225366399
0.0228148331737097,0.0169706920367717,0.00244653920012822,0.000817189462271871
0.0165431463901892,0.015200887734567,-0.00334865176001746,-8.68435471414214e-05
0.00822324554877062,0.0110549863814681,-0.00690179838345182,-0.00122664048160882
0.00232445999643567,0.0157285955876809,-0.00646007854046501,-0.00206539779206627
0.0011143455200751,0.0261381189300052,-0.00461366733292018,-0.00240569676898346
0.00134482485339986,0.0251670890267544,-0.00244493479265292,-0.00233351010783822
-0.00569133421940515,0.0134849128405921,0.000413712969061003,-0.00196339778218153
-0.0221207152393576,0.00875408792799936,0.000975304030139583,-0.00143201619609771
-0.0323062759953863,0.0158300038957703,-0.00321517314270152,-0.00101045956024263
-0.0209219303512311,0.0211217214231088,-0.0077327800236813,-0.00083514881150101
0.00162760445725265,0.0172655505567855,-0.0098001184310446,-0.000663885875651049
0.017915981456089,0.0104041464171865,-0.0123251318209487,-0.000145218011517687
0.023841453086144,0.00282933053348347,-0.0153788050549835,0.000379695673468476
0.020025377547615,-0.00389240244481182,-0.0151037676950331,0.000191744059756093
0.0102613593193851,-0.00843235099824485,-0.0106659234695802,-0.000460896210305035
0.000903306563101851,-0.0132885872057634,-0.00655628885760728,-0.000804318823074148
-0.00503580986638289,-0.0185544879058759,-0.00487636626655396,-0.000175748705126929
-0.00667758880509434,-0.0214440378155077,-0.00327763005004126,0.00155087950370915
-0.00250910623844321,-0.016086571785305,-0.000151562931109538,0.00333034381984531
0.00416443346304753,-0.00295055271852059,0.00326509833069121,0.00420360617082852
0.00799865520140126,0.0101453044129751,0.00240523284946204,0.0043936401714365
0.0094385285243712,0.0167137657413028,-0.00346308668766806,0.00443433492308124
0.00907565882795723,0.0150319126862997,-0.00745242747759394,0.00435204844317833
0.00715017701127696,0.011315076036221,-0.00599414666802175,0.00345352276521647
0.00735346994927939,0.00988513634503177,-0.0026605922239073,0.00114907147722669
0.0100157556814141,0.00639299459125677,-0.00211599991248887,-0.00145849824803738
0.0107063278695634,-0.00207223668487973,-0.00605917853149305,-0.00279887611658171
0.0102127376254688,-0.0114967691385737,-0.0109420039923283,-0.00241997527113719
0.0113056864732324,-0.0170287763787671,-0.0122191521163625,-0.000147495181338475
0.0105980291131718,-0.0181226407435901,-0.00844128518533727,0.00315930710508497
0.000871844570467552,-0.0150041356256362,-0.00138901625674298,0.0050997242750298
-0.0175232189224313,-0.00889688763507361,0.00260861407971695,0.00459004525811802
-0.0311174715669328,-0.00486238358354035,0.000112151323549331,0.002910160488443
-0.0342579135336388,-0.0067407191719879,-0.00425768698483353,0.00163017878603746
-0.0322676868134861,-0.0113389281275299,-0.00810371007587407,0.00143725673816684
-0.0247444466870593,-0.0111849194200694,-0.0102281208940085,0.0015841078192947
-0.0125999538338007,-0.0130872549711824,-0.0090683128790005,0.000649032340236075
-0.000858588826785866,-0.0291027966571974,-0.0087703544319814,-0.00118094845227714
0.0105553093503645,-0.0489961573494314,-0.0121567498487159,-0.00238484626336557
0.0220775071662288,-0.0574826786137404,-0.0143346143233887,-0.00209737668057579
0.0306898801695124,-0.0548356135965545,-0.0100236205109311,-0.000573029456881315
0.0340314059577027,-0.0484519114819784,-0.00369198553470612,0.00114238083570816
0.0276482726137104,-0.0465259320004782,-0.000251207423678802,0.00218391078703366
0.0122589553695421,-0.0420886029945633,0.00356342687797681,0.00304610320101327
-0.00528564621351956,-0.0196753723864209,0.00955272661224034,0.00529571040701483
-0.0203901954619512,0.0126802214582184,0.0180580376306372,0.00880851844357229
-0.0278089475457667,0.0393150339073064,0.0294635885254242,0.0105042872512498
-0.0284456417853297,0.0493906125519632,0.0380060546324817,0.00831670195994303
-0.024818355029544,0.0367500349100584,0.0356173852751138,0.00350226396461614
-0.019124595846043,0.0170196539285559,0.0237757642241053,-0.00158284894732801
-0.017971238268459,0.0050365040285046,0.011249452563453,-0.00541376429446271
-0.0184682174077629,-0.00135538896997249,0.00358705951727289,-0.00753546530875688
-0.0167041718061284,-0.00853667501164357,0.00251233361779342,-0.00808596555642426
-0.0149372732802716,-0.0198345510486786,0.0048736960291255,-0.00697305196936519
-0.0096329178663609,-0.0290435755435327,0.00292570779916625,-0.00420297056214403
-0.000151541154223528,-0.029453120276912,-0.00279766271340717,-0.00145662662356035
0.00887734319775812,-0.0246415185576407,-0.00467929259366965,-0.000525182695270515
0.0143571900042635,-0.0269518714600028,-0.00505085678627415,-0.000636988360387904
0.0148014000541546,-0.0430289596763824,-0.00744106177062633,-0.000170332747115457
0.011583111206107,-0.0640721524621833,-0.00938520373260002,0.000860701069172675
0.00576354346672021,-0.0774562911298215,-0.00963439453371965,0.00170668443841391
-0.00320308640129796,-0.0774218991291945,-0.00603572079499582,0.00214566211488308
-0.0133157443331907,-0.065654111557812,0.00219467145154271,0.00237011812632648
-0.0211357715045931,-0.0465599360486138,0.0100377332327739,0.00231174350427675
-0.0260650997559339,-0.0234321721557052,0.0132621285114822,0.00119574874536318
-0.0270541655229035,0.00319713828727905,0.0141872489040592,-0.00109201765073718
-0.0205829563069127,0.0320160492363822,0.0138079582263755,-0.00321395041431534
-0.0112965713169347,0.0570861812963883,0.01140321396153,-0.00423358871446855
-0.0107439160148907,0.0810428703449546,0.0105680371175647,-0.00460774964318403
-0.0154414750358961,0.0995202769672425,0.012119411547082,-0.00485797152395036
-0.0133707453300098,0.0944307734044783,0.0127487527625354,-0.00480156462939856
-0.00660334694875064,0.06684653750581,0.0108213429951348,-0.00426446778872931
-0.00426150882924528,0.0347066429605638,0.00772210584451193,-0.00337225732428839
-0.00753101391150413,0.0168129238148309,0.006062004920092,-0.00215044236965026
-0.0140766897271839,0.0150118532432381,0.00509032376239829,-0.000898925972253596
-0.0182218898475549,0.0108225734982951,0.00147114825874525,-0.000368966192372894
-0.0143454633544119,-0.000825890811171681,-0.00338728608323412,-0.000970348286517589
-0.00891323059355618,-0.00445166094675944,-0.0061283175035637,-0.00197115542141305
-0.00616635816822271,0.00432305813646601,-0.00812507853368328,-0.00214120265116257
-0.00255360663400529,0.0136819672619668,-0.00845016387720384,-0.00137810534793655
0.000770374746765537,0.0195706977020387,-0.00619668370460017,-0.000442456005111175
-0.00188285474905188,0.0302956584701447,-0.00326373238382246,0.000108166917190304
-0.0119130646914702,0.0419751007474758,-0.00117383119953505,0.000202024367481747
-0.0198347328352712,0.0385704781063865,-0.00278270701660719,-0.000149547568370752
-0.0190615748051803,0.0234250205415636,-0.0066222642700098,-0.00116749245081719
-0.0143130721533176,0.0133349496694548,-0.0076700518255837,-0.0025573904143355
-0.00914502132549416,0.0119467710605926,-0.00593144807358771,-0.0032995688804224
-0.00328435702950546,0.0124671155752622,-0.00387723776304814,-0.00287672533463449
0.00370195160535075,0.0117042875581226,-0.0011318635709419,-0.00197894017224682
0.0113229422870632,0.0134972799184137,9.10303980117388e-05,-0.0012090336164983
0.0178578624564944,0.0153638227253149,-0.00115780640533444,-0.00022093529308362
0.0180382451875262,0.0101760889959041,-0.000397377037180933,0.000871027716917961
0.00576094000004264,0.00730806381820266,0.00275602541196907,0.00109095451960019
-0.0111749810259371,0.014455934784173,0.00681103812828019,0.000353043021897148
-0.0181980531472709,0.0214644625480302,0.0124930840600564,-0.000277456474989202
-0.0135272909119926,0.0225962275543977,0.0168712484204499,4.42592353656207e-05
-0.00481330960446866,0.0224105265303802,0.0155337498855495,0.00133345734887324
0.00193100432989579,0.0227893295983382,0.00943427713175374,0.00303513968282168
0.00581023700540958,0.0226488170494295,0.00306554077545395,0.00447826423263584
0.00554473083317834,0.022410613059759,0.000344634933647763,0.00512265565892078
0.000853467921155968,0.0226471156678736,0.00207091757482204,0.00480418495230042
-0.00430299548722539,0.022881392725871,0.00409960630921678,0.00395960520803353
-0.00521026789761514,0.0226893087086614,0.00223344666871544,0.00265810975115753
-0.00269535046157237,0.0218929505670782,-0.00317564817509679,0.000117827805443702
-0.00369500312214227,0.0202777101477073,-0.0057298744486811,-0.0032852289776126
-0.00786110340230858,0.0195289162385087,-0.00158830740517043,-0.00554523097923555
-0.00834723321439775,0.019348376801933,0.00319281468349842,-0.00534203283546307
-0.00329688707240641,0.0180245111551419,0.00463717952312828,-0.0030245372288532
0.00310943470162923,0.0165585560261404,0.00578508750419811,0.000351012575261788
0.00640613215897527,0.0133349843048242,0.00711840587016452,0.00358125278513622
0.00648691864047133,0.00675338839338422,0.00820748420566422,0.00572180037959873
0.00508442631830514,0.000320869556136653,0.00979712838292173,0.00679159080661254
0.00450471173032005,-0.00341790854820058,0.00971315375635944,0.00721891360306902
0.00512715688119172,-0.00450355144507053,0.0092452534792213,0.00682207333963517
0.00531194814454414,-0.00341468187724244,0.0105350341711134,0.00538422850482567
0.0063304663109893,-0.00191070490269946,0.0108290647026301,0.0033925491046767
0.00957820501679149,-0.0011373464777635,0.00782175340609948,0.00134423804556026
0.0133087180740282,-0.00148285815760821,0.00423166598687084,-0.000384515308603118
0.0145391193889543,-0.00258101098611288,0.00421699690790138,-0.00142131771600418
0.0125217557600002,-0.00315262100746134,0.00593828653313855,-0.00170269257668055
0.00977332026624325,-0.00257470493990025,0.0054864286755243,-0.0015198032541469
0.00907913651445383,-0.00123124788509693,0.00297609124496118,-0.00140438284685981
0.00861041077207092,-0.00116668873376371,0.00039149996594478,-0.00157763983635929
0.005815319050506,-0.00122036582299746,-0.00151964659527806,-0.00176377085051034
0.00132253888029912,-0.00143430284067758,-0.00426655445322187,-0.0014418361059437
-0.00253468129597484,-0.00610304879145703,-0.00772984076716883,-0.000501053422712001
-0.00331132371410721,-0.0144541714242883,-0.00948487036476613,0.00061136214391942
-0.00109502673916551,-0.0211033716270761,-0.00841185854663115,0.00182794917033048
0.00271854207246637,-0.0203596258814578,-0.00726364748734722,0.00319084188665527
0.00643220566860662,-0.0109366934131677,-0.00629857946680797,0.00403362567147995
0.00747748604531115,0.000397802502249474,-0.00386652038628816,0.00370851678600077
0.00562560114540439,0.00606656323647686,-0.00287022587124324,0.00245727314864204
0.00606410699679077,0.00596693290682299,-0.00399441269836455,0.00115587348139526
0.0100130159846729,0.00234767562530583,-0.00674111352707809,0.000317482431474982
0.0111788278041641,-0.000684719696349198,-0.0077945556137615,-0.000405474076792762
0.00797162572699674,0.00194417632103271,-0.00433127443397715,-0.00110631456681071
0.00582445269170279,0.00915651501644664,-0.00122170906543896,-0.000914259205613128
0.00741463204000265,0.0196846647190517,-0.00106113235601406,0.00044969713261733
0.0110248803306303,0.0234747286790245,-0.000339352920817578,0.00149586694762397
0.0131639673590075,0.00648803719694786,0.00419972729697802,0.000649458136747979
0.0123429580476194,-0.018719415446439,0.00971078559306283,-0.00146569782974287
0.010141547506898,-0.028270866038502,0.010082501119981,-0.00337101876051329
0.00632415658011228,-0.0193580447174104,0.00503679716775965,-0.00490888439323569
0.0026628759300238,-0.00537365999503251,-0.00025591983413701,-0.00603851944484921
0.00375757513963165,0.00451844310425215,-0.00322159449238252,-0.00581163173100094
0.00849914131241713,0.00834480914154606,-0.00659742979144504,-0.00375584314837463
0.0117264357519301,0.00947868500295264,-0.00878540684115676,-0.000620112863238258
0.0130991252896428,0.0110178157333784,-0.00722616335293927,0.00294724020408454
0.0137227498658961,0.00830350490261176,-0.00620723775945981,0.00603749289886736
0.0127772802587039,-0.0028414147410386,-0.00886924610437241,0.00643464841372508
0.0114705201262932,-0.019008979832973,-0.014355647445897,0.00343282357397702
0.0101187268159117,-0.030447925856566,-0.0167046530156152,-0.000511064074415882
0.0080763878310268,-0.0318130964689787,-0.0128648872299033,-0.00288981649840505
0.00540281494848392,-0.0251286200595788,-0.00915561813649291,-0.00304708899736134
0.00187941059444876,-0.0149109456513348,-0.00641799943685922,-0.00167365904181133
-0.00140113165124197,-0.0082347847616271,0.00126476594392042,-9.03163512406147e-05
-0.00243310106176205,-0.0118753307765254,0.00956240054227416,0.00105924846302252
0.00177845887899688,-0.0243163711190085,0.0107219147181139,0.00218975995897473
0.00935267909503923,-0.0334612898150522,0.00695152224033037,0.00381977690340838
0.0116112225343301,-0.031354908328439,0.00394587177220558,0.00540388206069874
0.0074138180286047,-0.0224169004698057,0.00686063420126865,0.00597104458759219
0.00508317922295799,-0.0103745217567112,0.0138413145867411,0.00578634968348024
0.00896425560821956,0.0039219656642153,0.0165530114327624,0.00524505931310031
0.0146948363656655,0.0144173780363627,0.0144440902909517,0.00342697027316559
0.0144989434806746,0.013612116531023,0.0113517046072475,-0.000632280814861051
0.0091004255198966,0.00312036705596238,0.00741516983177555,-0.00646397336827612
0.00597794736350145,-0.00934936354750922,0.0011027557389921,-0.0116073830565433
0.00595394104560372,-0.0197013644616996,-0.00933935212805414,-0.013264789418027
0.00484036885821174,-0.024657382163258,-0.0196256602158437,-0.0115291106578475
-0.000666249355926987,-0.0230084265809628,-0.019333481203599,-0.00842456021649788
-0.00895936010482036,-0.0193308824663323,-0.00997949600835458,-0.00481619468138248
-0.0124250656843762,-0.0154756486088152,-0.0022285610603184,-0.000919132341938401
-0.0075256113884799,-0.0107179010006118,0.00128838811799155,0.00271540329646313
0.0011242307887055,-0.0110973549507991,-0.000232949619823942,0.00564177185659048
0.00754083372372984,-0.0197400123052426,-0.00573008457650012,0.00699825923086329
0.00855057836457619,-0.0272956775965688,-0.00839901451410198,0.0062459773318503
0.00690754479942981,-0.0254160342951297,-0.00450851770047259,0.00491882891931321
0.00519643648342228,-0.0179993311622586,0.000567042309724269,0.00501011712310771
0.00400136820186477,-0.0128460471820107,0.000301459329202296,0.00546579422162337
0.00482729145153328,-0.0121456310593615,-0.00198364544862976,0.00331623274179444
0.00501649152213105,-0.0133324348414618,-0.00315526060274517,-0.00140012078107392
0.00357006682657505,-0.0145981967550861,-0.00505290620410486,-0.00575537619744678
0.00262135388764572,-0.0159367013520176,-0.00673373872517656,-0.00791528195052809
0.00168732304181391,-0.0197614668561435,-0.00746988434920787,-0.0080118238682959
9.42566401104482e-05,-0.0252231000359938,-0.00888610144059673,-0.00696768788544593
-0.00242291900313234,-0.02539910699236,-0.00978782968987305,-0.00601356212715681
-0.00531293793757407,-0.0192117015225661,-0.00723831583919965,-0.00562842504705624
-0.00687042397998424,-0.0113538498329438,-0.00324108643020653,-0.00498301867846375
-0.00697075587568496,-0.00550515119329013,-0.00167827180109106,-0.00347692951399748
-0.00623235077658671,-0.00186925409670178,-0.00254960675229472,-0.00171904439749491
-0.00512459473437969,0.00191177770749385,-0.00431268950143946,-0.000606900358953538
-0.00466022164060183,0.00397639025880197,-0.00598241390499528,-0.000200501966906532
-0.00405616932665277,0.00170288876721815,-0.00634450767654119,1.50497498088576e-05
-0.00230898523377778,-0.00158567689435496,-0.00663195636926912,0.000355372291646515
-1.01794934633208e-05,-0.00350103624875931,-0.00810660602203293,0.000907177148154527
0.00359960906915856,-0.00463857757229331,-0.00864924283996955,0.00135391656442727
0.00530523428595389,-0.00387611194353884,-0.0081756592096242,0.00113526443005533
0.00353016816308764,-0.000573268631708175,-0.00716264118737557,0.000261448694319612
0.00394058253156344,0.00380822308880355,-0.00571966587370498,-0.000798804822677647
0.00705864097433038,0.00778327442329436,-0.00523621726904504,-0.00132958031779635
0.00843273217544103,0.0114574310028569,-0.00560616880046687,-0.00106346285094326
0.00630557868065333,0.013755095435377,-0.00700806356899047,-0.000575824750858298
0.000876300498450919,0.0146330123547075,-0.00980939739936365,-0.000293141053487631
-0.00572963625874055,0.0152531211735094,-0.0116533535707659,-0.00027145336540486
-0.0103147832705473,0.0113634664556747,-0.0115305158278293,-0.00040339916979573
-0.0124534996131567,0.00445919273476765,-0.0102153662246428,-0.000569925518183207
-0.0125469738380911,3.47994205199369e-05,-0.00950939696525795,-0.000617864369933099
-0.00949197583647152,-0.00272370540952475,-0.0107226796360641,-0.000262544288234516
-0.00338828550847648,-0.00369469018273441,-0.00983165034903269,0.000558581301705001
0.00355867409124397,-0.00351426437855996,-0.00794213762996693,0.00162418318751007
0.00970723353982549,-0.00442609284642306,-0.00866008327309171,0.00253477409391397
0.0154778175778391,-0.00589167045062228,-0.0077498834844572,0.00292465724152256
0.0211397852827171,-0.00586572407875409,-0.0035121216863948,0.00293865432942943
0.023610529148743,-0.00618068795369611,0.00103189084500068,0.00295139604211899
0.0192143516058563,-0.00963059444783624,0.00360260432934596,0.00295315941702923
0.0101454537809782,-0.0140917969629791,0.0038938253472607,0.00264629749930526
0.00399891137501646,-0.0161090016595895,0.00399894165001814,0.00200130162599725
0.00102192991752166,-0.0125935568466949,0.00342952704005859,0.00169796611585782
-0.00386190653334276,-0.00675973581986086,0.00186757289732177,0.00226385092899658
-0.0112463035325827,-0.0043530718832316,0.00229727683465755,0.00327847567740429
-0.0194340730140006,-0.00226729817483873,0.00464484062897491,0.0040698965879822
-0.0242217708159963,0.00124423811747934,0.00574409620020066,0.00439143063494008
-0.0220219168725236,0.00351681489338267,0.00462248505051421,0.00425948346582164
-0.0153503961496326,0.00692093526573761,0.00305131435230455,0.00388219210481686
-0.0106761009386724,0.0152287546441976,0.00270984249830078,0.00339585692028608
-0.00743926300133661,0.0282801646988832,0.00430148599846614,0.00288009860831319
-0.0012049887940382,0.041812345305649,0.00714058066856681,0.00265198863951522
0.00572530749715992,0.0495209325106635,0.00831191064505516,0.00265187878377531
0.0107758711413987,0.0498588022069575,0.00740729456510848,0.00270328601101204
0.0136773109085479,0.0437703654404315,0.00752396972013842,0.00287770109122392
0.0142639174680945,0.0301925690531626,0.0075354424042601,0.00284647362628373
0.0128343826658452,0.010462012810016,0.00582589882990639,0.0019703473513378
0.00963955013890487,-0.0119072274033693,0.00536892522737433,0.000192778562048464
0.00276539742475036,-0.0289537594330152,0.00760732124265663,-0.00189834837290766
-0.00939434447591236,-0.0331551590605194,0.0116857812220442,-0.00373466825231494
-0.0213611408547662,-0.0290352092623249,0.0138723951463846,-0.00503933873238494
-0.0254862615027473,-0.0235385165891274,0.0106777209577519,-0.0053554671120883
-0.0191475840366304,-0.0198951109121957,0.00545656967283888,-0.00402707970883819
-0.00900082431855711,-0.0198447216025295,0.0015635606444747,-0.000875104123185595
-0.00700830914810658,-0.017970401735885,-2.81195604335625e-05,0.00305909861745681
-0.0161990444253071,-0.00293707265128072,0.00244803388396967,0.00566928817150105
-0.0260088649368702,0.0240391232231576,0.00839118123834648,0.00582881993912606
-0.0265248407884253,0.0377815534156482,0.0117274774595513,0.00421996276928692
-0.0189598765331083,0.0274813689093891,0.00784361143704636,0.0020517282871001
-0.0112500007595995,0.0180292456359046,0.00116251472508964,-2.54495190914847e-05
-0.00853924788777186,0.0254430791645727,-0.00150036951817226,-0.00166461688087987
-0.00824259414411341,0.029636035016615,0.000259168753606225,-0.00243960479898266
-0.00711438073563179,0.00966957577675432,0.00147675252621723,-0.00246008025700238
-0.00417961992402497,-0.0237891782002428,-1.68562735903491e-05,-0.00233797133211893
-0.000353564327313059,-0.0461453641789736,0.00111684519326194,-0.00234245829301258
0.00202890387311041,-0.0494951447892311,0.00793462203694637,-0.00219954951115153
0.00223765839482238,-0.0406070791449449,0.0138992225950014,-0.00172219367034958
0.000196574803025481,-0.0235085109271713,0.0132433245624977,-0.00108573127859817
-0.00115979444635311,-0.00352438610524074,0.00790676299152202,-0.000838485498243698
0.000115377928798492,0.0125478745810828,0.00252982580437069,-0.00137971707788549
0.002256610630646,0.0233941387047777,-0.000668414718564472,-0.00248083476993192
0.00502024878450047,0.028985493115072,-0.0016809247075159,-0.00396232630947552
0.00689801783117552,0.0269860585057454,-0.000889501491592783,-0.00536469771807134
0.00814259308122075,0.0183492722360611,0.000710148000476882,-0.0057346699047593
0.00803972285723881,0.0104374924156278,0.00128532262933775,-0.00482848372114106
0.00195758640383094,0.00454001187732013,-0.000246516700720993,-0.00336495897596328
-0.00701740364311014,-0.00540831863132965,-0.00100702654638789,-0.00225955551278792
-0.0115456162386354,-0.0157183472529867,0.00214620443237338,-0.00154068410763038
-0.0115751571909124,-0.0201629274207785,0.00585295499908138,-0.000435401340050712
-0.0101357769978134,-0.0228867829084606,0.00415091403959623,0.000841428612015681
-0.00972631993893315,-0.0254731503079932,-0.00468733508422355,0.00115834872301094
-0.0123306614178118,-0.0250502516813444,-0.0130357572261628,0.000379402152094362
-0.0137993117707232,-0.0213735954318977,-0.0133057087245793,-0.000622553674787035
-0.00865119462472778,-0.0167791014611679,-0.0089517126533915,-0.00117627911068372
0.000939810268296959,-0.0135067676302652,-0.00562911468625301,-0.000976007908291561
0.00888099212679038,-0.00790155934672625,-0.0041650983698228,-0.000252202502841454
0.0120073946184075,-0.00111786262631728,-0.00369890068506183,0.000270752316433943
0.0112322627478839,0.000930137243918396,-0.00343257819099419,0.000318027595061676
0.0102940055703809,0.000852972452338118,-0.00173048200733508,0.000162671854872384
0.0107316300851834,0.00251246791573247,0.00120482742297234,0.000222262933072414
0.0108641680943093,0.00431609598986114,0.00233850668731906,0.000594304434459901
0.0104665093445072,0.00514090161903871,0.0022866074884993,0.00083471183790944
0.0103569332311501,0.00717503309678834,0.00304806417067088,0.000779569769376376
0.0110211939022988,0.0103260305848444,0.00296877171975095,0.000710041756282203
0.0110574982247482,0.0108691453174043,0.00263134300485475,0.000660633569365957
0.0081888452596729,0.0084917793907697,0.00284842501591689,0.000259352000717524
0.00255315190139254,0.00594000618700327,0.00224023933254451,-0.000443279772162481
-0.00308517499851264,0.00329885840876176,0.00156730747678922,-0.000928426881159437
-0.00497548989041419,0.000931968400130632,0.00222610584528997,-0.000991985012520287
-0.00381934770509451,8.1522984088955e-05,0.00390358879143187,-0.00063036940108547
-0.0033292494815857,0.0013923332596748,0.00464943457709544,-4.90750522151543e-05
-0.00282939885414873,0.00293636203241853,0.00284642207513064,0.000608989753518958
1.71702983399556e-05,0.00284182315067861,0.000880401221155405,0.00126191004055529
0.00275077744754515,0.00308827389039989,0.000409144926717034,0.0017570501695202
0.00278249473101537,0.00308000952878862,-0.000620244469646662,0.00204570936469513
0.00249613691487716,0.00237056030545405,-0.00182134697844202,0.0019407322891088
0.00193527306247832,0.00294288016950831,-0.00122309527318538,0.00160276198630588
-0.00127615023522671,0.00578838974325924,0.000238764057375758,0.00152013867785603
-0.00534060392021414,0.00895621986893489,0.00149725417052061,0.00188207962976476
-0.00654474524315069,0.0120897350956098,0.00317170929703604,0.00253965200546933
-0.0027771719889892,0.0161203848131094,0.00468368514432927,0.00307899019346025
0.00217104114507239,0.0191643870681463,0.0050505267096461,0.0032094844770878
0.00309598562663354,0.0211788270865565,0.00487536818294365,0.00265880060152872
0.00211423168454738,0.0189123358839979,0.00540639194753186,0.00127383049824709
0.00225369058093629,0.0137468799938566,0.00621185491010896,-0.000494796393937001
0.00272025446197638,0.0105854310608875,0.00614829237800589,-0.0021234302150223
0.00238603507376983,0.0104261101032067,0.00574537234751651,-0.00328046218852754
0.0014498425720221,0.0143429883089828,0.00500585737384133,-0.00404935549736811
0.00195530654723892,0.0163732395662999,0.00228234355148228,-0.00456964277856091
0.00392810709918084,0.0128936439739431,-0.00298980984982745,-0.00424432631366276
0.00345284969110549,0.00861980173528322,-0.00657969392858364,-0.0026476175006823
-0.000157876444820867,0.00314833806746119,-0.0047014727634259,-0.000283983021220186
-0.00156182354273562,-0.0070881697807193,0.000144025938099244,0.00236091572625885
0.00069993243596075,-0.0171324522704096,0.00713363346372622,0.00520234552020493
0.000255383906643128,-0.0197884763413316,0.0175462324268501,0.00786450384105754
-0.00442656230641109,-0.0130780561841978,0.0249595275795375,0.01015579959806
-0.00676954010925533,-0.00278913031474449,0.0220735523437488,0.0121454877846945
-0.00219664777740353,0.00341779573730044,0.0148571198547349,0.0128979120414315
0.00633701717425601,0.00480235553458619,0.0115057824726183,0.0116839499295664
0.0147996492158051,-0.00250172403921749,0.00849598512570877,0.00970982153923464
0.0247791199239707,-0.0198763960331809,0.000922569033561988,0.00723280460505298
0.032980171754686,-0.0338968704510962,-0.00920382914551412,0.00119605780261419
0.0349380794321235,-0.0373165466070847,-0.0169438763227923,-0.0108361474685938
0.0316903482794691,-0.0327004378954612,-0.0166369761381648,-0.0252750744959909
0.0224495840792162,-0.0170248229380562,-0.00858334853005009,-0.0340212291095726
0.00713353659825359,0.0051136847158029,-0.00126806343591577,-0.0319086345456826
-0.00964220178581048,0.0234713643049322,-7.87498745152236e-05,-0.0203055533563619
-0.0154049007770486,0.0317126279926405,-0.00159439396918017,-0.0050174800684705
-0.00684803362819442,0.0269776002393082,-0.000933419441731425,0.00781214332859428
0.000534026925710666,0.0171507497451625,0.00184212533965629,0.0148937303557871
-0.00218867035277175,0.0171147556612342,0.00707818334564908,0.016309107298795
-0.0101336523399341,0.0317777913643408,0.0137361747500108,0.0144049537842464
-0.0150642141486225,0.050681612258958,0.0168854041078637,0.0115877108262211
-0.0146085780174759,0.0576355395213716,0.0158648736026909,0.00883032077054593
-0.0132526969334318,0.0486414044797972,0.0113366275016142,0.00596484083443032
-0.0119178472090666,0.0376622726566139,0.00409122065458089,0.00277552512341272
-0.00754513881151603,0.027486356474428,-0.00231015756651614,-0.000431978838032255
0.00170824373149338,0.00946370199387865,-0.00782644013754995,-0.0032384752539019
0.0111787844956833,-0.0107825074876606,-0.0136858163007195,-0.00547396238186438
0.0131250365360941,-0.0243141045321991,-0.01650204811501,-0.00703947983155201
0.00728805316953281,-0.033941479848258,-0.0153903952857951,-0.00783516982797512
0.000712607057457142,-0.0412871096912056,-0.0135039403810437,-0.00794565035068751
-0.00127972859647048,-0.0400464567249526,-0.0116713336142246,-0.00761678982159804
0.000566918097464057,-0.0281843013624132,-0.0104044252205797,-0.00719395406932225
0.00170586832978476,-0.0119936337262648,-0.00985699947548294,-0.00669151650329276
-0.00141792607768998,0.000801296417689498,-0.00903069498457793,-0.00593376644807652
-0.00682547729696818,0.00779329589331438,-0.00909832932212879,-0.0050660938725678
-0.0111847450196906,0.0101616932649915,-0.00892831887704124,-0.00423985541421724
-0.014462008478792,0.0114476905415774,-0.00648774785334505,-0.00328204030391087
-0.0180839191669555,0.0177876992153609,-0.0053549943001355,-0.00187528399949962
-0.0201655498418792,0.0288935279361062,-0.00516746051305334,-0.000211527084314966
-0.0191499806143594,0.0374587480578854,-0.00339512791254007,0.00111519948593733
-0.0161684998474104,0.038779471229214,-0.00210060849915657,0.00169450751404316
-0.0132376599954327,0.0338919597050608,-0.00255888585855774,0.0013471273735466
-0.0129357229081867,0.0264182848021457,-0.00412578605446237,0.000487419796217642
-0.0129637743275931,0.0187960511521577,-0.00650064961679589,-0.000237611720190503
-0.0119879929646342,0.0129959248112765,-0.00972781823654091,-0.000632690357675634
-0.0111393467238455,0.0103414268694702,-0.0117616832916942,-0.000671980873978745
-0.0101185838201328,0.00906582789142111,-0.0106928546315309,-0.000360175455733655
-0.0105090786361698,0.00684172422930144,-0.00742918766992481,0.000155873010887931
-0.0107343189167565,0.00410522598033301,-0.00481806512557766,0.000674866311368805
-0.00949854559800512,0.00259703125034824,-0.00513097969721967,0.00121704877221595
-0.00925869266319518,0.00180222614948398,-0.00793060165861375,0.0017310113097711
-0.00895142644254269,0.000233188420321207,-0.00942534812776004,0.00197785685445039
-0.00725083148128668,-0.0017030096474948,-0.00710536421834254,0.00193403624908425
-0.00613038166889516,-0.00307750298423316,-0.00447578443345471,0.00177690937005695
-0.00731313384671871,-0.00373079631013358,-0.00427092045507537,0.00178659916821805
-0.00924866831203511,-0.0036367568557444,-0.00477584812976746,0.00199655025678011
-0.00915784596230953,-0.00357492063624063,-0.00409969494038638,0.00224541618553117
-0.00794680454462988,-0.00483682512275339,-0.00241928141042714,0.0025947958547278
-0.006713181427836,-0.00738201986590185,-0.00102989988757422,0.00296303018719527
-0.00475312966913668,-0.0086134201006563,-0.000219755330391008,0.00308328952282853
-0.00395767041483131,-0.00697659101011215,-0.000523091804321671,0.00308298854475901
-0.00322361804749576,-0.00498678488391938,-0.0012915225539183,0.00326559994633837
-0.000131702740312128,-0.00464291087644067,-0.00152602484300051,0.00357709293833082
0.00237501725110839,-0.0054832785558173,-0.00017584461503333,0.00385558313454718
0.00282467372837624,-0.00599307992668632,0.0019945588065062,0.00401834999218984
0.00282148055648367,-0.00585242726888875,0.00283305152604489,0.00409847225143498
0.00321718948751716,-0.00589663865392959,0.00353375873236968,0.00419671892090444
0.0053081143205529,-0.00478094711742279,0.00461813635472329,0.00421580358434221
0.00788636128254415,-0.00300240881106687,0.00642006336749798,0.00422613955394991
0.00755485929921674,-0.00288564241584233,0.00962969285647581,0.0043178389903891
0.00573410781585552,-0.00199211012898058,0.0125488017693135,0.00437645913414902
0.00681104327098227,-9.02827240672254e-05,0.0140254788231659,0.00462969821794536
0.009942119649546,0.000950774544169746,0.0149739770685185,0.00513704825703655
0.00960904658736448,0.00217962812067175,0.0152989093974897,0.00548427133224466
0.00559039916770993,0.00261532291144821,0.0153401932442918,0.00543245684792733
0.00238024623552729,0.00279904093251024,0.0159387246382008,0.00494643296370858
0.00247307863543966,0.00497888198040402,0.0182955145973954,0.00389836643129026
0.0040969133928978,0.00735529655268452,0.0215107665487587,0.00215375497225135
0.00318823054572308,0.00828648332330332,0.0226990855189855,0.000189458744414463
0.00102853717058644,0.00810586618854074,0.0226527918938747,-0.00118603735073983
0.00158360773082845,0.00572747575801449,0.021581720421929,-0.00189682172394777
0.00341537676489612,0.00249554671455506,0.0185351127120204,-0.00195517208087036
0.00391738006622367,0.0016458471811777,0.016641829984018,-0.000943594086292048
0.00344884497530643,0.0035135164287825,0.0182811270515986,0.000843500523750178
0.00345190679074656,0.00571083715417762,0.0203222619912815,0.00243523271284707
0.00403686452041947,0.00705986796671658,0.0206756679645302,0.00305764933216321
0.00353962174639182,0.00810585968328326,0.0204409116572369,0.00252674409852104
0.00264395478736165,0.00744832188318124,0.0198699637267102,0.00159239870737846
0.00541796486797875,0.00538278112705765,0.016140005534768,0.00154297081069007
0.0104720110150285,0.00403248223928776,0.00798798055939831,0.00231548955701196
0.01195264448081,0.00409331684361579,-0.000540730002505301,0.00161290825252481
0.010320310892784,0.00606355301572904,-0.00324866154838177,-0.00244765418756563
0.0085819901561046,0.0125076123276085,0.00158855321779381,-0.00851013843037841
0.00554736015854614,0.0279596834615605,0.00728118058712812,-0.0129151304094971
9.97724980892145e-05,0.0484720814037976,0.00810497298170424,-0.0133744118296219
-0.00404719423036371,0.0612806898274117,0.00397994840434168,-0.0108084407236386
-0.00272116021688199,0.0589291034271149,-0.00388437763861871,-0.00750344156081131
0.000681721529508529,0.0467992752080446,-0.0106022361165964,-0.00520660946750338
-0.000384343493161096,0.0363137541161893,-0.0105995920886599,-0.00461164238464465
-0.00420665073223956,0.0320332230119415,-0.00670494530947509,-0.00483541201435085
-0.00469360915767963,0.0282410401040974,-0.00661489367988143,-0.00444198354750559
-0.00127258159734906,0.0171168590771007,-0.0120033729076838,-0.00346189911991257
0.00188207975860463,-0.000945493763859127,-0.0166038932616881,-0.00293789844197597
0.00444950216578689,-0.0211302152494743,-0.0184476985861156,-0.00336004412020054
0.0100929703880152,-0.0431398213690864,-0.0223647800415647,-0.00422006734128091
0.0209355650856789,-0.0656180300306645,-0.0272256947218165,-0.00433707669843243
0.0351470951298337,-0.0801686528586978,-0.0317062704326182,-0.00312977597628045
0.0454128445214062,-0.0797424240204714,-0.036319118401733,-0.00163781222786512
0.0458049889232579,-0.0702682405940987,-0.0402416880772125,-0.00114993725427734
0.0397949730337875,-0.0671323651454586,-0.0467698489750713,-0.00231259903743539
0.0352704007358242,-0.0694716597010057,-0.0526343189254655,-0.00550903480985179
0.032683340443619,-0.06586478026669,-0.0508175239548901,-0.00949614808267505
0.026032259983879,-0.0565377146517903,-0.0429761020568926,-0.0112245335866364
0.0108353693178237,-0.0443517964996162,-0.0340868822585954,-0.00909009703331366
-0.00854519613005743,-0.0306712473647348,-0.0278010653849704,-0.00522941389488677
-0.0215753173865232,-0.0178718816740444,-0.024617353332735,-0.0026621459801022
-0.0211889849103535,-0.0106144283591874,-0.0182713184148073,-0.00158446129866973
-0.00980836107105948,-0.0171258296879755,-0.00992439112454501,-0.00046365397983547
-0.00478518379454534,-0.0364077277145871,-0.0103530624699114,0.00093039496266328
-0.0195839848454069,-0.0400915631671053,-0.0146356453228338,0.0014361191775379
-0.0418092677129745,-0.00453185320322563,-0.0119715226750534,0.00116850617969192
-0.0475390751395697,0.035031118171924,-0.00804647571104055,0.00168612225744355
-0.0300239200662863,0.026408922735261,-0.0118852979722141,0.00287165844115037
-0.00272687518137647,-0.0184640481759065,-0.0213784369865992,0.00298029986008936
0.0224598160908512,-0.0529452227968116,-0.0286498743344292,0.00161847190003352
0.042670766155634,-0.0660753793912052,-0.0318683096279998,0.000214286666933659
0.0538655533950279,-0.0748280332268494,-0.0333245619547577,-6.44689051891066e-05
0.0504360933937967,-0.082799834240992,-0.0331105424636744,0.000709371615926077
0.0323454953550772,-0.0820555488703705,-0.0297962364330746,0.002062526416117
0.00983272534422972,-0.0749228902367043,-0.0220493818733491,0.00353086974937309
-0.00223431828855162,-0.0609392617450696,-0.0134718546602144,0.00496262611314578
-0.00441551959057669,-0.0305969291381662,-0.00661233809421227,0.00649208525194553
-0.0062706087971983,0.00836701010351257,0.000738209738545114,0.00794913558359364
-0.00669455278361549,0.0258337510959942,0.00625173951623082,0.00915185495275453
-0.00690459586483715,0.0120647798718188,0.00766018867569619,0.00991986204310249
-0.0111969280956106,-0.0120260741367279,0.00797527421495859,0.0097040929349712
-0.0146703236693862,-0.0303454660107727,0.00886370136400291,0.00821843986815637
-0.0139881273456095,-0.0347991373014072,0.0106219691095545,0.00611270925026578
-0.0132417886381441,-0.0269751444203954,0.0128157343852436,0.00455153842007184
-0.0144072288744195,-0.017636629816437,0.0147751548278896,0.00426477250136577
-0.0165575254312549,-0.00930724399744823,0.0168798655813989,0.00517269372037065
-0.0221167167519533,0.00193281244354214,0.019832826262186,0.00650741679433876
-0.0293725580251221,0.0150455832274259,0.0230845094405716,0.00725418341755309
-0.0304586766202833,0.0233053848685449,0.0236637867436009,0.00701799542792025
-0.0240652826500403,0.0250617753936126,0.0226644908491374,0.00652144884567683
-0.0154654034019091,0.0257075261068413,0.023904463635253,0.00653826583686909
-0.0087238583866119,0.0287487323516323,0.0257031475561356,0.00663221719433036
-0.00537649109427529,0.03300359662549,0.0270730030415828,0.0061646817795538
-0.00484625730416374,0.0371736132993081,0.0292699649319242,0.00519964154138269
-0.00440550385187625,0.0406517270986085,0.0303364021897973,0.00408431874476835
-0.0030698243261418,0.0433376067550586,0.0284644608453242,0.00292338619372784
-0.00195799167190001,0.0459138275600397,0.0244819883623391,0.00150605104087703
-0.00219152803457042,0.0462860640383204,0.02190644857291,9.58068625838527e-05
-0.00445671232328861,0.0449003721693299,0.0222882388388148,-0.000875079787210692
-0.00749605953040576,0.0448259339985477,0.0236456656020311,-0.00145197866499202
-0.0102341479174274,0.0442512742851077,0.0245646557964024,-0.00162884732706323
-0.0115332883601234,0.0421239220243563,0.025500427168926,-0.00108485949737592
-0.0116185420845037,0.0415327200330286,0.0263906599393284,0.000114467440968083
-0.0141002053206266,0.0417951260484112,0.0257631369120056,0.00120934130687955
-0.0172141743002938,0.0389714578393585,0.0237013225026892,0.00179463896034549
-0.0144093203371372,0.0349418918969288,0.0210120555702465,0.00231815424905949
-0.00687864929240961,0.0324390905674915,0.0183024008626767,0.00295858477189979
0.00161685063209466,0.0299092182334077,0.0163516046838803,0.0029995490247124
0.00786176749180403,0.0253656474878187,0.013429832079064,0.00196513886307499
0.00803093833692935,0.0188745009871174,0.00663891866866946,0.000185197424546008
0.00429886082627947,0.0130635641941815,0.00157698228499742,-0.00208502844166014
-0.000492826170696785,0.0105542779329564,0.00494405550422724,-0.00426858995651495
-0.00285012283874683,0.0107798860648869,0.011829407696748,-0.00506745863136141
-0.00218220304890821,0.0112957522132893,0.0167944658883765,-0.00420707006841596
-0.00197639613565751,0.0118426544189446,0.0180158564475693,-0.00291636713551093
-0.000324776796222946,0.0116429602628375,0.014712307554957,-0.00216544756948573
0.00184849065327785,0.0105659647633304,0.0123368090689494,-0.0015274711449969
0.00180130725645405,0.00999491739609278,0.0136713806406378,-0.00016094528542795
0.00244004333574295,0.008862438081905,0.0134232102307378,0.000540914132923931
0.00399290422360103,0.00724854487944449,0.00919779505416109,-0.00263234304104333
0.00412509423151011,0.00658016217089887,0.00390998188853271,-0.00970281952756524
0.00291279387124891,0.00598876292151908,0.00111294093704576,-0.0162453245024447
0.00135153466130816,0.00549315817313046,0.00266792750301394,-0.0183875122474609
0.000829536227276207,0.00512837823540589,0.00525018638508103,-0.0158187152951368
0.00111577736488306,0.00413460243962926,0.00520819138442905,-0.010461445405639
0.00110289374628565,0.00350890976195079,0.00362090993235065,-0.00514361884208745
0.00101061424814791,0.00265503344527228,0.00261527266826959,-0.00216581534310691
0.00175784530242467,0.0007895069087203,0.00400200970249959,-0.00141310454494341
0.00506767329780912,-0.000452873673688916,0.00597104448928441,-0.00122253290737781
0.00938875993585048,-0.00179804619657059,0.00512959876920624,-0.000788899723296915
0.0113070363700989,-0.00548150884266942,0.00168997347267627,-0.000358208793462656
0.011865056637525,-0.00908157949914599,-0.000557448412335782,-3.14502617806524e-05
0.0122292323932556,-0.00858630825013928,0.00160463882102846,0.000267995023921947
0.0111559466144359,-0.00582214970883777,0.00409235034622406,0.000506790425992555
0.00928147243878155,-0.00437991020701163,0.00152877976304195,0.000631300255457611
0.0084162508090905,-0.00258926557265573,-0.0035767770741406,0.000204433820391119
0.00870981795492678,0.00065459348971755,-0.00698226660990976,-0.00113432591094203
0.00866413929632479,0.00294573348855474,-0.00791104917421121,-0.00312884181947587
0.00454955882825821,0.00381972728160593,-0.00707632106288847,-0.00532568048608747
-0.00319612514167909,0.00347847295726033,-0.00542361673330723,-0.00720503565903018
-0.00625598287724274,-0.000700670940497677,-0.00637550161420429,-0.0081395064594962
-0.00218093759785021,-0.00796428149882045,-0.0128024879125081,-0.00788714757999346
0.0017294909246248,-0.0139266866993741,-0.0173803005260359,-0.00702617934677565
0.000556393306408317,-0.0166768593123201,-0.0144146382494564,-0.00615956022890717
-0.00344247828413185,-0.0182346843933013,-0.0106750189376806,-0.00524745788359614
-0.00456700192874472,-0.020900380126237,-0.00952774150036425,-0.0040704448341186
-0.00317915652141632,-0.0186007281432959,-0.00712273190740652,-0.00245379036466781
-0.00286887990691042,-0.0094449156676562,-0.00489208792173341,-0.000443563255372997
0.000474906163782996,-0.00297527953887518,-0.00680314850198208,0.0014370443980476
0.00748798077519072,-0.000187924336634896,-0.00921195861852344,0.00262789213878074
0.0107693377927741,0.00166744236780182,-0.00909400958339196,0.00291683462510232
0.00808846537982414,-0.00152956084590824,-0.0102911774234375,0.00240075591983167
0.00470625749679924,-0.00635396995064399,-0.0127341832035902,0.0015303411219479
0.00483629250889221,-0.00704158119453179,-0.0124112658428945,0.001044671419708
0.00699913190903697,-0.00595632998484086,-0.0103187955309978,0.00141230375355967
0.00646481697581044,-0.00410484266078856,-0.0095320839572911,0.00230268611884696
0.00408516885777739,-0.00118333938271776,-0.00900424094116674,0.00305370235991931
0.00511167727897054,-0.000220019129176372,-0.00854267518156402,0.00331898334887973
0.00613508216541261,-0.00237771681860563,-0.00786994145732257,0.00320486251898883
0.00304230716705464,-0.00486684970900665,-0.00590178658621103,0.00301089836390662
0.000547927187045293,-0.00437395524141005,-0.00478862432329792,0.00275390013082613
-0.00014888817201787,-0.00158361455209232,-0.00401097809914001,0.00216322893596453
-0.0028122073516568,0.00086353041184001,-0.00269187160796204,0.00113179078774516
-0.00552689919634796,0.00397176858510206,-0.00156206381810155,0.000188751584171884
-0.00522745512152229,0.00499568264063913,0.000414735943999076,0.000241687147376999
-0.00326437013360252,0.00314221418345684,0.00214152096561509,0.00160795326749251
-0.00175671702605182,0.00860757550228066,0.00324254743094832,0.0038127462063497
-0.0010596179980697,0.0238101821702541,0.00456367445489006,0.00596202328402249
-0.000881404620930057,0.0408681395349501,0.00639197625029585,0.00711371294940879
-0.0006402540797131,0.051240599296179,0.0076215478602155,0.00714821766123082
0.000545030037419951,0.0491342240406016,0.0055177790373253,0.00657928071703086
0.00302693816142881,0.0391909716198268,0.00368727061914034,0.00572379632096489
0.00662596323172963,0.0279312849632927,0.00446063266799981,0.00490401622284564
0.00978972372129845,0.0151209559356788,0.00441682996149617,0.00473276348343823
0.0116430800501078,-0.00330679210808654,0.00179443265812077,0.00537950422663792
0.0121179632911303,-0.0276266039194229,-0.00248518666751747,0.00602193561480105
0.0124870927700321,-0.0471565753814767,-0.00416107514561656,0.00595026264172094
0.014848495053884,-0.0522240870047004,-0.000267251375351171,0.00555871293723095
0.0175249841790877,-0.0463992166954438,0.00450070999778071,0.00559090884070711
0.0189377940166864,-0.0426037390201457,0.000916464412655126,0.00592362754994907
0.0181938526666491,-0.0505290217186311,-0.0121468049003698,0.00556260568712012
0.0128547770634229,-0.0589051501001684,-0.0225829981958286,0.0038882583438197
0.00941153837733793,-0.0525126056730012,-0.0216064913095381,0.00176606349558222
0.0145318898334625,-0.0364723561793921,-0.0127681073135852,0.000534733419935205
0.0192545535968767,-0.0208520383059175,0.00159068208832906,0.000412246081543521
0.0164494305846189,-0.00713941448039489,0.0175498078833839,0.000977388099214962
0.00905365912216146,0.0112509975873529,0.0265354037956693,0.00211289849473798
0.00125246603012663,0.0290719438726122,0.0256523973370764,0.00308844789986758
-0.00280018735067219,0.0249866801955353,0.0168176513429579,0.00235787930634871
-0.00226815313151769,0.00217810210561159,0.00658872418050515,0.000303796044449002
-0.00110839518664061,-0.0132160841225198,0.00362565045134023,-0.000786460613646442
-0.00677872402043057,-0.012985321716631,0.00821061489088711,-0.00027596444399613
-0.0198704166759608,-0.00499487379285291,0.0133682897665908,0.000633648372924314
-0.0304174810735686,0.0104487206436592,0.0147949041134578,0.00099571694769966
-0.0320000107949132,0.0364528182535442,0.014246659521881,0.000486861771153833
-0.0229738952096938,0.0518747852195633,0.0126095609796271,-0.000592706984505671
-0.00534281909609342,0.0325857402928007,0.00773731358603734,-0.00116698112958887
0.0107854586063782,-0.00511265541903821,0.00202777454279526,-0.000516841697879321
0.01959179482181,-0.034969127638274,-0.00261784220072241,0.000504869650526609
0.0233309799319222,-0.0552264072246607,-0.00987009367541083,0.0001541747698303
0.021876223123169,-0.0684746881592312,-0.0177233015567701,-0.00219605141200206
0.0135513055347702,-0.0702959579083711,-0.0182267694359151,-0.00516726204995737
0.000780478446439479,-0.0620938579852351,-0.0125406491333792,-0.00701611719689819
-0.00954625278686944,-0.0532250151349212,-0.00789916737973165,-0.00711392340251572
-0.014321887625139,-0.0499280786532631,-0.00613249849029391,-0.00553784121408898
-0.0149324291884307,-0.0488037818589417,-0.00522024707234144,-0.00311623438258875
-0.0138228713429324,-0.042457641310366,-0.00172562808188772,-0.00150048348094535
-0.0149798439454322,-0.028996113333266,0.00580102172197939,-0.00127418419175533
-0.0174047267552761,-0.0148377500405348,0.0125445691423505,-0.00127576623718779
-0.0159903311356394,-0.00605752449579319,0.0105752711871432,-0.0013233254974283
-0.0100871636753962,-0.00294875323380948,-0.000329657293370547,-0.00326794271585922
-0.00636088256760447,-0.000425486575779493,-0.00860134874472192,-0.00761779812081521
-0.00941307789903594,0.00537639326352436,-0.00856562842741743,-0.011753129873979
-0.0147822721698381,0.0124425881210281,-0.00671182446711945,-0.0132687783198681
-0.0183377944671057,0.0218053676583545,-0.00507883130976011,-0.0129924798608508
-0.0237319657900858,0.0385363497057941,0.000250726532493438,-0.0122394283916365
-0.0327133128999788,0.0551303653859811,0.00771541224909019,-0.00949482505058568
-0.035387247859714,0.0528576288640483,0.010315337654559,-0.00322331781428367
-0.0292522147569793,0.0347327956006463,0.00733245631725167,0.00462788537794556
-0.0240391641924576,0.0217590760450954,0.00310604979909753,0.0106018478169276
-0.0215603376488624,0.0184831179123631,-0.00272852038751029,0.0129690585041434
-0.0194083566493511,0.0154740729401691,-0.0104268102387507,0.0108743042244421
-0.0169779008604624,0.00975491564056643,-0.0155174777024547,0.00399791718506212
-0.0132023973879436,0.00460863648473673,-0.0161883275811178,-0.00474649167326986
-0.00711156040970104,-0.00161573161621864,-0.0161001253758685,-0.0107174328781515
-0.000363185203251465,-0.0131151498241964,-0.0162701209878342,-0.0121774936648755
0.00410115712826723,-0.0215174256223275,-0.0136304810678208,-0.0103031656496063
0.00705606383394417,-0.0159477969490312,-0.0071185820899151,-0.00704392080719588
0.0073820325039865,-0.00424482527738839,0.000126028137408789,-0.00415732338647625
0.00425669960745396,0.0021148365628708,0.00256199180797529,-0.00212017436312664
-0.000898978194090076,0.00616015403570451,-0.000355925337425033,-0.000725066460748562
-0.00701256202037587,0.0146663996757327,-0.00413422958390918,4.02576340392199e-05
-0.00988510940173573,0.0236180983012491,-0.00596609599378821,0.000663208312574624
-0.0101229341423568,0.0261888698300043,-0.00641803525794133,0.00199287348206686
-0.0112851771764078,0.0237152037326391,-0.00794511225227029,0.00408548933787401
-0.0110626028113047,0.019008528169594,-0.00923731469693574,0.00585065343741896
-0.00603218738348061,0.0137963785457573,-0.00837897096350033,0.00674294642239868
0.00189762051186783,0.00889852610244952,-0.0100140830199782,0.00708354049318249
0.00686815909017742,0.00312433612590182,-0.0147216133409087,0.00642748817582235
0.00655214207632338,-0.000659675266782799,-0.0147070153402556,0.00460086039616542
0.00263379912752525,0.00081294407938219,-0.00847404562134148,0.00248150689082233
-0.000873911896309202,0.00802876014645974,-0.00161606236262289,0.00092631718991367
-0.00272137541282702,0.0191872798735914,0.0020652218756936,0.00038390504965631
-0.00404335710989891,0.0259683900388206,0.00263989833046366,0.000378343781860632
-0.00420406658154833,0.0238879533721496,0.00175777091678564,0.000223650350886343
-0.00623771183217398,0.017700458568871,0.000412293490683479,-0.000100421552706201
-0.0092572518996084,0.0116974337325157,0.00014300710979072,-0.000317339088588528
-0.00699102935456944,0.00773990886870541,0.00131068844667518,0.000363082044447726
4.1344198237328e-05,0.00647601495143283,0.00236668887239142,0.00295861226757531
0.00718531070427894,0.00526816603260163,0.00217462199990355,0.00699403095884035
0.0118137602868689,-0.00155995201442085,0.000349117972272208,0.00980453446620717
0.0151156654130422,-0.0154307651175521,-0.00305034287733574,0.00940668993920138
0.0165057696831104,-0.0279440852415221,-0.00676588286963496,0.00676183461669403
0.0137111503418365,-0.0308199910110302,-0.00859631038685706,0.00403123486581386
0.0106965271761426,-0.0253249127850109,-0.00766619241936917,0.00248432267638918
0.00894666356338543,-0.0140801369247314,-0.00271811788792241,0.0019545321624337
0.00434132605832501,-0.00180614638430459,0.0032766952144816,0.0017298425147127
-0.000763692093243272,-1.12814688279818e-05,0.00439680462005664,0.0015027368646499
-0.00227158712552773,-0.00871192882621911,0.00264130692950774,0.00135800520642488
-0.00393043574340694,-0.0118258304151742,0.00266177771295791,0.00131582190595175
-0.00892573277492908,-0.00363522262244517,0.00461212351684291,0.000923948249322028
-0.0141938290076194,0.00590142268592758,0.00712668246618881,-0.000514186733430479
-0.0146485379865313,0.0121153097798616,0.00856304594878853,-0.00292570507937585
-0.00844665060231073,0.016551442923797,0.00691464013353709,-0.00488575404005279
-0.000321908439674653,0.0190191442272762,0.00486534288742199,-0.00466734437738549
0.00504299390738734,0.015842322657295,0.00492962152902041,-0.00172546912149569
0.00950976285183761,0.00112151959748157,0.00271496895466339,0.00249738223418737
0.0157646019095238,-0.024451546513176,-0.00434677215994866,0.00572924748075645
0.0237678664544461,-0.0527067338219779,-0.0130280893074932,0.0066614865666688
0.0292145309306815,-0.0740057267870674,-0.017726707669726,0.00514081342789082
0.028601160040402,-0.0826083993030036,-0.0160293189135039,0.00234481067374119
0.0263178948952493,-0.077829119281636,-0.0120208907334995,-8.15315399981414e-05
0.0230680314067959,-0.0572036203213123,-0.00799166798770254,-0.00156793244761376
0.0152237613272455,-0.0260131794899081,-0.00299301781663096,-0.00217014483669215
0.00795322701570621,-0.00213242784644388,0.00195405467469402,-0.00221427824034064
0.00527621532652262,0.00409141854447977,0.00594114494448086,-0.00196784903851832
0.00582272327239075,-0.00173491434244859,0.00879368921281133,-0.00128003613372703
0.00617289918397144,-0.00579176606757616,0.00966268844336749,-0.000517532744381764
-0.00450622965214203,0.00604308971840472,0.0109572126402671,-0.000294675961140811
-0.0254460436066382,0.0352994050052989,0.01670682626124,-0.000463078949828271
-0.0381853453075644,0.066353251264675,0.0259767437364321,-0.0010081654828354
-0.0311926268994262,0.0784059616674485,0.0305229700674171,-0.00252292417714409
-0.0123087562954358,0.0610370610189249,0.0234090165437525,-0.00450139349142611
0.000525273437570979,0.0294954315564508,0.0102312128912071,-0.00552043424910883
0.00218628463476787,0.00652417028266296,-0.00056916872175141,-0.00498141943272552
0.000179667234050006,-0.00533448946536787,-0.00910906167083498,-0.00321900544238706
-0.00300033122597443,-0.0115608976420097,-0.0139759168073286,-0.00139756469878426
-0.00414826635982509,-0.00911813831300204,-0.00921006277706924,-0.000752591910491435
0.00433652337751489,-0.000991545159196597,-0.00301177457258619,-0.00133740233754378
0.0202566230780308,-0.00539202219574323,-0.00871700884506965,-0.00257250617816367
0.0295733060875741,-0.0225048723198861,-0.0193672719125677,-0.0038951266983873
0.0276748804710076,-0.030975557660446,-0.0202623446852339,-0.0042895603177106
0.02361061688316,-0.0257194201041747,-0.0110404088984517,-0.00333639675433391
0.0192392961238842,-0.0168353918396009,-0.00294796202414303,-0.00242239829219643
0.0129233648813408,-0.0133089619924254,-0.00233264496986006,-0.00295873809272354
0.00787210979868536,-0.0147670063690385,-0.00469162465395518,-0.00426442218270287
0.00146964920076342,-0.0138210645970617,-0.00676454681429119,-0.00433283237577066
-0.0109173388181563,-0.00269526428702698,-0.00709136410689695,-0.0025482713849046
-0.0213750545122244,0.0233251269286938,0.00137468871316835,-0.000120743624566539
-0.0203853166556203,0.0509706843011224,0.0154733879621399,0.00220713464762644
-0.0157713712296208,0.0607124564019942,0.0233149473519954,0.00420134848637518
-0.018201504458273,0.0552383509180895,0.0270744142410443,0.00497474924538688
-0.0241268451931816,0.0488433631782329,0.0306987035560387,0.0041401199603143
-0.02340998312189,0.0435326037074353,0.0291319265216898,0.00256476048768409
-0.0137670071980445,0.0372929106288137,0.0238009707642528,0.00132188748308612
0.000542406022211029,0.0326957189336041,0.020126172735812,0.000851855792764598
0.0143278288180463,0.0290767789905432,0.017471260104645,0.000963140005597621
0.0203350130099382,0.0237587825432698,0.013085685591077,0.00115779524153748
0.0174305220171772,0.0168765560479397,0.00767073723770922,0.000865925451390606
0.0106171075981859,0.0120193419179804,0.00618480473973987,7.68329040752311e-05
0.00274063904825783,0.0125035909633847,0.00836823275591453,-0.000867500192447756
-0.00330604499931985,0.0130287776712197,0.00953906808781024,-0.00209437096705339
-0.00524288520100931,0.00714763932774135,0.0103831617988193,-0.00361239098088064
-0.00621096853004671,-0.00199869516030766,0.00993377018944754,-0.00470911796090455
-0.00727706649152981,-0.00956295401031617,0.00486543217999705,-0.00440461206743246
-0.00471129372495247,-0.0128214869718716,-0.00136008502750472,-0.00283124867123101
-0.00248290237169974,-0.00728973718363704,-0.00134545091579832,-0.00148019706107953
-0.00723865668471646,0.00401024498377113,0.00580015281067216,-0.00102029256622413
-0.0133024722272969,0.0120291749983942,0.013056934339827,-0.000701431962465379
-0.0146320781829155,0.0195024834676582,0.011048657846687,9.07471723361536e-05
-0.0142734856351349,0.0297018812987815,0.00043305385402144,0.000992952506067509
-0.015902555678983,0.0332117014863238,-0.00598958086375777,0.00105314536805826
-0.0179176845294508,0.0251522172269195,-0.00548934655023509,0.000124928825684649
-0.0141916538647323,0.0132272143760834,-0.00357359695158803,-0.000732028393409267
-0.00417755300932264,0.00587951268761789,-0.000123598380951672,-4.9921733304625e-06
0.00653058559241835,0.00284070411239348,0.00203779745033266,0.0031198333359664
0.0149896606401639,-0.00159437725455005,-0.000236210299948844,0.00724889562006184
0.01835999059354,-0.00933545569465195,-0.00322760341149399,0.00942014201639747
0.0148500118335058,-0.0160731273749899,-0.00220772439996096,0.00786065298433126
0.00823603083586281,-0.0198083565970008,0.00191810844784232,0.00362690840755641
0.00248794744096914,-0.0238633083321667,0.0050140949021487,-0.000302231679787122
-0.000566072848854998,-0.0247038123014616,0.00751997496399753,-0.00172088582119223
-0.0021812044439199,-0.0166653745830486,0.0124623712629145,-0.001048897186803
-0.00374028010783976,-0.00374120092617858,0.0178761206971833,8.71361606143161e-05
-0.00273512509373965,0.00848053766934507,0.0190744731733763,0.000958114766480883
0.000433081768148217,0.0181045444196937,0.0158209976674121,0.00125625628331564
0.00209019603007484,0.0241569206904941,0.00838481328581775,0.000126465519890923
0.00271421595205165,0.0268829531258415,-0.00150023083791094,-0.00270402195687035
0.00352358595975025,0.0247915385409838,-0.00993787171778382,-0.00564188763553362
0.00164433872651491,0.0163274194419268,-0.0165062164836775,-0.00678636343517944
-0.00440326263141954,0.00607494268451518,-0.0179478035929226,-0.0061057411486367
-0.0122491405480051,-0.00274964728756818,-0.0141256074490757,-0.00474694772803562
-0.016575165911829,-0.0105452539601282,-0.0123313304250535,-0.00340356467637726
-0.0140922500503467,-0.0152738173043058,-0.013782680522901,-0.00228661121027659
-0.00791176278700725,-0.0153888299512818,-0.0145323025920961,-0.00128395658528956
-0.00135305605531859,-0.0136324647769795,-0.013516861992648,0.000133161860372387
0.00398465393443414,-0.011204308646123,-0.0138212425373891,0.00211706119643777
0.00731496137343574,-0.00823975370450467,-0.016164607436238,0.00357975967471621
0.00796188793876591,-0.00657843706428538,-0.0164522882519004,0.00309806838640526
0.00519881597113408,-0.00386489287184481,-0.0141354684211139,0.000931382370730263
0.00326500686301586,-0.000685502910261718,-0.0112086805492248,-0.000889514479227842
0.00645793036376181,0.00231576844807219,-0.00753287299527843,-0.000674613060769554
0.0135052109643478,0.00752048601295055,-0.00494292965291493,0.00160381746999048
0.0211648845809504,0.0127002761273937,-0.00633507789727044,0.00490141517486447
0.0239733426357699,0.0141241001292101,-0.00984650701639685,0.00744022228484606
0.0194103102616365,0.0100809164812117,-0.0118021291443623,0.00710978869145242
0.00955475306017227,0.00415043872232082,-0.010534871760992,0.00379094789314764
-0.00125806427705431,-0.00182816980261108,-0.00748869196346112,-0.000126520473083669
-0.00548000814928864,-0.00892355110979506,-0.00617474040285243,-0.00293684445634309
-0.00287204184355947,-0.0134357192816723,-0.0052616835866906,-0.00431407196048646
0.000321720238741283,-0.0136726127406499,-0.00258166398563379,-0.00370655581898656
0.00320187891554496,-0.0133097608352841,-0.00270939128470353,-0.00154368194286735
0.00596806400877283,-0.0153644341486096,-0.00635817603532348,-4.08401184874017e-05
0.00675111800646522,-0.0185472051552511,-0.00868034491643154,-0.000728324951443073
0.00622377733512323,-0.0182007459399037,-0.00944982324388663,-0.00242856482599959
0.00342623407648055,-0.0136536144035314,-0.00679942544690447,-0.00273709833028898
-0.000847909810583513,-0.00726996358744277,0.00205002894088402,-0.000646463200287478
-0.00214725065894381,0.00125014619674732,0.0104412805684727,0.00279689518073734
0.00132577639272358,0.00849070484594407,0.0109078634442334,0.00558202584813969
0.0109117175025659,0.00771039295500604,0.00133064648398629,0.00595427387221244
0.022741083469072,-0.000238946938178226,-0.0162707098233892,0.00314841439004035
0.0287252285455807,-0.00601482634268511,-0.0274038518812704,-0.00181405126215859
0.0278542610965358,-0.00384771008567888,-0.0218220335830184,-0.00598988274063357
0.0230299562207136,0.0022764100162458,-0.0103599870178536,-0.00656507896058058
0.0174297887065974,0.00920582898075802,-0.00298897232006645,-0.0035343279018771
0.0138784301063068,0.0181266280912099,-9.07356836847405e-05,0.000576232109821656
0.0122064815720443,0.0252674811290247,-0.00187191087589514,0.00332589803230458
0.0121380953407243,0.0231703630216202,-0.0059049084439582,0.0042729756279825
0.0118894883735377,0.013019950482572,-0.00746702870119456,0.00459660453454119
0.00965276552444234,0.00295120116046527,-0.00806776684997547,0.00477201013437257
0.00679668615197778,-0.00530817236885982,-0.00894318808177196,0.00387076184520069
0.00360009906341132,-0.0109230155626257,-0.00740458348094818,0.00161868608770156
-0.00202232372358685,-0.00835009851719993,-0.00424602875652726,-0.000756162750911385
-0.00930875829580579,0.000468072800960418,-0.00166519222149128,-0.0021560207066007
-0.0149593880135058,0.00798674598210965,-0.00317647353313725,-0.00257886464858387
-0.01848825005368,0.0142195848881148,-0.00733643202653829,-0.00245305855744554
-0.0218657119790481,0.0205529123537169,-0.00961327727603059,-0.0019839160207809
-0.0235029585618326,0.0246335525982157,-0.0112450878307343,-0.00135256213370429
-0.0172575833921827,0.0258502594948781,-0.0105657529354251,-0.000735513281920536
-0.00299428886914079,0.0253854733280991,-0.00672500398659254,0.000215659815913184
0.0109632010954178,0.0258933187463133,-0.00546290809508722,0.00163486626144967
0.0174229725652795,0.0240550790383628,-0.0072877826681906,0.0026505869591743
0.0178790367258684,0.0175521196769452,-0.0067539049886221,0.00248538638464271
0.0199060898900062,0.0133433470727838,-0.00464196623425732,0.00156572225374726
0.0225887582894816,0.0112343449677298,-0.00646420398700811,0.000831770827426464
0.0207398814077488,0.00418224891292903,-0.0111489655223306,0.000389943495908012
0.0159658535020446,-0.00669807285268824,-0.0121336752487099,-0.000512555055247825
0.00865455387369238,-0.0162911705935354,-0.00738733878137272,-0.00198124410887228
0.000894683814403182,-0.0259137296228927,-0.00160995758842378,-0.00289831987224135
-0.00435925312102803,-0.0365250352416305,0.00318173416463917,-0.00234456404420118
-0.0115294463651156,-0.0427633225318332,0.00879342303055497,-0.000585247122753687
-0.02068641603773,-0.0393993668009841,0.0124870247734604,0.00142066055575021
-0.0232741285133739,-0.0268443950079653,0.0102495517886128,0.00305285066182957
-0.0164950817986458,-0.0123737382557117,0.00365547602938156,0.00392637869913887
-0.0082044210669081,-0.00144424152825506,-0.00150569408399224,0.00344998554154156
-0.00191069875917179,0.00863262299348948,-0.00176047787650946,0.00201432570718196
0.00574197306350144,0.012362769367241,-0.00205752897400466,0.000812465812590479
0.010504768562953,0.000218858865651279,-0.00598684168584343,-5.30668434124545e-05
0.0086079227934516,-0.0195287152533845,-0.0102934152932556,-0.00114286135374937
0.00502995193355404,-0.0315769213145184,-0.0126995439954975,-0.00220295325243842
0.000858532900865031,-0.0313813834486221,-0.0117430662015251,-0.00250588972504715
-0.00382489136904025,-0.0249922664989531,-0.0096727113542458,-0.00190138874828117
-0.00327714484004405,-0.021797502047038,-0.00961008094943216,-0.000847515479386021
0.00372581149287807,-0.0279226919410757,-0.0107761453742357,0.000106051253698094
0.0132014345845741,-0.0426227449545141,-0.0133693860035043,0.000685867125314852
0.0221165935425758,-0.0599833570525578,-0.015674991714912,0.000861048339449583
0.0257873693079917,-0.0681432712843083,-0.0138225911992241,0.000742417488078146
0.0187251889558682,-0.0567644060161986,-0.00728448865618244,0.000719796776880756
0.00583601969793906,-0.0296770851110498,0.00126352487734791,0.0010150393728954
0.000816799515526913,0.000676415282868548,0.00876515092230245,0.00143580441052635
0.00596438360515484,0.0202228030240891,0.0133254868218452,0.00184129308829573
0.00699168558391788,0.0188369049402714,0.0128921633569495,0.00209937368071112
-0.0033612609583822,-0.000288225559570796,0.00936663824308148,0.00177126851086259
-0.0168234170185472,-0.020699772839641,0.00911107862639305,0.000577717562611973
-0.0270768173354368,-0.0270887246000525,0.0130481803002167,-0.00100132198425378
-0.0275874460054943,-0.0230606172721567,0.0160470852529836,-0.00200848778512659
-0.0112976711699124,-0.0169678139313426,0.0146698956337378,-0.00201779903031579
0.00989321847234085,-0.0121073333759763,0.00953137477756525,-0.00134794272162659
0.0158847081345453,-0.0142645294254854,0.00452687281109609,-0.000613137443405685
0.00736948701093688,-0.0169374671888567,0.0049185706738883,-0.000373553029081743
-7.22577407625085e-05,-0.0144489100407608,0.00932855718711576,-0.000624525017397005
0.00161230560342831,-0.0165837218489406,0.00829177868428994,-0.00094195304826688
0.00836224157615944,-0.020759957752125,-0.000350294438297868,-0.00138026478721072
0.0129656360816356,-0.0177745516017637,-0.00796269929173695,-0.0027133793475007
0.013981360565464,-0.0107682848230274,-0.0102387380910162,-0.00478058661278081
0.0117951380929145,-0.00179685491973802,-0.00877619758999363,-0.00601456284807207
0.00728005390758155,0.00910681459391038,-0.00378772245615033,-0.00541592307232335
0.00557750557129533,0.0159217036509379,0.00279936928290421,-0.00314028921017532
0.00596448194207847,0.011222318319467,0.00606906913554839,0.000652117785966167
0.00486554079057656,-0.00292718833021472,0.00378975051308107,0.00501889995479146
0.0050794919932891,-0.0172671163779786,-0.00294318318339583,0.00746931806269019
0.0054382548071988,-0.0264309619400216,-0.0109134200995793,0.00665403164213302
0.00160182338415276,-0.0290142600481299,-0.0143544437933998,0.00331133607039065
-0.00346118597409646,-0.0314438159221661,-0.0109265369019923,-0.00132503045006948
-0.00907799465877024,-0.0374353105786994,-0.00472069751451097,-0.00573212184703266
-0.0177993347303515,-0.0373172748792572,0.00233832673275271,-0.00810475718777186
-0.0226104201047103,-0.0329791563108017,0.00863497509666566,-0.00753242320692396
-0.0200217868101695,-0.0319486744040414,0.0117778031983407,-0.0051666573864102
-0.0184718863794132,-0.021303931904028,0.0172690812070366,-0.00302096020044612
-0.0190291721248801,0.0056356181209341,0.0277785342230344,-0.0016254100947424
-0.0154691771232454,0.0354735410217185,0.0364079825107204,-0.000250860758643633
-0.00861932901736321,0.0553869776422021,0.0367879303787524,0.00160315293706577
-0.00472508722550567,0.0610271176744394,0.0291469939062754,0.00366815378612632
-0.00876247639827138,0.0666459514014494,0.0212655909007561,0.00484417101616669
-0.0142344675968399,0.0761722940533309,0.0170390116203077,0.00458507544997967
-0.011082027571448,0.0685621203321978,0.0136342723275484,0.00373973872077487
-0.00422598526223587,0.0407031926795366,0.0098423522856495,0.00303699307770922
-0.00135672622980469,0.0109001365782448,0.00403318077370418,0.00236745403488205
-0.00273866072864359,-0.0055786692643479,-0.00275278724949532,0.00155050654896318
-0.00943672778405586,-0.00674789809209438,-0.00588011943720123,0.00137376807414742
-0.0193734512063358,-0.00156019594392857,-0.0065166206331504,0.002996568884766
-0.0254379663752771,-0.000719063365135719,-0.00713078151503522,0.00525370291629151
-0.0237132186984099,-0.00555409237750017,-0.00327910853483683,0.00495541809844817
-0.0152474459568999,-0.0117295775430689,0.00358217076833129,0.00120373321833088
-0.00378111864817429,-0.0172170418070977,0.00604240319188538,-0.00333595036587235
0.00479207401585114,-0.0182752223100966,0.00415014141244609,-0.00601301735984593
0.00714454120670424,-0.0145957086709455,0.00189567250442331,-0.00652955205150702
0.00634057341167296,-0.00713470946318452,0.00244761416929755,-0.00628350029365485
0.00419489664086514,0.00647539735275412,0.00449210057211677,-0.00669608446388895
-0.000251134071034026,0.0234167026280585,0.00319097655149709,-0.00736185323325245
-0.0098915231480657,0.0385235881345181,0.000850935988227958,-0.00642340855884241
-0.0270638307236635,0.0495023939984454,0.00381606278574303,-0.00252153667800325
-0.039621871472724,0.0556326001040872,0.00866926510992495,0.00358185721355092
-0.0335669169363662,0.0594586703059366,0.0109085523118799,0.00867331062098527
-0.0142085512315061,0.0617847536540228,0.0139481349513326,0.0105835043701028
0.00571419638803537,0.0571044224430075,0.017743012109223,0.0105119416018158
0.0186034656109544,0.0442543224825714,0.01784733089519,0.00996528574970847
0.0214166550714488,0.0240502287878163,0.0122151817402174,0.00895685469216008
0.016818312925301,-0.00476687037909366,0.00130120019410461,0.00675850839519838
0.00716167785546965,-0.0257520075888326,-0.0106257458475586,0.00256486979297291
-0.0088544827998344,-0.0220806121953698,-0.0169591413178995,-0.00269993560184616
-0.0285914223411977,-0.00781687483514721,-0.0134694474070974,-0.00644061963883253
-0.0428619996294953,-0.00223576540811289,-0.00210492874328926,-0.00703106949944254
-0.0422515040323875,-0.00189802788584514,0.00907842467610741,-0.0051687898682638
-0.0311565795683027,0.00404752779818433,0.0141571881414568,-0.00307717733167558
-0.0209564974949159,0.0164289801729514,0.013431683801916,-0.00234309036669909
-0.0139462813768102,0.0254339003378228,0.0103292362032422,-0.00244704122324035
-0.00936479512635649,0.0220573115548747,0.00592335781789092,-0.00201332131187294
-0.00776677206961904,0.0163182745710246,0.00187348711615614,-0.0012740798387046
-0.00675555235328506,0.0221773194380981,0.00141362205978952,-0.00132115524417904
-0.000163049048483088,0.0328072737919042,0.00135319677402797,-0.00126905896904322
0.0108682339591087,0.0334701302769576,-0.00212141260430175,0.000104517570886842
0.0174844482393043,0.0231266963688542,-0.00676390746762484,0.00154468492225674
0.0185022370397645,0.0107030449688476,-0.00895760299283708,0.00184271023905173
0.0152326132803073,0.00123248463199868,-0.00974998041673595,0.00161522048600535
0.00789290601649185,-0.00442544195231715,-0.00975703710312107,0.0007524312783114
0.00315849671527658,-0.00836677403010899,-0.00601884974334657,-0.00136083870080505
0.000745930615596791,-0.0122855194693594,-0.00168921308720832,-0.00349282328084964
-0.00424827784092526,-0.0159844128802641,-0.00015369044716063,-0.00403956930412866
-0.00862454120454456,-0.0208830186465566,0.00116902286723701,-0.00328162979211297
-0.0104985352322953,-0.024442645556785,0.00285389547926071,-0.00237723429444303
-0.0105636479050458,-0.0237199963576175,0.00397166879229877,-0.00160586991633566
-0.0100283711122961,-0.0210179346989658,0.00394568167815691,-0.000793627589747754
-0.0106802079542962,-0.0161986294469619,0.00246310885830622,9.0599820666005e-05
-0.0104741359320658,-0.0112023206331109,0.00259549918480371,0.00125310676511341
-0.00725581514594066,-0.01233990119517,0.00409044649532557,0.00231620574509871
-0.00353535914294947,-0.0184475759712116,0.00288708944201749,0.00252890732828879
-0.00173421015631668,-0.0225847007901457,0.00165874691431839,0.00201976246575464
-0.00173736067665705,-0.0218853515111407,0.00338003118300658,0.00121985292813082
-0.00191417920736967,-0.0181234167920229,0.00449033342603265,0.000277424568307749
-0.000861569889747073,-0.0131964415483153,0.00386046668028616,-0.000577805301757013
0.00199650160334694,-0.0109284986310333,0.00265487141692647,-0.00103986157784543
0.0074599895525024,-0.0139410090214963,-0.00142112289593888,-0.00120407718265026
0.0122864233981251,-0.0191125034972966,-0.00908917528792674,-0.0015834297991208
0.0119262140228084,-0.0209093950144766,-0.0131878410044386,-0.00197475975618253
0.00597812047987563,-0.0142503397205431,-0.00936231375372042,-0.00156283241649463
0.00197600781299191,-0.000907998001517654,-0.00623611614994288,-0.000515961454610503
0.00823990913870444,0.0101834644700881,-0.00827111168820738,1.20217064425279e-05
0.0156742803366293,0.00918781355203324,-0.0113402245425463,-0.000712454517739736
0.0121647733312916,-0.00127301130032045,-0.0119733691959758,-0.00214178054416609
0.00259172602586337,-0.00858170686059796,-0.00969146489150522,-0.00312097639166769
-0.00417011807623656,-0.0103149692839824,-0.00762703968762371,-0.00280690784535076
-0.00543408943008117,-0.00897697706260066,-0.00584240030769709,-0.00103001700070697
-0.00390529685658967,-0.00447036175917943,-0.00385430895313232,0.00114068789150028
-0.00153736491793875,-0.0031603169421201,-0.00791493362463247,0.00241650564088655
0.00490584656609704,-0.00941564887797375,-0.0185652541516095,0.00275701512492477
0.0118533197032938,-0.0171597649640735,-0.0240462514153939,0.00277779474328515
0.0129725549313052,-0.0228851401620736,-0.0202866549317769,0.00265568463444158
0.0112193060419735,-0.0273220441250947,-0.0131386916830686,0.00234696452343033
0.01088802863404,-0.0237844344690408,-0.00486213866066701,0.00269311321247137
0.0118623326635896,-0.00854267727853295,0.00336362524849131,0.00410037581229577
0.0104559646677348,0.00452676932754741,0.00677756729315712,0.00470738935630889
0.00578937127667486,0.00838331310174798,0.00271831171169524,0.00260412147267392
0.00381081642696511,0.0101270557962938,-0.00404518759517748,-0.00145602223548176
0.00860503281846942,0.00224307141854489,-0.00909668063556219,-0.00490149294488872
0.0158640873121148,-0.0254589873765948,-0.012342601333602,-0.00583722402778227
0.0185390935675287,-0.0547477567135448,-0.0119167793907437,-0.00393215467488141
0.0160233548879297,-0.0684015961793893,-0.0119790165308362,-0.000435214762440283
0.0129258449078759,-0.0734555831210332,-0.0179587440577493,0.00152959026183712
0.0112018859294749,-0.0659550111864676,-0.0213617295085548,-0.000538551213115165
0.0101978806791007,-0.0370808805863775,-0.0142071083195838,-0.00499806392015553
0.00942974159640561,-0.00836637801692766,-0.00537045066814744,-0.00795425513428148
0.0105090955190319,-0.000694303965521503,-0.00265581305253112,-0.00770760498617558
0.0124604112258497,-0.00493152917624254,0.000767593131115485,-0.0045143387545898
0.0125562375241276,-0.00277777031982207,0.00691388667477901,0.0022470467617473
0.012602513061313,0.0139016320432482,0.00756247950118124,0.0126515349183931
0.00770593222428591,0.0351666612433739,-0.0021877381100796,0.0222942083716283
-0.00840072767706346,0.0555509650992808,-0.0143928315142204,0.024003580033354
-0.0253568050945653,0.0733522815383818,-0.0138464586900783,0.0150617502809892
-0.0287775000697156,0.0691168141106143,0.00322682586564692,0.000957519628615469
-0.0216950735852443,0.0343032217564536,0.022408316303938,-0.00905197178565874
-0.0160285237456076,-0.0129780828353302,0.0253437801046522,-0.0100894673499278
-0.0128320452393102,-0.0448464794797369,0.0147045000288756,-0.00475680400533141
-0.00651397527082306,-0.047386859037643,0.00580803526711235,0.000724259854600687
0.0018328306491194,-0.0391651521060602,0.00128828106935528,0.00213942389768299
0.00874760284561255,-0.038708113356076,0.000486449574593276,-0.0001231378475055
0.0147543972054505,-0.0344670352256992,0.00299931906245791,-0.00351897974095742
0.0188914158944506,-0.016891214198922,0.00575843726967874,-0.00585737793783527
0.0191619769180307,0.00487546228126602,0.00895616174205625,-0.005782827592113
0.0179518621224134,0.0220049720087656,0.0115825351527854,-0.00390874411781519
0.013713676918282,0.0291336994370349,0.0125739071386872,-0.00239320413289631
0.00488640664661384,0.0254123232248124,0.0123164033970647,-0.00232531158569288
-0.00184535392603232,0.0173722739533857,0.0113386204737153,-0.00268504111690717
-0.00570984891532567,0.0122258661601332,0.0106014607878846,-0.00191782871107921
-0.0108175690824519,0.0134162503822949,0.00898319250005374,0.000290416690833235
-0.0201213806685799,0.0230771348010148,0.0100461981292248,0.00285633257085769
-0.0304522225346705,0.0375162887319153,0.0172531499479439,0.00497177761300668
-0.03075016899507,0.0465829506413687,0.0242790934531341,0.00686167838821375
-0.0199215292097335,0.0454148603067996,0.0232383941892892,0.00813653597436622
-0.00720796283280815,0.0365461777180158,0.0132587671006799,0.0072633523395173
0.000843484849449443,0.024942854158257,0.00342125359172027,0.00331743646604127
0.00178157263314549,0.0150072686181687,0.00137797772839732,-0.00196689934845592
-0.0020069329445017,0.0108805955090878,0.00499832822446384,-0.00557092046294259
-0.00607322884919084,0.0138096491003015,0.0109148575651077,-0.00656962714272359
-0.00943365823094323,0.0186674355632328,0.0172072210954875,-0.00570801072435964
-0.0114578593313778,0.0210664856893759,0.0201885096474722,-0.00350966900568607
-0.00953149840943444,0.0225257712499003,0.0170688312911205,-0.000154526995393652
-0.00424565186855878,0.0224735164672182,0.00787105254051734,0.00378462596835427
-0.000723532141667491,0.0190773271680501,-0.00258913845471357,0.00656603492410587
-0.00136712749853121,0.0136854063249717,-0.00677575265277913,0.00575688584075185
-0.00377237839830395,0.00897726493474767,-0.0022862512092419,0.000868448079104214
-0.00535456737558794,0.00784291779327806,0.00545273834298965,-0.00497389852411202
-0.00734858306239539,0.00898002691537162,0.0100391850322073,-0.00796129979579989
-0.0103262670343668,0.0100434558728986,0.011282222023143,-0.00742779958771943
-0.00977338074116178,0.0143967843320592,0.00953589360626021,-0.00525654989166362
-0.00611988963752809,0.023847956491471,0.00472343944519707,-0.00300718016230669
-0.00313530731734407,0.0300791409145219,0.000716791596549595,-0.00123393559055482
-0.000704970848478245,0.0248804996035218,-0.00222923832592508,-0.000312885468978945
0.00177484799673649,0.0131240068717873,-0.00606602132110256,-2.24513340469498e-05
0.00548456559379567,0.00418401271864435,-0.00798914997837209,0.000469386236650287
0.00993533540020796,-0.000662006397532285,-0.00874395708865959,0.000866876552031553
0.0120715689287534,-0.00490454573754231,-0.0103794180697762,-8.7000758092048e-05
0.0138726674665015,-0.00733465908246481,-0.0105565299925425,-0.00244939204429979
0.0180293912425275,-0.000943697777354038,-0.00937860524603558,-0.0047017314779587
0.0202790269610494,0.0127475293131613,-0.00787403241017963,-0.00526054951682896
0.0197657952096824,0.0201266453203037,-0.00736472835112619,-0.00373689544700367
0.0196063508480508,0.01383130339825,-0.0094410533522839,-0.00109525108591605
0.0161186817802844,0.00150615443866352,-0.00911352739197362,0.00128328941668065
0.00655341002025044,-0.00755011437619588,-0.00336395593037347,0.00304929013558074
-0.000480139176218093,-0.0138825061129329,0.000144094926811084,0.00451265571842193
0.00146186554153738,-0.020707658611124,-0.0036265528156262,0.00506652832609509
0.00675206600587858,-0.0262126018219531,-0.0115403901453266,0.00419168990782503
0.00900245899220245,-0.0297599285088926,-0.0197358183858641,0.00267435163020957
0.00887487780128605,-0.0391622818277067,-0.0265944392686514,0.00100903291781747
0.010911973475315,-0.0533502035459128,-0.0291219686980093,-0.00076911087960164
0.013538361181586,-0.055350702660975,-0.0206388985849598,-0.00236412575336618
0.0103358141235272,-0.0408651292932309,-0.0053818334815103,-0.00371871242937274
0.00138904439081853,-0.0174442928785783,0.00396366430434079,-0.00418366821797927
-0.00751720231630399,0.0025503115909582,0.00886800923968925,-0.00311073711009714
-0.0121778549688665,0.00850527625056108,0.0167675717128763,-0.00129744028403735
-0.0131241909121077,0.00804044671002167,0.0223259755273298,0.000161750907971043
-0.00973003147194545,0.00436917777380934,0.0178433833831458,0.00116079120662073
-0.0039834839231056,-0.0043271126325452,0.00685197937967739,0.00242801533304011
-0.00206029252850168,-0.00777330396111897,-0.00255339514052255,0.00435560475466246
