0.0385965226873644,0.0624993374951028,-0.0196779493442381,-0.0296980933291666
0.0428153207596029,0.10772631397186,-0.0241012314276089,-0.0286879554360926
0.0341568348535941,0.139784644741917,-0.0246102219922513,-0.0220081451309458
0.0164391701107367,0.158134996452938,-0.0198303493128839,-0.0141398802709319
0.0131140750135154,0.158635605323725,-0.0137626240087435,-0.00677623571374208
0.0436880034638448,0.0956098659232261,-0.00904284012398772,-0.000186946695383477
0.0786628764137229,-0.0465103373656415,-0.00903056306903328,0.00377124647344333
0.0776927788023938,-0.178855753343608,-0.0110638955002444,0.00264638240676623
0.0419130325313089,-0.209343409583801,-0.00911111190661025,-0.0030073081387568
-0.00320951802144909,-0.158443732482239,-0.00793502510659275,-0.00903737919212171
-0.0449528700201462,-0.104014846649028,-0.0120822920527896,-0.0121875574800078
-0.0664357441439757,-0.0816340489173786,-0.0180057551179818,-0.0128528269022113
-0.0455991473258393,-0.0727512862241882,-0.0203556204055108,-0.0124930603256491
-0.0147975201390916,-0.0594359157126142,-0.0206121513331165,-0.0102452565744416
-0.0201519374109401,-0.0511667000249757,-0.0223962349133634,-0.00462434840514653
-0.03891413388917,-0.0495118459402207,-0.0234448248149438,0.00263329648713768
-0.0270532628563907,-0.0333680536991428,-0.0174371988446301,0.00684787255002455
0.0198519914928431,-0.00646920780821418,-0.000405748457786986,0.00579727162404845
0.0835139365955992,0.00217364099156514,0.0195692848720158,0.00197533761742893
0.133450003249858,-0.00967519064225252,0.0297989171830256,-0.00240720718358802
0.136594283798329,-0.0204978170975923,0.0255873645839761,-0.00691444860945643
0.0914312294131939,-0.0134712861132169,0.0165729581783136,-0.00868021024756133
0.0332581680893374,0.0011462991956563,0.0135103647685091,-0.00328852543079515
0.00155865292005524,-0.00717286716642077,0.0142709034783209,0.00733465347930729
0.00885192664291837,-0.0462949264761214,0.012253239754166,0.0142676453351541
0.0242884593014746,-0.0860195637880416,0.00392709305884961,0.0144123462812959
0.00369363334351154,-0.0993051014772585,-0.0054579682000473,0.0142535944445123
-0.0433252553265161,-0.101085044712445,-0.00951043017943047,0.0156815310989507
-0.0782884793547598,-0.106691169269245,-0.00704990236043903,0.0119122469132108
-0.0825591647015222,-0.0906345002780707,0.000393538962631331,-0.00129515026950511
-0.0485548181090611,-0.0432993830626989,0.0040366672204599,-0.0189275275560688
0.00426768391648971,-0.003850550535333,-0.000640985652923132,-0.0286420930296969
0.0320849648568009,0.0102050648713261,-0.00726623527057155,-0.0233930208182317
0.0268696008817882,0.0266443159269013,-0.0115091118909519,-0.0133530890105026
0.0246331026288661,0.0643886902649567,-0.0108725718313605,-0.0135238161334599
0.052266255210157,0.107565614846281,-0.00641653795629357,-0.0201259564014957
0.113033701021516,0.126187218894177,-0.00246356459436294,-0.0164109357965127
0.163381668274283,0.119868538828897,0.00299604924386419,2.77192575137315e-05
0.151973688486114,0.11664745580109,0.0112498695852773,0.0169044895071091
0.104111641471038,0.11281225637717,0.0147142559325388,0.0283744251711747
0.0645296720848104,0.0870633018909947,0.00780492685853432,0.0382301031834577
0.0275972939385234,0.0558787184854623,-9.19705755273899e-05,0.0466528106063605
-0.0379397553927288,0.0247761311242608,-0.000130698360037073,0.047363815010337
-0.148154939874585,-0.0262098515946765,0.00427389948387332,0.0368303640484311
-0.245387119659498,-0.0802075451361306,0.0090170310468107,0.0172481322981105
-0.246436983528801,-0.086265448985434,0.0109715945442725,-0.00690789171030396
-0.165442853902299,-0.0355647152603372,0.00989105415009909,-0.0285814316590455
-0.0665541005451132,0.00171501445452935,0.00930612865693391,-0.0377557000430716
0.00773940171310469,-0.0160794945744538,0.00938909787541565,-0.0293656768197274
0.0388023497080481,-0.0300650898462301,0.00522056183280069,-0.0111172154640908
0.0497992637091524,0.0177290554237401,-0.00542979776905693,0.00356350795662548
0.0704030186365057,0.0921058447184658,-0.0138829653126585,0.00883569823330656
0.095046355812876,0.126507891972685,-0.012582086393815,0.00715067798795923
0.106291454469742,0.119215069658574,-0.00746656534391008,0.00156492265547454
0.0860666361307694,0.108583993756902,-0.00511029558639439,-0.00652675262823435
0.0330667043819668,0.105268730336146,-0.00650366368038937,-0.0143345607141351
-0.0157935289688185,0.0804328003689483,-0.00864645316234773,-0.0154175469556931
-0.0503792543510321,0.0261126310756539,-0.00626355581864771,-0.00536195345558685
-0.0993397545828034,-0.0145758365245701,-0.00100951090133205,0.00969650092654677
-0.144670199593243,-0.013263374970053,0.00166842668176583,0.0194110419835177
-0.142856375273602,0.0131690537702843,-0.00244739963408595,0.0224561974990536
-0.113319225589944,0.0425438827740348,-0.0109052253879128,0.0233487170888333
-0.0843559675064348,0.0660725331787196,-0.0165398728323495,0.0215246642641124
-0.0344588682899803,0.0662017417372264,-0.0164561015790169,0.0126977119627386
0.0316912354050527,0.0310826701238266,-0.00962443114421217,-0.00571722297100821
0.0809305347658609,-0.0138272525142645,-0.00179480166189598,-0.0314722915631854
0.103434913492543,-0.0363435713064949,0.00355309522380249,-0.0523402785795313
0.0949876558414482,-0.0286950852665384,0.0123021918543774,-0.0526481912418508
0.0515001359067461,0.00521132563426565,0.0199817272049333,-0.0305319793094061
-0.00473112956989383,0.0455545669829312,0.0198259041767046,0.000804806658477743
-0.0276943771015428,0.0675989605958667,0.0146306180943636,0.0273803717805494
-0.0114640092130167,0.0664239563743001,0.00668413719862403,0.0423695901199728
-0.00573506161542357,0.0392445347241792,-0.00152009980840098,0.0439828100195408
-0.0266411112010162,-0.0228868308891326,-0.00612824605749817,0.0339274781192217
-0.0459185237406493,-0.100701564481691,-0.00661583138543748,0.0203858677976726
-0.0589133672654583,-0.130556375369161,-0.00347091178515153,0.012583230021879
-0.0777004900472764,-0.0978578663004621,-0.000691725404606717,0.00922774345484545
-0.10979337824542,-0.0537761060224094,-0.00623140873699783,0.00287831045631029
-0.145723948275406,-0.0172589436879406,-0.0162857598781865,-0.00797421338466325
-0.148415045465308,0.00461599428374992,-0.0191258076131466,-0.0184529854294295
-0.100199929818402,0.00602137520988607,-0.0119641654489739,-0.0236217364927413
-0.0296418113749229,-0.000831012025864324,-0.00398208048389842,-0.023747464579027
0.0313496586024807,-0.0174963083592858,-0.00451800174169686,-0.0228531927307094
0.0763256923308449,-0.0448169472099546,-0.00888313747430926,-0.0210269697843527
0.100895837876467,-0.0623955695727067,-0.00967118960564021,-0.0147482216241173
0.105552844493517,-0.0548186373392902,-0.00989850821586448,-0.00467158471142432
0.0994828157437273,-0.0314212204445639,-0.00858702141590735,0.00477786244048748
0.0674259129189562,-0.00511398211905527,0.00247944431590968,0.0113784225769148
0.00113856147394606,-0.00457667828962309,0.0179264186747704,0.0152971808835995
-0.0546936348838161,-0.0581330705203547,0.0243289751545437,0.0149872059486284
-0.052360025756395,-0.11909558699477,0.0220717691483679,0.00695838784427668
-0.0159070986732999,-0.0971162291219023,0.0220016151588552,-0.00688480030599158
-0.00102539826759216,0.010991919694042,0.0286707021628804,-0.0156455620415502
-0.0138710217620041,0.11240897332388,0.0333496003643179,-0.010842773937468
-0.0295567087140263,0.142496126623236,0.0279113473297451,0.00354156278215475
-0.0264379369765721,0.115509654903174,0.0177529500225533,0.0170705902080807
-0.00221846924100768,0.0840897105667919,0.010726020096296,0.023378041936148
0.0108260263063032,0.0676040568419904,0.00856747495026884,0.0232646528012894
-0.00173130130473547,0.0338484036339427,0.0109754570214554,0.0194211142142841
-0.00566131122436741,-0.0481377970609371,0.0128460148982902,0.0118374744422616
0.0150622319138252,-0.156609196509485,0.0069348313631983,0.000404057317987223
0.0373469919167816,-0.213888446311387,-0.00623132346510565,-0.0115714743646266
0.0488769941780895,-0.177994877033629,-0.0210407072457701,-0.0170064269312654
0.0583427833427634,-0.0954800969374162,-0.032090874785259,-0.0118539318037044
0.0732783733172458,-0.0323110134585806,-0.0341775146041779,-0.00155414666367213
0.0845665665635829,-0.0109660329230067,-0.0279730109178566,0.0065458728801995
0.0783013382108345,-0.0158111750544048,-0.0199281272265347,0.00989510250856567
0.0545928178944182,-0.0392220474082409,-0.00972610330918219,0.00802236321942623
0.0236401215629211,-0.0924858816463581,0.0052466079852219,0.0014164386693586
-0.00426148861017714,-0.15716461950151,0.0170543806219355,-0.00832073800749695
-0.0255662936029186,-0.165889713503956,0.0170103548543518,-0.0173160221621144
-0.0315260484696976,-0.0820419461318624,0.00909106093587802,-0.0205273067171283
-0.0186087480253456,0.0274203388694518,0.00438328809977328,-0.0186496613311681
-0.0160946843287942,0.0911678326844575,0.00693447985601924,-0.0167018317745157
-0.0382759350514279,0.108968819828059,0.00975848728962331,-0.0143505899619325
-0.0474377987447981,0.0885506147121644,0.00709580216647544,-0.00735490740762409
-0.0189686063625167,0.0449376356504175,0.00158118825301102,0.00353489015741605
0.0219732692335682,0.00919812914283383,-0.000583310587468818,0.0134300506961539
0.0356095433722804,-0.00677071155946529,0.0048139118696879,0.018535478455913
0.0134373981480562,-0.000965809530273649,0.0124676511031969,0.0172824012169451
-0.0141955266033806,0.00957309984729986,0.0140981434579838,0.0113846764316726
-0.0315073067395207,-0.0127541881149824,0.0126853629368367,0.00480350141236259
-0.0408217641414608,-0.0582540881856582,0.0155668471255793,-7.18981938965975e-06
-0.0352076628055548,-0.0803706635321038,0.0224095584378447,-0.00276483137802912
-0.00404998182280883,-0.0609700862546394,0.0303770649305649,-0.00368335563119148
0.0458947285826137,-0.0101901620638826,0.0380510552789143,-0.00306596262904545
0.0815230972420296,0.0441513044951369,0.0424863157479535,-0.00126320214927026
0.104049958943794,0.0746645975530397,0.0404214678484036,0.00112208039001293
0.130535140125717,0.0677332649317777,0.0317399674685439,0.00311374397652892
0.137211086998829,0.0347640965438203,0.0209788994314749,0.00387444582326327
0.115547260516541,0.01892201220358,0.0108650424221079,0.00303923180375251
0.089191352588843,0.0431627039018921,0.00249347904105737,0.00154095649317796
0.0725378037153457,0.0747895693635515,0.000257334495281862,0.00067294333464582
0.0498267175285527,0.0747318916634726,0.00189880478563232,-0.000180001573603125
-0.0136071968651942,0.0591075165136477,-0.00141763719923074,-0.00236507068527952
-0.113873100635192,0.0649032710543751,-0.00918277495888315,-0.00541167083191808
-0.205329878048116,0.0894268332000764,-0.0143024193475287,-0.00772826061457914
-0.246133823309862,0.0980006944847164,-0.0156753256378644,-0.00868335521604847
-0.216680560767422,0.0701727722122191,-0.0149407424769816,-0.00862449375790739
-0.154360933717216,0.0217632341599946,-0.0114163710729297,-0.00781321284523649
-0.0991391985560939,-0.0302943846717574,-0.0056413538001807,-0.0068953444715663
-0.0350725494223472,-0.0688151192696563,-0.00166910361136031,-0.00674135577571947
0.0405205771805835,-0.0651459760348252,-0.00158293928151258,-0.0066880205986109
0.0958272665898579,-0.0278290240348385,0.000268494804617492,-0.00530026337854016
0.103697681354028,0.00197810858853671,0.00686478345672575,-0.00218795756970879
0.0762730747919894,0.0146531518749197,0.0123360072710805,0.00414265313280672
0.053935146349019,0.0308392987606269,0.0150052191148898,0.0167297306386351
0.0501329693591398,0.0579015949279798,0.0175887071471518,0.0330127247398591
0.0496522558848854,0.0874234192424628,0.0200495772455858,0.0446041685972489
0.0343233200651973,0.118141140448848,0.0216968119485679,0.0469128770010456
-0.00557450390763127,0.147962761637469,0.0179618608076152,0.0404325897759382
-0.0435423502160022,0.142673468896852,0.0099325613711967,0.0259295786315791
-0.043168028225146,0.0638125256291314,0.00708603173999052,0.00296589557746169
-0.0250734024867193,-0.0492340777226215,0.004758692723704,-0.0278651931241769
-0.0305689936475184,-0.106033755615792,-0.00431025718368592,-0.0590818864008033
-0.0626742438723159,-0.0825700116867224,-0.0119039131242586,-0.0780842446309055
-0.0956817870260883,-0.0280138898626416,-0.0160279932990696,-0.0761842197941167
-0.0986971993999393,0.0236901820736995,-0.0244758657822878,-0.0530741435954546
-0.0755070592197242,0.0749719588049388,-0.0354946560483513,-0.0185620377008571
-0.062461069616932,0.117012596849383,-0.0407972388414911,0.0120347756430216
-0.0759631951259741,0.127575737178079,-0.0397770569715071,0.0286751302956051
-0.0863396107786068,0.10936853867762,-0.0369195799764477,0.0320512346170422
-0.060891875182247,0.0909455609541162,-0.0342599415797105,0.0299332259689593
-0.0111208768372624,0.0891390836105516,-0.0359326525900536,0.0291259954334671
0.0260586798408277,0.0994870953821115,-0.0409307948870964,0.0306635829268481
0.0240033447110028,0.110305083726533,-0.0376756849738847,0.0304485342732363
-7.91999451576243e-05,0.106379426922896,-0.0204859163944939,0.023654959073904
-0.0163948316089117,0.0120955889237596,0.00484046455111155,0.0105547524450491
-0.0230235760279473,-0.241799558058806,0.0222938042376573,-0.00241305076392797
-0.0263284934026239,-0.494156287374625,0.0232661418722859,-0.00975109660552585
-0.0304520219823917,-0.491269993233872,0.0171631288574758,-0.012338532115402
-0.0286763697553889,-0.246452125878965,0.004501958730992,-0.0130309357903192
-0.00784442931621274,0.00621934365061838,-0.011803925500349,-0.0128990908704416
0.0235481315033771,0.116015676792596,-0.0130177357847658,-0.0142978986086893
0.0404995145362334,0.107617835713848,0.000924210770436108,-0.0205783511139873
0.0346631997724786,0.062576542368555,0.0129705438250994,-0.031018618295027
0.0173037147814307,0.0242172135248089,0.0143575767753646,-0.0407008499245543
0.00257255301655152,0.0155568300947682,0.0029524609143155,-0.0434545623996912
-0.00188408788239106,0.0412358089770154,-0.0167285668596544,-0.0322052914667636
-0.00591126490441377,0.0599722792841788,-0.0335446909275948,-0.00503547362863302
-0.0128973229165951,0.0463632404411914,-0.0425360535558793,0.0268809313857636
-0.00760824086502673,0.0241226311004126,-0.0459846027850234,0.0479291328505744
0.00318189836807824,0.0193217218006586,-0.0432226383904639,0.0524721437224923
0.00348396897020374,0.0243392292218217,-0.0354917767319265,0.0445420228404073
0.00330942811043849,0.0154645479484967,-0.0295989446600328,0.0296649808990074
0.0119712234883382,-0.020513259042453,-0.0272809475742458,0.00973465745175255
0.0156887750619946,-0.0747966244971005,-0.0232180368426519,-0.0149788475818766
0.00830517437285708,-0.107434690032539,-0.0159045229418143,-0.0380354700614593
0.00782791406953684,-0.0930442306825348,-0.00684526510421943,-0.0499992921425825
0.00959140441559787,-0.0629809677217282,0.00366521600189181,-0.0491693087831032
-0.0152579726276124,-0.0513336343016257,0.0099273171718007,-0.0394971306449009
-0.0503568290321064,-0.0351491079149177,0.0107723875059769,-0.023997267585378
-0.0433732667487106,-0.00487810429584349,0.0170385746431422,-0.00400913629562297
0.010118206338199,-0.0127469120306652,0.031617119660374,0.0172162620666908
0.0700927063579803,-0.0739101231630942,0.0361540972932588,0.0330681584501087
0.109101454836386,-0.123956824015828,0.0178310284722647,0.0404540442095294
0.109011007392672,-0.119003097330532,-0.00913602238724864,0.0418098667247847
0.0765985072307474,-0.0908758918005076,-0.0298953099209817,0.0399598530496796
0.0549423138472014,-0.0686612770034025,-0.0455952232290179,0.037167041165704
0.0696556027458608,-0.0383156855018115,-0.0565000627755227,0.0346962020782635
0.0906894799180912,0.00648676358171989,-0.0578992496802889,0.0313112224805418
0.0779124346162361,0.033990692194325,-0.0490934415256426,0.0224601696144674
0.0292344679373004,0.019609281495023,-0.0335077731758073,0.00446495801971313
-0.0210697784306402,-0.0151633474740295,-0.0157482425779192,-0.0178037456005052
-0.0199089268236897,-0.0465901475421816,-0.00246515941904917,-0.034388176498648
0.0283374841639352,-0.062526475595853,0.00114647462378342,-0.0391743250431167
0.0493628911502153,-0.0398272115442152,0.000962687261696294,-0.0330024818367167
0.00798967191545395,0.0381243472792274,0.00505654681022826,-0.0233923973025524
-0.0503082613576434,0.137321595834393,0.0136674197606908,-0.0192235461810723
-0.070512196364752,0.188483208482815,0.0239150402676121,-0.0210601258294837
-0.057924588879531,0.181943871693674,0.030754531330518,-0.0208648383027992
-0.045221869066705,0.167620913053152,0.0306108719853821,-0.0141540144247542
-0.023798053139237,0.160998105156112,0.0285991812547977,-0.00404168626794997
0.009302765693067,0.135521365215461,0.0314221338944047,0.00679350885294728
0.0179269050804596,0.0729588067438397,0.0332660884962413,0.0184898170182528
-0.00551419025587821,-0.0200155366940943,0.0264687408271849,0.0289428474205308
-0.0353668898395572,-0.119732477577374,0.015021687929705,0.0351560308380081
-0.0462048282913503,-0.201307853798205,0.0082796315484354,0.0379462878162578
-0.0157010352736073,-0.249832579931513,0.00917908607015338,0.0388372249681086
0.0527383086013046,-0.238693752628731,0.0108829593601724,0.0359456706506386
0.113602178164371,-0.153706929519483,0.00700906455708356,0.0265938144199982
0.116511043763303,-0.0492998596644636,0.00175727233051755,0.0113872512111047
0.0514501061689856,0.0276018303287592,0.00421989107577447,-0.0051476838009144
-0.0391906343884198,0.0917898797527465,0.0124542140002374,-0.0180495350899014
-0.0909932145507017,0.158159813689179,0.0184590634706007,-0.0260682403754245
-0.0921119594998544,0.210016935453692,0.0225358723283638,-0.0298275535683288
-0.0778308626211363,0.218593380360419,0.0290906563805734,-0.0289997345298385
-0.0542239828298655,0.175193319475836,0.0361221572093858,-0.0247042948196926
-0.0131309739781743,0.100380680185354,0.0401332741224006,-0.0207451854806819
0.0265896427901619,0.0349206143214209,0.0421698522400962,-0.0197295323239773
0.0546078664438898,0.00976046901248313,0.0438636260678983,-0.0209527704933076
0.0773649561008624,0.0146068542827661,0.0448590372908699,-0.02170165926671
0.0765813044139146,0.0244691052282728,0.0416373878752061,-0.0184814983192401
0.0337931109917027,0.0295158785849182,0.0349371947235533,-0.00955925348181078
0.0020449684836184,-0.00214006147701911,0.0307721775505697,0.00253886838041715
0.0408970284622107,-0.0892404221646768,0.0315558012391196,0.0125747191601664
0.089448580931512,-0.166942418010459,0.0322170658058188,0.0172321903107176
0.0621666047836364,-0.165171397340597,0.0250353240543781,0.0169541091996349
-0.0114565169645889,-0.0868653249865008,0.0107733541263658,0.0136062307503053
-0.0542345357554699,0.0139327835337851,-0.00106194256349582,0.00854019239219285
-0.0432951337518341,0.0954018520210026,-0.00634798132920526,0.00196980806184733
-0.00571946273969417,0.153057071206868,-0.00657031168189558,-0.00639892114396375
0.034843935284448,0.181014062253593,-0.00529682131806132,-0.0143032670418347
0.0613361776809952,0.170630391977728,-0.00721110943858996,-0.0164478715469171
0.0392952742305918,0.141770125628222,-0.00597860806572292,-0.009538613009474
-0.0336744251020358,0.109186285009625,0.00275762483212857,0.0036423765060624
-0.102823606572496,0.0341735239783258,0.00949377273201844,0.0160467266557319
-0.118560536867698,-0.0730838489593935,0.00919580550705375,0.0212943089885534
-0.0786063298588779,-0.125165578509021,0.006105984478872,0.0172092208318177
-0.0239614171212338,-0.132301447253523,0.00509855939180826,0.00569926488281793
0.00395208159746163,-0.157414323883337,0.00609855219111823,-0.00865689334567134
0.00942018285989578,-0.174993326564152,0.00373776314951002,-0.0188561269671562
0.0168841495343772,-0.138644967438674,-0.00271126035824932,-0.0191303427635366
0.0204628370481848,-0.0522303802412042,-0.0100728009914833,-0.0102695087850914
0.00235401762545835,0.0297154914576204,-0.0170064262908652,0.00171918440568268
-0.0200689155566054,0.0485752135397112,-0.0207678182635421,0.0113946064368467
-0.0198877454825036,0.00828245558921068,-0.0213266309155249,0.0161494353370153
0.0107325053302726,-0.0184743870552547,-0.0228095865893823,0.0150695863811316
0.0759805198658791,0.00315056210789844,-0.0235271401118374,0.008896009452901
0.142541507466061,0.0197097402156504,-0.0197219583005908,0.000174817780770579
0.163491690111383,-0.00688676822371959,-0.0149615007763382,-0.00669489721156813
0.150142462720612,-0.0491756052366459,-0.0131085131621569,-0.00708670673982398
0.1257578204686,-0.0492718513664917,-0.0118739335552902,-0.00141198751766129
0.0859940561895096,0.026377233046749,-0.00844239555165157,0.00464275861048197
0.034970039685198,0.145129450342412,-0.00467866678707324,0.00731975146888512
-0.0168315800155719,0.23757849467833,-0.00334794031815658,0.00860406679182937
-0.068197897886602,0.268692816258424,-0.00323387642117072,0.0117268359508801
-0.11409564022272,0.248264575650639,-0.000891946414419303,0.0158171626366294
-0.156688458836925,0.19021436171866,0.000948556368860569,0.0172712722666571
-0.19701978270765,0.118341851347602,-0.00450449607799852,0.0140407889852277
-0.226754660854451,0.0691172216339109,-0.0147430679955009,0.00648237975219873
-0.232568918043291,0.0386529818329172,-0.0211767918763307,-0.00379390872223359
-0.184277681717005,-0.0332882594829221,-0.0193883305756666,-0.0143398335558524
-0.0856657797728954,-0.167385802313152,-0.0135691302731338,-0.0206642515732114
0.00797732039411478,-0.261305605758226,-0.0125879762871798,-0.0183470264056338
0.0655355018131732,-0.233532747733149,-0.0156908961920583,-0.00825212977915368
0.110071512941321,-0.18572333713332,-0.0146855105019622,0.00500346509606467
0.159527076979817,-0.231141917770742,-0.011193459615985,0.0166485152369671
0.202562019268393,-0.302780211993153,-0.0118895464823371,0.0216944363291139
0.218390864945273,-0.284040188118414,-0.0165457565735592,0.0173370680726081
0.17841828513469,-0.173184222651049,-0.0192221706844459,0.00694204883150908
0.0910280844990087,-0.0339297801368894,-0.0148195356522435,-0.00297016511679749
0.0098654581064079,0.084811963546868,-0.00639374143297252,-0.00935245434910999
-0.0361747104247308,0.142354203000284,0.00135257772484877,-0.0125497506363472
-0.0487277030364203,0.130923637036968,0.00675663119833039,-0.0132128453768701
-0.0273415886904124,0.0941741424278388,0.00981698037321293,-0.011497031509379
0.00394286976264055,0.0783881961444136,0.0132091239790689,-0.00764720019616197
0.00318753340899866,0.0802616249547686,0.0183776906260684,-0.00324787362411184
-0.0358081699772407,0.0735164845551069,0.0219066008695013,-0.00106855482356465
-0.0883187710760546,0.061853186023314,0.0247887956507054,-0.00259445601105964
-0.117772791698208,0.0503254220560888,0.0278424407178009,-0.00585177690547144
-0.094139809424255,0.02927121872919,0.02274044857844,-0.00719972533361559
-0.0313473079733269,-0.00676454735451172,0.0113973044986508,-0.00522302901462228
0.0217236075901789,-0.0468098381957736,0.00432311535528616,-0.00146707764287092
0.0322581085298784,-0.0640814519073287,0.00372904961136256,0.00264791615008738
0.0121987360156449,-0.0580106779087883,0.00562401603477081,0.00723430206487517
0.00793930384059343,-0.0559099992596499,0.00621447768145119,0.0111118740401817
0.0412562856288462,-0.0706309247459505,0.00364854873972545,0.0116154986124721
0.0775312832306367,-0.0929653902557107,-0.00149973746827921,0.0082323176086346
0.0822727685816938,-0.109178283896144,-0.00735114587344677,0.00279849629260562
0.072315278227104,-0.117449337831067,-0.013871249269525,-0.00394503381762786
0.0769744237297107,-0.116069759981177,-0.0202334527001398,-0.0112132767959538
0.0780177746100537,-0.0938262734810552,-0.0242026263005498,-0.0149640449274121
0.043713545431931,-0.0587188814971083,-0.0256358843084212,-0.0122134881447418
-0.0144021587536238,-0.033981421016704,-0.0260102472207786,-0.00526077836555139
-0.0554706574898252,-0.0179581017807723,-0.0255316636866408,0.00165635227761976
-0.0487093664434137,0.0100196449343678,-0.0241752571350575,0.00657336499225751
0.00324534426086756,0.0397696234069287,-0.0191308679381562,0.00942005715534823
0.0467932021027404,0.0410099922422565,-0.00699907487969782,0.00882624136939152
0.0371519888352338,0.0300559583322347,0.00690738561935395,0.00282320866164963
0.00487797467174875,0.0398603886955006,0.017785841992694,-0.00532749430624735
-0.00493165991604157,0.0687826000409505,0.0302334376301595,-0.00596938347038698
0.00472052764016319,0.0936687038942495,0.04453564825673,0.00579328847679931
0.00847247211785994,0.0946594011955744,0.0523138029102156,0.0201323028450341
0.00776901902232691,0.0921076427039195,0.0494726600125263,0.0212893457613367
0.0117541815793506,0.125501519267702,0.0398695758329211,0.00452912305212289
-9.18894067700182e-06,0.18570811140353,0.0276414673973624,-0.019412537072261
-0.0390544653727067,0.210710355328974,0.0113671190880104,-0.0352557102595424
-0.0966970374177389,0.165055470123726,-0.00821305527899305,-0.0356268531086818
-0.144611949149084,0.0982180624062743,-0.0234041346050989,-0.0234030485473003
-0.136097248410789,0.0805293165205238,-0.0300100540221818,-0.00641346589417998
-0.0692083279853725,0.0916512048656842,-0.0303446201207467,0.00824124828184065
0.0118217914187075,0.0591883150387074,-0.0301276009243045,0.0166061602049903
0.0686030629270172,-0.0169034397776158,-0.0341619379599389,0.018498973219398
0.104294099776089,-0.109379552608052,-0.0360757027982875,0.0166038725066006
0.136177226403989,-0.20951859650425,-0.0309810919580855,0.0127438130040874
0.15237365198077,-0.250105971345759,-0.0236514176314959,0.00698306117117893
0.148257450599424,-0.175301772394041,-0.0193097318723382,0.00255894599600035
0.133361807295354,-0.0445372684513642,-0.0220901729641914,0.00453909577263019
0.0919685827057745,0.0663397850001953,-0.0258615169520709,0.0102745750443253
0.0272199424278585,0.132095754720138,-0.0231577438504018,0.0133703255577367
-0.0218862750318616,0.140525162299695,-0.0142284341329153,0.0150064141201727
-0.0550363045519436,0.106832189201524,-0.00114967429857445,0.018945310246093
-0.0951307364134014,0.0859763400591642,0.0133597273278541,0.0236887947988221
-0.143449560413373,0.110664861011855,0.0289647043429956,0.0229244503503312
-0.176650739203367,0.124497921626336,0.0384105580023091,0.0097277908992132
-0.147960819220856,0.0729323367397259,0.0324368671860469,-0.0142569440170409
-0.0495311072298082,0.00609514173860488,0.0195795738915797,-0.0397870314817541
0.0497297915212708,0.00569550102397713,0.0151580135338632,-0.0611593827842641
0.0977327375302795,0.0581779435413616,0.0188146733786338,-0.0741691857197374
0.11164107428928,0.0685528436115656,0.0225039909073005,-0.0730178036730481
0.109288274395494,0.0100832161742815,0.0233130641261387,-0.0566214397844362
0.092745943646895,-0.0542089766893934,0.0185825353997528,-0.0293347709386921
0.0730809262484917,-0.0809349700175081,0.00871700387914172,0.00121453376581138
0.058298096032556,-0.0918930337565737,-0.0016635739533955,0.0280190497157093
0.0441760400459222,-0.103026017290837,-0.00845845335140094,0.0489191183911062
0.021616001827141,-0.0923609118126869,-0.0107577766497483,0.0622006114505562
-0.0331907702979647,-0.0615881730491344,-0.011259382858347,0.0633045582950764
-0.126682352154693,-0.0370121030498137,-0.0131355866153174,0.050231308126895
-0.179862595467302,-0.0307418832884454,-0.0144502746533307,0.0280499944706788
-0.132092181628045,-0.0343857136508805,-0.0110735949978621,0.00657744065347642
-0.0498951078924504,-0.0376116013204972,-0.00585532199870634,-0.00712871812658877
-0.00945569091616896,-0.0418820915822148,-0.00169084080792735,-0.012898749550367
-0.00320384754155559,-0.0368194050278434,0.0010776210853335,-0.013841744359568
0.00128142028479297,-0.0073297826268309,0.00226960201271886,-0.0131897098920624
0.00672552146491938,0.0233865665743525,0.00328118053029359,-0.0134467804115525
0.00570041597325085,0.0267048024577364,0.00297813956684298,-0.0145645735039303
-0.00448340580837035,0.0100499362808758,0.000653272293585637,-0.0132720235825666
-0.0213261229422176,-0.0135765722302289,-0.00109118153008646,-0.00746764853489506
-0.0226735964524503,-0.0475701894888765,-0.000856661611396116,-0.000307559979217779
-0.00366699495361915,-0.0799364909028589,0.00107924886131101,0.00379955634330475
0.00038010428148649,-0.0800552757147046,0.00282352328918045,0.00326137294642879
-0.0232027897981902,-0.046277370202555,0.00420866061970554,-0.00219388652362932
-0.0499214144788992,-0.00475749397031434,0.00687605689927396,-0.0115077216420826
-0.0701275238047537,0.0193863523829523,0.00820309762174485,-0.020876052769727
-0.0801611040777966,0.0185189118928999,0.00735811550058083,-0.0265547922741088
-0.0564536461098142,0.0072482646180248,0.00689434773541082,-0.0268593863368225
-0.00736778138804219,-0.000481033607295962,0.00519841638407081,-0.02026592735269
0.0269144811128945,0.00127825805233291,-0.00118144920915453,-0.00625094919791085
0.0380994074354241,0.0135146753766627,-0.00562561275685804,0.0112726936905228
0.0309055580078597,0.024365729643793,-0.000782584611245357,0.0244603346933282
0.00919207187265264,0.0263122284228256,0.00750835948008015,0.0284852364534667
-0.00770813141363387,0.0162307988431931,0.0137350873141495,0.0250977774713344
-0.0092259111301646,-0.0062967419194441,0.0147170112181435,0.0180565685003779
-0.0044235511264656,-0.0208320362961309,0.0080163058159837,0.0109201764660655
0.00295070025458127,-0.0181134100778457,-0.000762381518774849,0.00838856157820292
0.0135173100640459,-0.0138743432464579,-0.00338553834748137,0.013306636545805
0.0127607313272989,-0.0285399985990335,0.000753833205721786,0.0204374853106906
-0.00585821066641959,-0.0538151081407637,0.00225626128745436,0.0205136160322921
-0.0195831845474613,-0.0459754412302735,-0.00541518900222595,0.0122879119731178
-0.0141408436927406,-0.0144381232331949,-0.0158577716405035,0.00310977759218633
-0.0038623906112158,-0.0149757247463153,-0.0193865882076775,-0.00103537331392294
0.00390863593058793,-0.0433316513969217,-0.0151619392026899,-0.00122055935390208
0.00426506940542006,-0.055730294067409,-0.0115455322963641,-0.00228676347166028
-0.00610309882910925,-0.0399038645911253,-0.0115810155456459,-0.00487873108755874
-0.00998474920349607,-0.0115275105856116,-0.00789001420557985,-0.00477539815293124
-0.00250596300304988,0.0142337995468464,0.00246971058955592,-0.00159536138958333
-0.00139697267041117,0.0348790725732956,0.0163239503400971,-0.000358234684367242
-0.0182425329897689,0.0506464798265847,0.0258627475112525,-0.00397823902948363
-0.0419628579548711,0.0616287077049562,0.0218085127047635,-0.011511043974733
-0.0454925405695411,0.0672347467899389,0.00858191130806181,-0.0209193546647851
-0.0193415742451285,0.0578409801849691,0.000690553335401575,-0.0274962670585282
0.00978985257290151,0.0366856985415589,0.00222717266637607,-0.0276412943061401
0.0156419430072844,0.0200464137992618,0.00684541262707524,-0.0243866390045671
0.00542603882248591,0.0120985647357798,0.0101976935319061,-0.0205441302852224
0.0013830879338506,0.00453522719660027,0.0107452433372017,-0.0131504489422579
0.0155878466890788,-0.0131468641630788,0.0091858870906372,0.000832113663211842
0.0307010907911108,-0.0361360162272381,0.006245242328147,0.0192131222628915
0.0262222403140975,-0.0524411699508716,0.00407614314672553,0.0365204531756334
0.0192694544308455,-0.054088569477921,0.00477288192881884,0.0471112683463766
0.0201360782687121,-0.0317969785261753,0.00702285713526255,0.0468252224574773
0.00540615210603552,0.00631977348620505,0.00828445756392499,0.0353170915497296
-0.0256492241363581,0.03511267995525,0.00590224993474431,0.016258216570126
-0.049154389256875,0.0497100051214825,0.0020157934538878,-0.00472002010536963
-0.0617809552358885,0.0647546484192307,0.000225112398071944,-0.0216032355394388
-0.0698991211434481,0.0791653596580968,-0.000826948910474812,-0.0300594429364704
-0.0722192905914064,0.0798344040208262,-0.00226322716015293,-0.0299824695302061
-0.0725630332998787,0.0677919206278045,-0.0020626118089333,-0.025249414767788
-0.0759572277121662,0.0564654811430574,-0.000591714017058162,-0.0196761405865945
-0.0728353352143607,0.0481350907106687,0.00141996044636784,-0.0134771808998931
-0.0549287043202758,0.0359758973482784,0.00470693471249624,-0.00573750115270269
-0.0335376997349653,0.0284301766782807,0.00603105904669732,0.00143890312271948
-0.0241858540720939,0.032292039081741,0.00526247991466269,0.00457709429186372
-0.0278787568763934,0.0223355492972388,0.00821391373788532,0.00211757033854415
-0.0385448645275762,-0.0278543365617859,0.0147106597685076,-0.00430201506340581
-0.0501284953732531,-0.0884631597508119,0.0195835974064656,-0.010672201322345
-0.0464981983586861,-0.096982809452436,0.0190726678949144,-0.0137564977177768
-0.0133509951588454,-0.0505001143793194,0.0140381979711726,-0.0124797261880934
0.029148543219998,-0.00397952840372717,0.00789905048395434,-0.00676644069618512
0.0374342806855252,0.0205563582954382,-0.000467255733152955,0.00273417095508166
0.00791087712274002,0.028197253790923,-0.00879598059743885,0.0132545127585534
-0.00602561897003583,0.00574735465212108,-0.00971351539905844,0.0198481750122749
0.0337061332340449,-0.0354781638646316,-0.00651003996661122,0.0185624808192701
0.0987124046153777,-0.0644144939325598,-0.00830931001573554,0.0109312304135762
0.132901330143007,-0.0745415050292866,-0.0119304467630834,0.00321857915093053
0.119526810244459,-0.0585750854256661,-0.0105976603361945,-0.000191221454493067
0.0907349035644055,-0.0196343673470036,-0.00297980044140444,0.000196289813294398
0.0707589375443183,0.0105206483637973,0.0105844139798519,0.00128926750159628
0.0505814471018668,0.0173233575536226,0.0231905577693515,0.000714863336092646
0.0222466609956691,0.00843725138646824,0.0292006069832495,-0.00100554947812711
-0.0166711743469314,-0.0128426514351508,0.0265717584716645,-0.00159204135389221
-0.0827955792239987,-0.0321413251488568,0.00943682888433153,-7.11959123697098e-05
-0.154184634023959,-0.0253360251390788,-0.0160677155924827,0.00256957939933561
-0.173714620759186,0.00185434912861956,-0.0311885723432683,0.00558182854754482
-0.169756951153031,0.0230241097160203,-0.0303638211376347,0.00890021804868429
-0.193336594712657,0.0353588818367526,-0.0253063308578884,0.0118923854159839
-0.184276376717343,0.0474916669765357,-0.0247527749473094,0.0131265779352027
-0.0909689763811509,0.0636140780621817,-0.0255627597579189,0.0111094375360107
0.0307518896891565,0.100771771839629,-0.0248713696220233,0.00606999245599555
0.125814030072777,0.167652928949191,-0.0210815513164696,0.000381220655645956
0.190888697906313,0.236851506136077,-0.0076410440979244,-0.00309469169039029
0.218224079753091,0.262148410690829,0.0123882902381626,-0.00318363467013238
0.200081944407095,0.241593258910259,0.0250304070823868,-0.00112508698377726
0.170372193696751,0.206681289611444,0.0254119135361444,0.00150859101679956
0.163568634793553,0.121187668324039,0.0188823682509325,0.00411674226647709
0.1630610231577,-0.0461658799752241,0.0125584381920532,0.00605491517421869
0.135447906041626,-0.193895369538082,0.00552520823592641,0.00692315867461919
0.0851203582219641,-0.25054590850594,-0.00738426906425055,0.00773790447511756
0.0326914618676369,-0.291819895424175,-0.0156402144274261,0.0101547183322862
-0.0474208261899739,-0.339723606108712,-0.010808182506715,0.0142669529260739
-0.183258973133307,-0.294072266824549,-0.00524613752640235,0.0177298635439156
-0.313434737863054,-0.120609205654339,-0.00373002156934268,0.0177581884325727
-0.337384605040443,0.0749929557431888,0.00169430330132155,0.0141000288667091
-0.261330830716918,0.171599132217086,0.00966808703307893,0.00915601412177066
-0.169154202973138,0.167778980089794,0.0158689563557617,0.00366768202220487
-0.0933397164542037,0.172515297823806,0.0228316886798795,-0.00524296164667708
-0.0378913666373667,0.250916223919679,0.03052783904678,-0.0187996122046448
0.000141843803987407,0.330626838167254,0.0320729958680769,-0.0317987005448956
0.0465626553516573,0.306194380001949,0.0243987313847526,-0.0364570714027724
0.109554142304953,0.182757586720065,0.0137451365376575,-0.0296133459049053
0.155384578309422,0.0373170515955329,0.0062242763342823,-0.0144198134496331
0.147653938006439,-0.0804396209095492,-0.000447586320785461,0.00288601878020701
0.107391546034316,-0.140628331254885,-0.00642254770586691,0.0163318209300802
0.0889347588770205,-0.152533608183003,-0.00873028944622384,0.0221136417185729
0.0976934033430382,-0.155247738891853,-0.00860360223745847,0.0202121043110375
0.0919294877432909,-0.137178715232351,-0.00526199935492058,0.0130032478740759
0.0647561493972268,-0.0862856011358665,0.00149500571367893,0.00203376600908226
0.0450274363547661,-0.0455652546507936,0.00881377657879563,-0.011084254902107
0.0389572957616463,-0.0463947698607303,0.0161249771027202,-0.0225007921120582
0.0335978233839558,-0.0713115209376861,0.0239075651267929,-0.0273821498944688
0.0205055549771098,-0.0911494609976607,0.0270367393301691,-0.0238952346549544
-0.00510573141571807,-0.090690829193536,0.0235697141976296,-0.0150869461479413
-0.0361965206555437,-0.0556068797049652,0.0229484462617088,-0.00567184231174842
-0.0703822544032646,-0.00363619960726382,0.0279108554043468,0.00163036057506651
-0.113892453651479,0.0140498473312378,0.0321301033063052,0.0060233212172406
-0.131839186423145,-0.0104910607343333,0.0327865187440848,0.00724411105419272
-0.0884920231396393,-0.0465371829349115,0.031409244375675,0.0054223513616562
-0.0176277754391468,-0.0897524236522248,0.0277269042937553,0.000530298110398581
0.0236658529151395,-0.132631856504773,0.0210241465514475,-0.00817040038322253
0.030505135829172,-0.129865408646158,0.014579162188138,-0.0193191930587792
0.0374573535409574,-0.0790382233424649,0.00693880283691964,-0.0281627840980529
0.0566890092428586,-0.0359568512791989,0.00121009368977871,-0.0307890807527581
0.0734743972247281,-0.0222322091462424,0.00404480183029079,-0.0265663531618532
0.0790802396082165,-0.0102058961878064,0.00695266525787077,-0.017447319822524
0.0746308620726288,0.0178496631708997,0.000840669729968404,-0.00551631387518297
0.0672011727050588,0.0464621943230768,-0.00576602214945249,0.00850719586663687
0.0549255882872466,0.0614706847414625,-0.00303047250774342,0.0219270482530898
0.0241633434495908,0.0644248246813804,0.00242957357271537,0.0294195342455837
-0.00397531426187192,0.0458818344996955,0.000691800111559792,0.027531604500265
-0.000828484432269835,0.0158244301097108,-0.00871433425945054,0.0178053231574726
0.00735717757211276,0.00786977703460776,-0.0209044656401767,0.00579789441327544
-0.00783074026616864,0.00750665177963962,-0.029954580571359,-0.00332277127822998
-0.0306458767965212,-0.0139003616584878,-0.0331673355314626,-0.00856506764411712
-0.0435523400152507,-0.0264775788484339,-0.0323300208428004,-0.0123600204970478
-0.0449595819610558,0.000459625092463459,-0.0283207745630063,-0.0172760137617229
-0.0361459206934882,0.0362910961582609,-0.0210965538258674,-0.0232093631503239
-0.0273568059558874,0.0257681772367279,-0.0118559963084865,-0.0260755666023891
-0.0318417541401371,-0.0572499714900105,-0.00407608672242205,-0.0215693782580684
-0.0509273068113491,-0.142725749451522,-0.00581195063520033,-0.0103312451421315
-0.0768614352049296,-0.134403052929391,-0.0170834359463302,0.00342497626138121
-0.0920853765009407,-0.0622733948010785,-0.0263399538134196,0.0150518679596871
-0.0717343414172728,0.00545840808825765,-0.0284633478818115,0.0214345807537942
-0.0247427093891438,0.0488957412798638,-0.0300478426257986,0.0239950431686989
0.00829188283157788,0.0707737627298122,-0.0386265815582392,0.0272776778327737
-0.000889066764583592,0.10413359799797,-0.0533026961443594,0.0324464471941331
-0.0435545973989842,0.146909737166386,-0.0661126065402453,0.0351619690974992
-0.0547079273575263,0.141902698583205,-0.0696338452670386,0.0307160729074116
0.00648371846131155,0.0735032814523964,-0.0678122243676481,0.0200404232464976
0.0599079437630667,0.00851770977174143,-0.0674650675332722,0.00901267736688834
0.0171426277791157,0.0234375402088011,-0.0663974696566809,0.00093464631021975
-0.0813247911816464,0.104189895815207,-0.0598694148747979,-0.00522986543618887
-0.132098981925757,0.155880881403894,-0.0435418514675862,-0.0105279914288021
-0.0642419367784408,0.149568292371617,-0.0191008799896791,-0.0154698080905834
0.0873991050142721,0.12338123393091,0.0022822926393695,-0.0190896687085973
0.193792283415094,0.0650385767690917,0.0104823217824639,-0.0181307627599738
0.190938297709901,-0.0310235422829922,0.00710418731445059,-0.0115288474175235
0.108833010201837,-0.120178459637881,-0.000811960184536211,2.93491290016025e-05
-0.00150166046446909,-0.159201724811342,-0.00573282258358768,0.0154499477510418
-0.0694676382845741,-0.129904566032401,-0.000892313762242435,0.0279807322410913
-0.0498493706833092,-0.0743679878202131,0.0091177378993778,0.0311522181283873
0.00468977909997618,-0.0570477262084477,0.0157711096461928,0.028501357568024
0.0056201960546596,-0.0659944578066215,0.016822668924435,0.0261175289145266
-0.0355639347840459,-0.0598618899834458,0.0134171152346115,0.0201048605890867
-0.0483924795001796,-0.0477666778512254,0.00926430583649197,0.00126345197202929
-0.0225698911553713,-0.0578370388411579,0.00542744053346356,-0.0263103143225344
0.0187981795680157,-0.0759260886145436,0.00267648740395804,-0.0438787169130655
0.0488451420659817,-0.061925616270027,0.00202365799749661,-0.0402885980941116
0.0578227201009545,-0.0300648757585203,0.000747836733203319,-0.0235381852689363
0.0696144161627351,-0.0200699989149265,-0.00263801240888734,-0.00653363336403642
0.0875720162783217,-0.0295721172003011,-0.00553424078639914,0.00631625001547225
0.0930971543254865,-0.0434976452017284,-0.00333364748904178,0.0158295454977499
0.072538602005787,-0.0541466924330071,0.0041496066281469,0.0225714691788573
0.0257901081815281,-0.0406763061311221,0.0127657101025187,0.0258947708710227
-0.016726820707762,0.0069525506004489,0.0172922743602048,0.0226227748618497
-0.0188613014477674,0.0564102740844367,0.0160047326942117,0.0103290012615227
0.00869075735504671,0.0616357525815742,0.0171245121450607,-0.0055000682036727
0.0336996461822486,0.0236032549470276,0.0255883789657793,-0.0160042237718712
0.0473246366294549,-0.0178847007483812,0.0341889904087794,-0.0191472230057686
0.0384392126818755,-0.0368857669579946,0.0384135057106312,-0.0195114329719708
0.00691617298456833,-0.0262713120537267,0.0398403661554731,-0.0215137701082899
-0.00581609753921055,-0.00438689738300361,0.0409627483479161,-0.0232716988942399
0.0211713817666682,-0.00148752165745015,0.0446989362395943,-0.0170577388323256
0.0491616352525412,-0.0146213754945902,0.04978609533605,7.04638668181344e-05
0.0501265385166835,-0.027526672836009,0.0512884439235655,0.0191083295978367
0.0437149857812323,-0.0487374595270323,0.0493680870198169,0.0281839177274222
0.043868212514487,-0.0781556066016937,0.0451078185533523,0.0238483729908066
0.0376509083781995,-0.0937440983471475,0.0359954787229011,0.0118953399074867
0.0311783891773585,-0.0907998256027019,0.0262599867246161,0.00106606467124382
0.039496647204208,-0.0806969700950844,0.0204205871565007,-0.00564841529092224
0.0403429192718115,-0.066724370813678,0.0155713138693435,-0.0133572343228091
0.0207210413624612,-0.0463226040601811,0.0104141256778916,-0.0266163642839151
0.0046053338857798,-0.0288183718240307,0.00705148239674114,-0.0406710432403013
0.00335859709319072,-0.0282678693316834,0.00515169244286702,-0.0463098985228492
0.0081014063521185,-0.0355172620123755,0.00216661587269085,-0.0389319082108431
0.00406307816218503,-0.0327177063009271,-0.00121085574095207,-0.0196581562613251
-0.0190412314282708,-0.0133131543512646,-0.00392838026334089,0.00380607275003383
-0.0556229280836038,0.0189587819326403,-0.00624647992144658,0.0212572003306769
-0.080059893505568,0.0419625098590143,-0.00747925378714521,0.0283788587224848
-0.0600999855056554,0.0474355995300364,-0.00743108315563088,0.0253401420747417
-0.0183128399483432,0.0520284764739059,-0.00928670469488935,0.0160542115931108
-0.0162634524502609,0.0568934057215737,-0.0161229759279701,0.00997002410008335
-0.0540457788122768,0.0579304582927517,-0.0223031127586217,0.0125116918988941
-0.0805625103762216,0.0579489018568949,-0.0237958309493724,0.0176940591166913
-0.0750466198426777,0.0458257390168137,-0.0250530809969623,0.0169188854218552
-0.0426399580781538,0.0169459439911494,-0.0298458037370502,0.0100682542551353
0.0058490297304242,-0.00878790419420737,-0.0383413100164287,0.00332091215824821
0.0383686183547172,-0.0133643757354456,-0.0459202394894559,-0.00029663462994723
0.0362754974282696,0.00405150917823205,-0.046058500742302,-0.00198875450386787
0.00726227137697689,0.0309620860524368,-0.0359535342093022,-0.00299763666015274
-0.0258149168019721,0.0587909851665931,-0.0182410328683398,-0.0042336638702327
-0.00982544897754538,0.0918004947914515,-0.00120160306546674,-0.00585777521177577
0.0574157379062016,0.108478434204997,0.006870771236386,-0.00615324308240349
0.0866336088843226,0.0858256232108079,0.00615616530517346,-0.00404825284501039
0.0396635048409895,0.0583851179714572,0.00587221080633633,-0.00110610713709783
-0.012798648697266,0.0587795383718997,0.0102221428210525,-0.000291778266173487
-0.0099560508819516,0.0508898588933311,0.0117338040657116,-0.00340538700911321
0.0273339754196801,0.00884736180010806,0.00870715062586155,-0.00796873323375278
0.0400295862355857,-0.0299289019842837,0.00660420295658891,-0.00875242659662408
-0.00267725532531474,-0.0485206087296591,0.00549649077034141,-0.00429920256417667
-0.0797034839690535,-0.0423620503080153,0.000545285061728587,0.00105805752050612
-0.147343805584649,-0.00196047566824151,-0.0108939176178999,0.00355645095223749
-0.174840548882265,0.0492393510603752,-0.0225232634248527,0.0043094273116792
-0.151464060855107,0.0876598648464774,-0.0273380850212592,0.00560549603906313
-0.093325644727362,0.107872601760936,-0.0256980715774931,0.00724780517059494
-0.0334138881393167,0.110248309010877,-0.0194958362491922,0.00770519935302367
0.0206607913319343,0.100595713553668,-0.00994070103688927,0.00582899375366328
0.0729278635414306,0.0847308175874045,0.000414749387010925,0.00115194141299646
0.102184097491683,0.0651919314382901,0.009467985995547,-0.00558645264553151
0.0878047435464263,0.056612304872072,0.0143588545477583,-0.0118105499719774
0.0411634627878276,0.0588377495254772,0.0153471065653452,-0.0136144168434943
0.00378773885018527,0.0217504439139603,0.0162220397210748,-0.0090799149215957
0.00328030951301954,-0.0653462249767622,0.0115855360234935,-0.0010204754678685
0.0101233092992399,-0.109337913951854,-0.000397430396071811,0.00591012552031649
-0.0101190426699363,-0.0607086741148205,-0.0066814730317029,0.00926538633958205
-0.0428658405020359,0.00707256630298392,-0.00301663590480996,0.00857762757429367
-0.0701589496453257,0.0315505917553435,0.00284175715798412,0.00413575170884885
-0.101866509716125,0.0284549670850635,0.00645950140732523,-0.00235830315831136
-0.129896763546672,0.0223770813052224,0.00912931487055602,-0.00805112301104203
-0.120263546693059,0.0131324826516907,0.0131669103898644,-0.0109161384929034
-0.0808283507908446,0.00316069552318007,0.0138571211576043,-0.0110930328286447
-0.0519730464971864,-0.00250904841422595,0.00847848192201406,-0.010136182877736
-0.0363420982075512,-0.00471740552363071,-5.53879051100065e-05,-0.00896026640812901
-0.0109387755221795,-0.0030393626570424,-0.00926422752596546,-0.00759557234796019
0.0201089192951062,0.00670485082086925,-0.0154317676611222,-0.00654387281799894
0.0330978295357058,0.0273391398047671,-0.018021471065181,-0.00634825168435285
0.0344530175134824,0.0504399352844931,-0.0170444515190422,-0.00614856275274332
0.0396953825955113,0.0648195362977094,-0.0128090280654059,-0.00479543589859467
0.031616423556905,0.0667721224046152,-0.00900574038329314,-0.00262134773652053
0.00179028627348448,0.0557167805098562,-0.00830745055995068,-0.000468012658746473
-0.0253911575108129,0.0471229544190411,-0.00978038210778494,0.00135287401194854
-0.0304006770092137,0.0595088884645748,-0.0120307632136913,0.00325902164979463
-0.0228409755563641,0.0670011516335115,-0.01605946787185,0.00668691255275088
-0.0183542824677134,0.0289777275219505,-0.0202558569979128,0.0116602661905529
-0.0146616670013297,-0.0433539927220738,-0.0203621815035093,0.0152346320125539
-0.0118243260830537,-0.104946567437527,-0.012512413891647,0.0147589980690764
-0.0143992561911761,-0.116935287652779,0.000690233626460878,0.00919935489359449
-0.0135499033721234,-0.0612672421144633,0.00679022336343635,-0.00145031764618311
-0.00900938830811695,0.0425098204179613,-0.00217353039477341,-0.013475879144479
-0.0111819707183485,0.123582326578663,-0.0192411168561556,-0.0198602911389951
0.00902432262038632,0.0831279585491581,-0.030993909607653,-0.0181392196068881
0.0651496026245743,-0.0651625346455752,-0.0341930884797422,-0.0130361904414418
0.0937414885035777,-0.167041128632648,-0.0344739135007722,-0.00833800240651645
0.0590558608437779,-0.134693692559995,-0.0338284359242891,-0.00275586996673626
-0.00381711970845192,-0.0242983411112816,-0.0312888048000867,0.00510527762251329
-0.0677576374733625,0.0699287761470972,-0.0286619835517783,0.0129658587736538
-0.140645656344173,0.109566538731194,-0.0293096795670282,0.017917421611102
-0.210022278198894,0.0920361018287416,-0.030509831794079,0.0200457890511256
-0.227944894086498,-0.0171335704348732,-0.0252539865830915,0.020528725616014
-0.188648923790751,-0.177440296211868,-0.0158682243570312,0.0189554924525734
-0.108225596009319,-0.256822591684682,-0.0105172349560777,0.0143124901792969
0.035709987126829,-0.228312143081144,-0.00975739952064743,0.0071410275195021
0.190725118678448,-0.176351916374282,-0.0105058533734371,0.000537181395255295
0.250746550561435,-0.146572487359507,-0.00756511167412098,-0.0027680537933857
0.222473605679626,-0.114118727903378,0.00131684572216106,-0.0042586871154364
0.156042696962221,-0.0590802431023628,0.0105200104367755,-0.00710901050671109
0.0637701377359023,0.0124819815144656,0.0176146634873775,-0.0112895785455514
-0.0217191969063293,0.0793952246333534,0.0257404389205127,-0.0141625194209582
-0.0577687329050122,0.112667711116373,0.0359268622993505,-0.0144940533518747
-0.0419236053111862,0.116334820180953,0.0453033244264293,-0.0126190047974006
-0.000731779122034809,0.106417126215647,0.0479227636963907,-0.00841140742828419
0.0306942539456746,0.0829170850504666,0.0403913758936559,-0.00226608057775638
0.0271779707923687,0.0519933654119985,0.0268095034328777,0.00354744119186206
-0.00824681593492999,0.0206152174440515,0.0113728069608857,0.00675451053965388
-0.0478129438181887,-0.00290087348424095,0.000108368375555778,0.00770536201379098
-0.0578750901889904,-0.036129777950604,-0.00191762930799841,0.00784936195009954
-0.0352469147009608,-0.112889899338614,-0.000742431250942761,0.00688012094898394
-0.00377494116429783,-0.194050485379008,-0.00334791302257764,0.00451779698684166
0.0185249556023102,-0.21949192546566,-0.00776012217586731,0.00267857920064498
0.0379674708862582,-0.189869953015639,-0.00636224560473869,0.00345509478005553
0.0627157130175508,-0.133069129428593,0.00510448471008128,0.00633388663778638
0.0713413475521151,-0.0820566375655375,0.0208812482239921,0.00817692235206836
0.0413062190191346,-0.0506766513313887,0.0270356795119501,0.00544684535614778
-0.0154548870488001,-0.0339373017989609,0.0169535385488385,-0.00277923271367896
-0.0631242508773715,-0.0394108828440568,0.000995839723028456,-0.0119528164750649
-0.0713283052093492,-0.0642139329651661,-0.00861325612011857,-0.0146317598281068
-0.0453311048953895,-0.0951505755117404,-0.0055711187426116,-0.00907871132692023
-0.0234141343710661,-0.102854860407404,0.0128524566840432,-0.00179328289144256
-0.0221684796597357,-0.0457679790095522,0.0371446257030396,0.000597657497477556
-0.0252685408294664,0.0524714711404974,0.0485423195513277,-0.00253062272623061
-0.019927503666051,0.132982688015305,0.0408869589686391,-0.00746072114284812
0.00218305732210744,0.163151358635016,0.0274653043196211,-0.00996432317875875
0.0468116189247818,0.14086705557465,0.0197413702621322,-0.00930285799688853
0.0855520907013548,0.119671213647831,0.0120602855736462,-0.00736309951235432
0.0876874208148997,0.13673134218996,0.00215751238933292,-0.00418123370123188
0.0774080433687403,0.149099180019854,-0.0014813077713105,0.000890724410828951
0.0737559690113662,0.121801688044271,-0.000669077892454243,0.00707396586106307
0.051470190577002,0.0641801064694124,-0.00339187528081716,0.0125540948095569
0.000721348604506913,-0.0126569799615021,-0.00823449075655203,0.0140995261633752
-0.0459239318169378,-0.0922135578999959,-0.0124170470815532,0.0101397721933334
-0.0536231273915195,-0.152236338718619,-0.0191149949956938,0.00524942535636184
-0.0343592514495754,-0.179591964019346,-0.0260191942120386,0.00591987689534922
-0.021971715052237,-0.164353838841886,-0.027246155694922,0.0113783839755569
-0.0153115982129298,-0.10948330000896,-0.0260566205079274,0.0145264888770096
0.00642193647237145,-0.0424043619176262,-0.0273391218129084,0.0115729752183346
0.038017235004059,0.0117232751863272,-0.0256550907815086,0.00489708350962155
0.0481528371919959,0.0512959696329365,-0.0177310251389453,-0.00167196350313371
0.0325146844362053,0.0796097343714912,-0.0100837674598466,-0.0073863078944729
0.0143219959092059,0.100470663823973,-0.00577802472898801,-0.0127881308658219
0.00156454994832397,0.116168614402043,-0.00427429207997552,-0.0144160528645535
0.00394356767036561,0.112473291728511,-0.00312149362956684,-0.00880060936002945
0.0166703060950669,0.0828940319163726,0.000936087538477451,0.00011466813681966
0.0152582362291269,0.0476576986958262,0.00257762511904392,0.00443389814219214
0.00607654352929737,0.0378703456711824,-0.00225846820381505,0.00286491259063803
0.00336442194910122,0.0453232886787702,-0.00376911001589506,0.00317983937677348
0.00339493756553269,0.0257233123214252,0.00279101621562398,0.0104761787772053
0.0122410514762647,-0.0161516403211699,0.00820010959369439,0.0184781994669203
0.0367340211674578,-0.0487954841941342,0.00633536442435881,0.018107591223544
0.0616667517304532,-0.0746898500593058,0.000914283660769257,0.00797060877232207
0.076407612595856,-0.0810332882026629,-0.00187603705050507,-0.00577813394145951
0.0888034420616479,-0.0528542888583822,-0.00390443751068756,-0.0148946394990962
0.0993166661395286,-0.0236838135771776,-0.0110611022494528,-0.0148590414683872
0.0914350528753558,-0.0251901148164234,-0.0234770762058292,-0.00558933456981318
0.0451824442557178,-0.0548492857652158,-0.0331783874058014,0.0104169194525845
-0.0392673104243562,-0.0770975194723823,-0.0336475513176996,0.0262308485889782
-0.114815932372851,-0.0479333353341503,-0.026217475967707,0.0327058822744085
-0.117830113054946,0.0139301729913178,-0.0174219933660174,0.0273676954148997
-0.0485710531231635,0.0494320730407446,-0.0158974936581718,0.0168941320644259
0.0228240180087685,0.0529617803861907,-0.020109891773373,0.00959115347217283
0.0480614814289779,0.0592675491193715,-0.0227196757261366,0.00725921773948916
0.0626263864361839,0.0729769646341565,-0.0202450292009045,0.00482987897269442
0.103209533995505,0.0716358655500834,-0.0138540648223801,-0.00320559916006236
0.142167334896604,0.0404746922461121,-0.00815688097843928,-0.0168131970299044
0.158498601729763,-0.0270846556526632,-0.00151912143872519,-0.0313479627079967
0.140178766411173,-0.0963028081648987,0.00792008470918447,-0.0426279657578005
0.0494037937031805,-0.107901006252684,0.0162249550779488,-0.0444890151833585
-0.101291408690006,-0.0831256744168803,0.0215517703566458,-0.0321402430773238
-0.230561469011518,-0.067796310704523,0.0220435012498554,-0.0140403796464039
-0.275345932437782,-0.0529562559383404,0.0175043719877826,-0.00249711213460745
-0.239667166960297,-0.0152779135131286,0.0136726065672092,0.00384458395067385
-0.185703587989132,0.051520952390672,0.01051751159692,0.0126591784301917
-0.138075052903308,0.106320170348098,0.00436858251871393,0.0226740417624371
-0.0464216978295741,0.125411452512845,0.000271712906546403,0.0265912155830323
0.0926613937975842,0.13821290455258,0.000826451415641548,0.0212472061553176
0.199958137494482,0.128289175034185,0.00104661889178088,0.0109315758702968
0.215451386778729,0.0460499431829209,-0.00272348798647503,0.00307631585457533
0.172382190345244,-0.0472444826311279,-0.00961403597201394,0.000788782899135603
0.128768655480846,-0.0337474410482174,-0.0144964448780198,0.00187026819122722
0.0782045310819345,0.0578344783095879,-0.0136311068663359,0.00318890731264587
-0.000295293624752641,0.108880306899621,-0.00821215497644831,0.00277779897549889
-0.0771685918172446,0.0815838269800234,-0.00178870933070302,-0.000294473422037053
-0.10561123446844,0.0197000416160183,0.00398843413361477,-0.00577449223622116
-0.0891051186938657,-0.0398861654244129,0.00982915326800523,-0.0135869053041126
-0.0736581484580131,-0.0856057629045241,0.0161975688167554,-0.0245262204997912
-0.0777858845023441,-0.0866292356060928,0.0214172763492833,-0.0354959735978919
-0.0689994655788756,-0.0286022371739956,0.0220790990234355,-0.0389741116195591
-0.0202717067995891,0.0244679549321927,0.0189047811454377,-0.0309366423468769
0.0559792309191216,-0.00668213910803168,0.0146495467408317,-0.0152202531717635
0.132179658166491,-0.0724208606437839,0.00803867426236052,-0.000295247349400223
0.17478757089666,-0.0525660167696995,0.000814835012493593,0.00861873891308917
0.17680973138862,0.0258000851767512,-0.00293548847085585,0.0125569325215593
0.164345613810372,0.0593882924181044,-0.00499198040265313,0.0126946632329183
0.13777412656738,0.0463381945416202,-0.00707467822049864,0.00928915635893482
0.0869701070842908,0.025632778554101,-0.00458309289036284,0.00555320621835556
0.0222725203501137,0.0060103343049565,0.00315269082262929,0.00429245384698527
-0.0421062594759136,-0.0138230476454159,0.00836159140681845,0.00412668713307029
-0.0929096383174295,-0.0218853922043953,0.00922344396716477,0.00297148907999791
-0.128559639074215,-0.00044631486652396,0.0110887504402752,0.00111375827705309
-0.152460506326913,0.0467015702237311,0.0125624451755926,1.27150630460978e-05
-0.162124246631159,0.0887105383302379,0.00812455214890967,0.00110382799846137
-0.141621262003265,0.0899674019084066,0.00296456821824976,0.00471105260898909
-0.0795440227630607,0.0526517911716252,0.00397040821319729,0.00884956217163642
-0.0132950964105777,0.00939719246800781,0.00938559296945188,0.0107869883740302
0.0235024864546729,-0.0151286289540597,0.0153432254415049,0.00978710462257567
0.0553559809874766,-0.0191330873677853,0.0168099553420074,0.00673870943194129
0.102549249015102,-0.0240309571285143,0.0131439684924559,0.00178869836660224
0.139339939632357,-0.0433370467643379,0.00881818666168897,-0.00570208653053658
0.129736367771148,-0.0601960583726146,0.00737331508408045,-0.0147923735998079
0.0781182097183789,-0.0472671663376816,0.00811336396454488,-0.0211532350018025
0.0326133888312218,-0.0144397682680203,0.00761639066366618,-0.0189216069358979
0.0189600223200063,0.00305194624874082,0.0049652881006988,-0.00679860132224618
0.0150959940724742,0.00180436555079783,0.00185047202805849,0.00917878286495729
0.00609090517873859,-0.00361187451874058,0.00131226313544146,0.0205136834853761
0.00104152996923536,-0.00218461270732846,0.00193035227024945,0.0216357136768154
0.00234527599750748,0.0129412817660328,0.000754966066941279,0.0132196168394589
-0.00244103751055437,0.0330013941879413,-0.000722471116903618,0.00240582068848298
-0.0226471553253007,0.0523364047876209,-0.00137132216639959,-0.00313929719690696
-0.0477742691775906,0.0744223590023263,-0.000608006054640432,-0.000552180863158974
-0.0668455948331817,0.0876821836916485,0.000506740981601621,0.0074802701056444
-0.0846026030384092,0.0794865421762301,-0.00287406877405998,0.0144772555375835
-0.104108079762117,0.0634015512504871,-0.0105983558679952,0.0157545500769883
-0.119011781016179,0.0545376161106029,-0.0167880013034741,0.0124214589135659
-0.122731202251756,0.0404088454383636,-0.0187589991018482,0.00792213593272355
-0.112478623805187,0.00495743679829437,-0.0183217119746782,0.00246777027737543
-0.0891791385131357,-0.0352506604817548,-0.0186765603114408,-0.00707837421809286
-0.0662041850226478,-0.050469101512403,-0.0161514204257675,-0.0186337146061488
-0.0557640873941726,-0.0627473788649545,-0.00829570244011986,-0.0230367288083353
-0.0492639050665543,-0.108350434575272,-0.00258935395202404,-0.0158671982494695
-0.0350365249492834,-0.140559234638852,-0.000554145788262468,-0.00105342386222536
-0.0100630221924503,-0.101542350791837,0.00377911379387036,0.0145012895575879
0.00874909917591686,-0.0244140893129073,0.00985120170382599,0.0239231341514303
-0.00264195051537888,0.0270405500298039,0.0126159861367913,0.02428995564467
-0.0293340287596457,0.0445284328073974,0.0111361889396079,0.0184105579073249
-0.0444741845878048,0.0549988012069446,0.00830760377760533,0.0101428535183616
-0.0467254250976797,0.0662387794353218,0.00468306231123379,0.00196843563178094
-0.0415498664438457,0.0767113162914503,-0.00195886654838871,-0.00178380342223104
-0.0339656482647924,0.0740000691595866,-0.00824391168281018,0.000377874504064079
-0.0225427083538393,0.035446945974641,-0.00903116783961704,-0.000309195254915874
0.000147849696468676,-0.0290799629565922,-0.00611828912343343,-0.0137560379324837
0.021827008343079,-0.0748475079106651,-0.00502817678379427,-0.0373407126075919
0.0251737072844412,-0.0711837704156283,-0.00891729200835425,-0.0565734998232696
0.0173468235922432,-0.0368205686564515,-0.0157097972701228,-0.0565455392602175
0.0135335430564691,-0.000355212989444659,-0.0208139763912756,-0.0343834263357299
0.0170414925077181,0.0390511774187281,-0.0231110549729411,-0.00157372865342993
0.0137808588328692,0.0751827032189859,-0.0237381386576303,0.0255341657750966
-0.0128060283018002,0.0817990000841432,-0.0215550112503474,0.037261081964041
-0.0541513436788649,0.0649030773071097,-0.0191146689383381,0.0369837328798952
-0.0825117087990357,0.0546751859562456,-0.0201309063041842,0.0339065662191347
-0.0678874232699655,0.0464049741887275,-0.0218424753560628,0.0288751992742133
-0.0143283341308068,0.0199657725045751,-0.021172445727082,0.0156907030257144
0.0429933432262887,-0.00147422839764577,-0.0181935054637972,-0.00482124024727762
0.0999122113035734,0.0122631626156895,-0.015222674821217,-0.0222998406544788
0.138608581223839,0.00868752572479842,-0.012331515441732,-0.0288707033002829
0.129472778296613,-0.0763952033805466,-0.00761490330293756,-0.0263440254573926
0.114162050868831,-0.171068598654225,-0.00355193658443257,-0.0194386323974778
0.120781457940453,-0.155407323195133,-0.00129385981897677,-0.0105989132382209
0.10611861182429,-0.0650149648029331,0.00408643044237682,-0.0039341300282046
0.0426841797567887,-0.00163670314393197,0.0145952324567629,-0.00343502770224932
-0.0700224968957576,0.0431440854404746,0.0236213627637438,-0.00770527036578639
-0.179647623711866,0.104528307008656,0.0279261311854326,-0.0117802201074846
-0.17941712185183,0.152262614961642,0.0335581164510353,-0.0120865510129085
-0.0759842888777484,0.133733207503293,0.0392104516952485,-0.00852193099593036
0.0227740345941244,0.0444418715691121,0.0417294835865186,-0.0029622792073716
0.0773194330934589,-0.0828566030345561,0.0444986205771396,0.00237688108405447
0.0929574546172871,-0.186184974246988,0.0413438821405626,0.00567130361100069
0.0755352857495488,-0.191114979770746,0.0274600464532696,0.00454827541653744
0.0475900222186826,-0.111755506382755,0.0108416962442586,-0.00246517577366105
0.0153683655356695,-0.0313005315437669,-0.00122824963282434,-0.0117719059305038
-0.0157066430525741,-0.000327629587067058,-0.00597256938470189,-0.017272003069344
-0.0192885975772425,-0.00970230219866755,-0.00430671388265928,-0.0161249364059755
0.0055598571102254,-0.0219526849035834,-0.00109465599186413,-0.00971655782661553
0.0271304623247419,-0.00305910866982539,-0.00267440313556658,-0.00153304427068291
0.0403266747686228,0.0436770418687983,-0.00586774864764811,0.00576325972307547
0.0472220790238468,0.0821707091318451,0.000627625202365888,0.0115266248213634
0.017285137257887,0.0884201543340859,0.0154227222159574,0.0151276604055323
-0.0517079293128683,0.0661160170250358,0.0291511710033837,0.0151459213828627
-0.100594227686441,0.0453059675730635,0.0342481060757275,0.0124842036594849
-0.07644149822364,0.0378381969435991,0.0257816711019476,0.011584657342538
-0.00943631479710319,0.0125245014153678,0.0114454591818385,0.0153821156273546
0.0281780684065265,-0.0461724786428646,0.00374812023970337,0.0199455761512955
0.0216560927230068,-0.11246055772695,0.00247452856467308,0.0178633432372917
0.0169760441508577,-0.160744051049117,0.00137973398737993,0.00782201275805343
0.0338989655411188,-0.181340045904776,0.00372076129739191,-0.00360261435751869
0.0422271736238299,-0.160086819397402,0.0119606812515213,-0.0111338816527602
0.0302485820923976,-0.0922128922920425,0.0177159786767476,-0.0144392745383838
0.00608278936277159,-0.00951343506761618,0.0202355720415106,-0.0138279278517999
-0.029829633194195,0.0423997648960907,0.0222191112169756,-0.0113548307176466
-0.0620571838586375,0.0433359574379344,0.0171957949068075,-0.00980023224305137
-0.0633984071605378,0.0226824789741413,0.00703011308243951,-0.00830992238039332
-0.0338910742948105,0.0234133908787235,0.00291856822478036,-0.00639485972698764
-0.000464567476582731,0.0269596871903925,0.00755138837995874,-0.00574277299973809
0.0221768227506821,-0.00768272792213039,0.0134871357297688,-0.00476281152642649
0.0316264571206674,-0.066735184059202,0.0129724200054805,0.00053735106963488
0.0229946734872315,-0.114426621378431,0.00508580193279953,0.0106081597358614
7.39374849935276e-05,-0.132052113638106,-0.00491392924213715,0.0217822907747983
-0.0314347742201139,-0.121846250354304,-0.0123625169533194,0.0298099571301541
-0.0702489730908258,-0.0995910001307153,-0.0159840562912717,0.0319698718638062
-0.0999559039416968,-0.0857024985607837,-0.0183183997908037,0.0278821382226766
-0.10708199286459,-0.0849570222840038,-0.0210633529914135,0.0201522126450908
-0.110144996315947,-0.0580534072786963,-0.024546615598913,0.0138329649703211
-0.118016121291547,0.0156739693824048,-0.0298718063947295,0.0126226497393233
-0.102619746542156,0.103675554182907,-0.0341521839134056,0.0137585235535992
-0.0479880457673955,0.153961106906026,-0.0328152426771492,0.0104958051344711
0.0299562546517782,0.13095661649705,-0.0264176710214817,0.000578071421740475
0.0965761011380138,0.0560213127874282,-0.0198306927402549,-0.0111438802350714
0.10842778946895,-0.0123606697011987,-0.0125978787106527,-0.0189355352808203
0.0793119542931364,-0.0109099799611006,-0.00299693996277456,-0.0219173730985804
0.090014816781631,0.0462706888551635,0.00891290101884328,-0.0216557779248019
0.14816307141918,0.0840283494633201,0.0225478537581326,-0.0186524482863661
0.168728887670864,0.0984745702002129,0.0300027009165887,-0.0139260736748551
0.120890185350443,0.10900007384956,0.0253838968230512,-0.00821350187323656
0.0511141389766706,0.109971176843211,0.0110578161430893,0.000697064878574755
-0.00443154994723846,0.112184695484746,-0.00866920804924153,0.0131836942116179
-0.042941957563969,0.112391302166736,-0.0251902917854423,0.0236226440852417
-0.0579048726206174,0.0926335584972749,-0.0312323945773985,0.0259028544200675
-0.0376544512991569,0.0333287658857009,-0.0296301955140839,0.0200148131166191
-0.000663249090163028,-0.0684565629592763,-0.0257029278529735,0.011476405153638
0.00839548667762733,-0.153775482894102,-0.022559736867607,0.00541768777891014
-0.0277953005247077,-0.176273742154858,-0.0190984228778002,0.0034307279167051
-0.070669762528762,-0.156667024727599,-0.0133095547795492,0.00615357070629853
-0.0666968080373882,-0.114902020303717,-0.00626835210405981,0.0130846289517426
-0.021191309701694,-0.0567724426186217,0.00539139283494739,0.0187540384322262
0.00700521793075974,-0.00140268051058592,0.020803536771867,0.0151791552595912
0.00407910778318703,0.0331132911650857,0.0290533082730322,0.0005173207963018
0.00748205014284305,0.0457200979390687,0.0269760513645537,-0.0166745644260636
0.0287257550942273,0.0507575096639671,0.0202167362608711,-0.0257756976546294
0.0501371642333666,0.0607688315520958,0.0134822330552594,-0.0256222186390354
0.0592989856165902,0.0711298824814346,0.00928230387230478,-0.023851212588874
0.054499869678929,0.0691566669173972,0.0066669011376421,-0.0245619057291904
0.033196918523207,0.0508301469064648,0.00294205028412339,-0.0208521022977409
-0.00733424898722895,0.039162401754229,-0.00313458626000985,-0.00768054113239815
-0.0483531709988425,0.0585795229603332,-0.00990416868286795,0.00723386145428841
-0.0576327043585693,0.0873235158726452,-0.0117417560602678,0.0151513779879539
-0.0306924169448255,0.092629542286195,-0.00681232536106958,0.0165399344259278
0.0106678335313298,0.0657291596991631,0.000265459876189349,0.0156810513098375
0.0497733636078231,0.0176343024334119,0.00580801554086418,0.0132093505655069
0.0744513070153183,-0.032144456163406,0.00667336353818941,0.00736157402836734
0.0631577920180698,-0.0757673103222675,0.004911673398118,-0.00118887005335769
0.0213906662685388,-0.0927588242010239,0.00710076920650384,-0.00879367257757914
0.000352659821894565,-0.0652915048992662,0.0151455294825323,-0.0124738526766586
0.000720990632810545,-0.0225221354934485,0.0208689140425731,-0.0121070403001606
-0.0345541083411268,-0.0126319765482088,0.0148000982525462,-0.00784956980925732
-0.10477318793204,-0.0454021573151792,0.00417602160565957,-0.000420016843153622
-0.138660161743735,-0.0837642479994862,-0.000990338980059954,0.00684544723747308
-0.093023172344405,-0.0920511590098641,-0.00292676531799698,0.0107114997697002
-0.0138320481132378,-0.0692971139977564,-0.00363837004844916,0.0109439438471674
0.0402154386180537,-0.0422592355887475,-0.00350416595334014,0.00867784390797331
0.0543136947065466,-0.0306301000138012,-0.00390210083582984,0.00330022717302707
0.0354894873457959,-0.0283424225283178,-0.00474281939451509,-0.00560378194870327
0.0104548675419351,-0.0207167771101938,-0.00602763707117285,-0.0133748201686904
0.00212596431513293,-0.00547351909493489,-0.00683457638111569,-0.0130576018056262
0.00580432588870906,0.00889888978113023,-0.00811509236429303,-0.00679387866612873
0.00762078030875384,0.0174840040129508,-0.0133736019199547,-0.00683784268374222
0.00610306200969073,0.0208058247896874,-0.0182804546270435,-0.0186880873496055
0.00710624741128552,0.0216830202514331,-0.0165597972794206,-0.0338196818016219
0.00612437371393652,0.0201443813811229,-0.012189361130799,-0.0415249219182719
-0.00636065927866782,0.0107321035844919,-0.00771967047393983,-0.0373776263674703
-0.0235996768903946,-0.00727264001406923,-0.0033570780500998,-0.0228505766063197
-0.0278016569567931,-0.0247880093512655,-0.0018417509836637,-0.0040633569508351
-0.0173002175026465,-0.0317591426885158,-0.00149899232049888,0.0109473185460476
-0.00556470879545727,-0.0284223688571384,-0.000876083712818405,0.0175321572339183
0.0029987285199698,-0.0253823651530545,-0.00270064942029962,0.0167371347427711
0.0132647403749475,-0.0262640744806522,-0.00645439121354427,0.0120111748650944
0.0229935910094985,-0.0225548543061298,-0.00773868508845699,0.00623683935177205
0.0242958619540289,-0.0108352430527873,-0.00688422096525085,0.00162679794991981
0.0162210607455353,0.00879335028226182,-0.00664719519659188,-0.00113419743122584
0.00821890339512381,0.0397794946098322,-0.00731992565998498,-0.00228029076906164
0.00515970180543002,0.0642562305789765,-0.00829938704234194,6.07165956103416e-05
0.000482103744064041,0.0727125365286227,-0.00859752855491498,0.00757645103709759
-0.00856668706214258,0.100640613781557,-0.00785653797675959,0.0165616115009075
-0.0141019527632576,0.1547519837563,-0.00519974622118322,0.0201425086682112
-0.0114946996764149,0.187286466126475,-0.00243226072660294,0.0148757207113427
-0.00560071949661177,0.166887780360036,-0.00352655550290437,0.00396141818071279
0.00143878955127176,0.1011884797864,-0.00569369858405296,-0.00533419390427605
0.0155221165229362,0.0203490151479613,-0.00568768622521882,-0.00835781778716209
0.0356418156161747,-0.0394768309535977,-0.00718148309083702,-0.00665792089645548
0.0367592487151061,-0.0731821657929155,-0.00922407404465093,-0.00485230738826352
0.0123748573453931,-0.0934862187222203,-0.00682221300236536,-0.00564021359784424
-0.00174230039378422,-0.0775423155453259,-0.00372686257465509,-0.00800963228511245
0.012841933234273,-0.0384802564765998,-0.00469876836295632,-0.00870144009943647
0.0425977035387667,-0.0415065506704913,-0.00604223157995299,-0.00598021919219007
0.082302827378021,-0.06485805744713,-0.00268023963733333,-0.00185739237897992
0.126653095740371,-0.0464942340288876,0.00567039396340011,0.00141799187879248
0.146454915181202,-2.18362324210936e-05,0.0116816048494325,0.00437560920641838
0.124799024652503,0.0344069426466828,0.00951344851969541,0.00765174758343275
0.0730862664109772,0.0431020474457965,0.00429134141365404,0.00924929829036564
-0.00112063897651948,0.0450294847239689,-0.00107198051770739,0.00756844608931725
-0.0882621528765995,0.0610574054485066,-0.0102302751506621,0.00483938114971524
-0.152359325720531,0.0798068098749467,-0.0188997837046636,0.00398591540737606
-0.155056375720259,0.0840627984891169,-0.0191444685759462,0.00634603793777047
-0.111730117772871,0.0746917964952142,-0.0136809699680889,0.0129384395595674
-0.0979206482272082,0.0590067815939977,-0.00760287938169182,0.022271838418954
-0.12262512569826,0.0265270276860792,-0.000527568513906503,0.0287986709208168
-0.100630031349816,-0.029099904125322,0.00844641871549135,0.0282475886735567
-0.0160039491808068,-0.0690760122774048,0.014629834371355,0.022503706241299
0.0727797468826215,-0.0788812994589138,0.0119138888261205,0.016214574804927
0.119326262272259,-0.0867585824748941,0.00551544762416065,0.0113366138552401
0.114146077417382,-0.0874077780749837,0.00395167910266394,0.00698894065068894
0.0941527888740662,-0.0729736589454937,0.0105064269170524,0.00249746241523052
0.0722680358735425,-0.0637529824142979,0.0235118215650649,-0.0017179084492503
0.0242336111460509,-0.0705097457495401,0.0314259635116147,-0.00681535054317692
-0.0383914817648946,-0.0837895172648426,0.0286943269088439,-0.0150995708337795
-0.073758019124107,-0.0660736106107236,0.0217322844434356,-0.0249789189600701
-0.056454256925451,0.00880871987032616,0.0158703214209798,-0.0300066265331825
-0.0013167344361097,0.103787559251276,0.0179171656608276,-0.0248685759290639
0.0554388770854333,0.176860703604064,0.0258335474486362,-0.0116936022189673
0.0716869894255943,0.211432852556183,0.0241421999829273,0.00094865393401055
0.032798388285837,0.206452125954435,0.0068400323498319,0.00862605565384959
-0.011395505044049,0.191374546840576,-0.0145312400363502,0.0164839601531511
-0.0238292712625973,0.178961724065858,-0.0282012271913618,0.027334851585789
-0.0254188925485776,0.153264861563581,-0.0342267818138365,0.0332818378966869
-0.0359123399314901,0.11359873284051,-0.0365366134971398,0.0256589315614928
-0.0436957196017011,0.0558014813017791,-0.0345487599296886,0.0071459849221827
-0.0314413143319833,-0.0324262701584073,-0.025412940700986,-0.0111364479035225
-0.00931324762255987,-0.150249590858587,-0.00954350715335944,-0.0246043932815644
0.00428553030684735,-0.28220351690457,0.00946781506655062,-0.0404544695340242
0.00695965527209197,-0.385611382243798,0.0300637958766193,-0.0600211052651375
0.000108983885080148,-0.425052531021156,0.0501898108502855,-0.0671835428666016
-0.00630414597735745,-0.390735968714502,0.0606004126933015,-0.0496929029949171
0.00348001294591526,-0.256941758623074,0.0565936502338288,-0.0170593223164228
0.0209937004186796,-0.0486236584395694,0.0464325643532144,0.0129226652156944
0.0130533385280687,0.131054371249923,0.0398814834043349,0.0305230644741985
-0.0243657197185084,0.229471652743962,0.038878568775728,0.0337057357635631
-0.0568523363685548,0.260125045726457,0.0362310675703789,0.0244337963747949
-0.0635231055462363,0.255372093322524,0.0245909645726449,0.0103362161500297
-0.0533957835854517,0.247140172262776,0.00807643989400134,0.00109522213641242
-0.0381466671862345,0.232740440058588,-0.00379614749357721,-0.00102537465033493
-0.016435793528379,0.19692402173385,-0.0115626920281307,-0.0010621508917705
0.00877385033187399,0.132300411980168,-0.019500583250756,-0.00225192597035007
0.0271248317323112,0.0385044547203005,-0.022334853553256,-0.0035843902032258
0.0395550328976582,-0.0678067807720545,-0.0176899151982123,-0.0050526196942484
0.0593727670613557,-0.149595153826035,-0.0120296709514477,-0.00869660031068662
0.0856319590748798,-0.171148727888667,-0.00443021349973959,-0.0137968737570197
0.0969514647307114,-0.144830701585038,0.00782756921968283,-0.0165553690348085
0.0814249536126979,-0.114506920286562,0.0191476028268705,-0.0152306937160469
0.0436239671964704,-0.0942823459931248,0.0235844093098275,-0.0122243204864705
-0.00448184133400524,-0.0683894355055729,0.0192181206372137,-0.0112781814366524
-0.0449247270089107,-0.0303941567659101,0.012004914381589,-0.0124799191777531
-0.0652773637591625,0.00716877146741896,0.0092809609281754,-0.0119165432355348
-0.0637099727914637,0.0289753626762675,0.0110323792003318,-0.00742208169630365
-0.0484175009855635,0.0234889274500545,0.0144620872205021,-0.000663527557969197
-0.0325600614955247,-0.0103416609551194,0.0154305270405781,0.00568837009422098
-0.015452301694279,-0.0553730622879201,0.0136082236676805,0.0100206213930624
0.00509678589921524,-0.0866319790103343,0.0135639867866241,0.0119702706892856
0.0170097532439658,-0.0853856903570463,0.0147392188523428,0.0118084043751774
0.0154231626319034,-0.0542394081669325,0.0103602052735592,0.0106747945310007
0.0107076871620373,-0.0237182857478247,-0.000440513783041182,0.0103312609055869
0.0117275877793073,-0.0145963308029553,-0.00844289763903583,0.0109438022412416
0.0171024963725539,-0.0177069973787924,-0.00916439687599726,0.011608296069262
0.0214724394210153,-0.0217213774900693,-0.00682143431448092,0.0129414868733374
0.0173830665452386,-0.0276244863835855,-0.00471689403446342,0.0148180563056597
0.0108404596534696,-0.0412342534155035,-0.00234764953518503,0.0140313502025554
0.0216445515775806,-0.055648407165327,0.00158713524167576,0.00908511248108086
0.0392110867707153,-0.0510240487666254,0.004107153048881,0.0040990590507679
0.0381711996443522,-0.0253462042815228,0.0016933552511842,0.00319750456873571
0.0235368063778847,0.000864129938636188,-0.00361201579310895,0.00437168612770832
0.0115403779761016,0.0138400240334235,-0.00844710003989882,0.0040088545120382
0.00588844787783814,0.0117285186948645,-0.00890407146631041,0.00289302440077262
0.0104316868139787,-0.000463314974236895,-0.00292740625639844,0.00340146076826204
0.0206028825897655,-0.00312329113059059,0.00615777420525214,0.00546870108969237
0.0108037062122013,0.00881125096815561,0.0136545356888057,0.00661180272911271
-0.032911711862985,0.0143521623941439,0.0117719218437857,0.00404894131171784
-0.0880401217210466,0.0192521551586316,-0.00309828980223457,-0.0020690376329759
-0.108156930741284,0.036022682150699,-0.016249520507529,-0.00837997556713523
-0.0726106513576264,0.0438356244130737,-0.0157818103149858,-0.0120230127647728
-0.0103724023655375,0.0338676949632545,-0.00896717826898204,-0.011021278307766
0.0522509970607686,0.0148982173466418,-0.00291765058421053,-0.00284824744633165
0.0942716932817283,-0.00107355683678818,0.00109405830976702,0.0123778722672649
0.0764111894861935,0.000928328547216063,0.00325601665114719,0.0297575379778047
0.0135914739424537,0.00243735625252788,0.00219498612854438,0.0416999063786634
-0.023234141565486,-0.025969268405345,-0.00254491452350925,0.0425180741737333
-0.0056090233292207,-0.0673983833958989,-0.00559566648560532,0.0323958418045348
0.0310729738142319,-0.07664119899555,-0.00450065292427727,0.0160015821339854
0.0449528709238526,-0.0420664521562177,-0.00362837990441485,-0.00149205784107639
0.036640482200205,0.00248062460354646,-0.00817447110305585,-0.0160990238659854
0.03039566907345,0.0239226499709128,-0.016622504236285,-0.0258475047379684
0.0325945260026849,0.0198111823501983,-0.0199910475170915,-0.0310750822007222
0.0291299642231307,0.0135854973392221,-0.0156644013016545,-0.0313169239328787
0.00689634479965383,0.0216288880337386,-0.00771984345655665,-0.0246555748378803
-0.0286231113825801,0.0324402500472584,0.00497167287608039,-0.0120961104928381
-0.0697458571978613,0.0293702324709702,0.0192083528169885,0.000597555431305977
-0.121040181677621,0.0175626176426475,0.0240497372566901,0.00696949021038054
-0.170950354840941,0.0156609822284766,0.0164715322953281,0.00597466343981481
-0.179374441296819,0.0235663101731828,0.00402898979738281,0.00239962596087409
-0.131922258881858,0.0217492097390518,-0.00595619165106589,0.00115848041282007
-0.068405656652475,0.00931357643177159,-0.0124013406715478,0.00300933700206042
-0.0233726286537114,0.00746007033510317,-0.0160018409666174,0.00547620223555566
0.00362999981139103,0.020470464694957,-0.0173213089188556,0.00625263865793656
0.021585188332289,0.0353350684403066,-0.0192761723195152,0.0046964212355086
0.031058509804541,0.0433407112340641,-0.0219293619877349,0.00155220320190855
0.0213828818514246,0.0433730117904533,-0.0233550552930645,-0.00154683771560309
-0.00510779121076177,0.0384257214677442,-0.0226797974079654,-0.00371015157313594
-0.0247372703663307,0.031911755914661,-0.0175435446934398,-0.00569168896826731
-0.0221507595340631,0.025407413322855,-0.00944922065360524,-0.00780603365335601
-0.00552540486408235,0.016584340070488,-0.00286083330112771,-0.00892296725350144
0.00790735124654396,0.00120605733593272,0.000602287686311806,-0.00849308515097013
0.0109325899388281,-0.0182044999455449,0.00288210452416166,-0.0073726173303746
0.00797956022293707,-0.0395517475918911,0.00567703033596926,-0.00654200023262026
0.0107306977512743,-0.0612339145305347,0.00510400841049873,-0.00618528979254882
0.01090812772454,-0.0699616994737339,-2.7754231115746e-05,-0.0057543633200103
-0.0185552348804167,-0.0586546956222917,-0.00553707122538847,-0.00465490526595848
-0.0718504164155659,-0.033195356684056,-0.011744494662967,-0.00292184696591335
-0.115437612601943,-0.00739409586700235,-0.0181930157089372,-0.00126295487047335
-0.125246935589052,0.0103077558365183,-0.0225708555984839,-0.00066662929690831
-0.0973278048967106,0.0238589180578848,-0.025489930471943,-0.00191899660917784
-0.0568121337991569,0.0328690451704314,-0.0250417308542545,-0.00462157995011705
-0.0180012936168265,0.0356456757190285,-0.0197208311151033,-0.00713946590293691
0.0358960161572976,0.033549357927149,-0.0117399977096103,-0.00756016152508893
0.0801591533272841,0.0264591318800592,-0.00662364103407003,-0.00493246777627254
0.069149020283753,0.0185948705137468,-0.00755493718679586,-0.00143360698105278
0.022669587455311,0.016169459784977,-0.0112980917482712,-0.000571562595849287
-0.0108664129680717,0.0169852147336673,-0.0141663753352928,-0.00245891037303361
-0.0183133586963281,0.0210425453367119,-0.0136150764056113,-0.00410402377544884
-0.0129476077167209,0.0345359207784591,-0.0104130260998953,-0.00341113216651479
-0.00957808646504495,0.0488109522145491,-0.00676125992410482,-0.000558577049913728
-0.0150699755327182,0.0502927482661293,-0.00236010294348131,0.00355282006809968
-0.0291265877469974,0.0499135480047996,0.00143153025738415,0.00793462291283188
-0.0431243012831924,0.0558604258197161,0.00189812207358613,0.0114126098975887
-0.0376686127322037,0.0319564133906493,0.00255878998765201,0.0126548768242877
-0.00585832147843459,-0.0224051373859,0.00974706870008076,0.0101344115651927
0.032919395885034,-0.0321324201099836,0.0193180738225841,0.00412304371153744
0.0514423256562723,0.0212468233847139,0.0225751949352027,-0.0022959968907156
0.0466956814779414,0.0623959727703037,0.0194848891024113,-0.00617623083147653
0.0434395493054591,0.0340009965837462,0.0129099949797782,-0.00647671403414149
0.0444304306949476,-0.0316547956563038,0.00367653136360082,-0.00348295993586167
0.0337892456073533,-0.0770301382753842,-0.00607066279232083,0.00123827905352971
0.017998561067638,-0.0915546827400308,-0.0129119804089067,0.00592126091337092
0.00886299649787254,-0.0882768443896264,-0.015103750583443,0.00982315982781546
0.00445661153939305,-0.0716554605767443,-0.0134749732029636,0.0125829824769218
0.0141784036419359,-0.0285251532821721,-0.00928775982845625,0.0133806860716196
0.0365631163624149,0.0297047308774405,-0.00599599961808358,0.0108448898857082
0.038926269490951,0.0647517315758487,-0.00645555060586828,0.00450074520152362
0.0172203486847405,0.0738917819545137,-0.00540621819220005,-0.00380285829237139
-0.00582083230663797,0.0757364985920251,0.00236916670963873,-0.0115085702679639
-0.0146526029156295,0.085123969450047,0.0100866259240735,-0.0177992733082954
-2.62346645423378e-05,0.105846694775328,0.0111486297444784,-0.0212171391837851
0.0269618933428446,0.111323130835128,0.0115052633347479,-0.0174809417339676
0.0440055440554494,0.0479638663211639,0.0172914294272855,-0.00620520842544393
0.046363736537174,-0.0931322865207595,0.0223300980076626,0.00502873358004752
0.0402699493301999,-0.204913207717222,0.0178420256642866,0.00784830296100911
0.0283454385639454,-0.198820572605808,0.00821637790360598,0.0028184035223504
0.0164403367551156,-0.120822332155703,0.0028223925985781,-0.000183932444166615
0.0127103748806762,-0.050934949587739,0.00211633269146946,0.00415910391633237
0.0236026382105492,-0.0104240631164856,0.00178108666968978,0.010964071628077
0.0468354688295156,0.0162893030781088,-0.000789130671780621,0.0156015168416028
0.0567804517425557,0.0356572367274649,-0.00615566732998948,0.0184544992461085
0.0334836833264753,0.0380574215214736,-0.0125122303753783,0.0213573767229881
0.00243748683163524,0.0267518602750753,-0.0164360407128422,0.02316517266706
-0.00307702994764242,0.00968123063436546,-0.0160627946461462,0.0209558403089997
0.00785774476812685,-0.0323679950055955,-0.0121581880950843,0.0156279151064725
0.00640922833585853,-0.0860085155208806,-0.00725322841902666,0.0103958647421677
-0.015271516845044,-0.102855642161743,-0.00338621722910738,0.00521861808969904
-0.0373962855438228,-0.0846368228797954,-0.000442714335141372,-0.00219299506784169
-0.00685747565660976,-0.0624234395988655,0.00340051838350358,-0.0121666743792198
0.08162963015693,-0.0328847000677183,0.00764983048916476,-0.023069601868629
0.130541628519757,0.0105892156142991,0.0113695727964788,-0.0330372441136004
0.109094872614029,0.0428561677093915,0.015702516038182,-0.0415482615229067
0.0805706314136791,0.0437373341863527,0.0160553011379488,-0.0474844183597979
0.0544196911761961,0.0272919305349571,0.0109078758953799,-0.0470733057208457
0.034614121301744,0.0246883315215992,0.0070869807390621,-0.0395288365290656
0.0550073338131784,0.0245496281819221,0.00488532184728553,-0.0280518790483019
0.0697329972616278,-0.0143768415355233,0.00314309573716528,-0.0144763952645892
0.00689488905968826,-0.0845831126446335,0.00475611259059147,0.000705843878490625
-0.0751641025779949,-0.144325159315911,0.00753231023645306,0.0164348062512528
-0.0620848461646995,-0.16548116223585,0.00610562088979859,0.0311537262179976
0.0208370250262033,-0.14039740695771,0.000808616561946387,0.0436784865538584
0.06117757669082,-0.0808602354509669,-0.00239390212785399,0.0528101664287012
0.0454090164949302,-0.0117644497954074,-0.00010232360472613,0.0553079222111853
0.0363245941832254,0.0402409228855295,0.0061653650325711,0.0470047361366075
0.0552678017990223,0.0497373779971279,0.012947238861606,0.0282832458199194
0.0653083488728858,0.0255318895968225,0.0160621946505837,0.00601764216604252
0.0384660602471009,0.0131254979233884,0.011516629751003,-0.0125607238020184
-0.00382022699398694,0.0176348316691589,0.00318519706454946,-0.0248468796226748
-0.03054778478688,0.00345336575461498,0.00159964594215134,-0.033369348036605
-0.0330509415289693,-0.0299097951895837,0.00945233236498459,-0.044247449195074
-0.0207190265073223,-0.0241682745750877,0.0184544802851172,-0.0574245960158766
-0.00537202248255764,0.0352742075261461,0.0229866614282371,-0.0630473274485327
0.00321243175197822,0.0580931032922352,0.0258482111136403,-0.0554823337170425
0.00770980150474294,0.00593229055700971,0.0277005529097148,-0.0386445354897109
0.0242653451459027,-0.0399933068917827,0.0279906528546902,-0.0165097215390149
0.0389751243385289,-0.0251837391220585,0.029094047077824,0.00773092768912955
0.0224278216420267,0.0176610942251612,0.0315438171648757,0.0267791562071659
-0.00915546158879261,0.0509335595556972,0.0321807481826698,0.0345440009761681
-0.020313747945927,0.0734661491589688,0.0291084793341232,0.0327421733777076
-0.00974664706671869,0.0781558410039722,0.0264422222287106,0.0274702276962117
0.00250461903289169,0.0562306177095648,0.0255900862355991,0.0221079009791555
0.00783652486464977,0.0368269841081814,0.0231230041472375,0.0164631955081128
0.00845946643595276,0.0321025837129808,0.0208539848391305,0.0108996622480559
0.00198351555917385,0.0153814315234999,0.0200831408573599,0.00637823498217649
-0.010513316450355,-0.0159455189100899,0.0168931420303042,0.00178020685652779
-0.0220117534502199,-0.0346069257577669,0.0106594197440977,-0.00429612312957474
-0.0264087614688515,-0.025259467672505,0.00555518597870192,-0.00960338796493067
-0.0220998072176458,-0.00542415295015797,0.0045036290690485,-0.00918363725705469
-0.0167750395747664,0.00470857159884877,0.00599925224669661,-0.00263252638476014
-0.0147202064384699,0.0100849151435343,0.00673655583221181,0.00377275581987652
-0.00985195682066367,0.0169856308028388,0.00668387786423579,0.00617444119366298
-0.00311933888363853,0.0190020351083877,0.0083881173789484,0.00635603001816013
-0.00410278972429797,0.0179139133558587,0.0104846071282291,0.00582680175656738
-0.0113931284220535,0.0166577907354143,0.0108355855424168,0.00408955143761323
-0.0159968792633728,0.011064272965776,0.0116386325008474,0.000312914397905411
-0.0168010606790767,0.00692159141321756,0.0131988325353077,-0.00590347485300106
-0.0190025585601585,0.008551870064637,0.0124041367479084,-0.0129507583361775
-0.0227472566018735,0.00935587445692377,0.00858343923698593,-0.0164430776557086
-0.0183497658290457,0.0127709986568107,0.00120107027168906,-0.0129164407945506
-0.00141302699763421,0.0254765593525457,-0.00739366197233184,-0.00199016148056215
0.0148858921542613,0.0329202433330474,-0.00811364741142262,0.0134081278083864
0.0158793061453724,0.0330839575606448,-0.00181889513155322,0.0262943888817353
0.00400454181021521,0.0509797740423983,0.000778170983546482,0.0325998280018708
-0.00409612906020681,0.0807632384455334,-0.00139562851662637,0.0353448784998815
0.000402386025279033,0.0845751177980941,-0.00224527317364288,0.0355669881057791
0.00610395590177062,0.0589368648121977,-0.00195085567004318,0.0296994601358025
0.00100438900237249,0.0424812945406928,-0.00406371173275273,0.0173283067853188
-0.015856062039734,0.0509417273470073,-0.00833798910739332,0.00254800375547219
-0.0358265154717229,0.050807182659459,-0.0131606915256637,-0.00932307257188694
-0.0474506621154349,0.00681651085542984,-0.0148720460672137,-0.0145006078044903
-0.0466179637390451,-0.0570679814325983,-0.0141971392467162,-0.014228946510804
-0.0363331598713953,-0.0662652656967214,-0.01469029556015,-0.0124291591108713
-0.0295795406232424,-0.00447873397500383,-0.0158862706795193,-0.00975295483754141
-0.0339280335983145,0.0656372012168262,-0.0186159046971657,-0.00551496058559353
-0.0381133705583457,0.110633667638841,-0.0186750057708477,-0.00138893150109513
-0.034742055693297,0.124653418355509,-0.012194095945918,0.0011974187681614
-0.0281071165289634,0.0783957489109689,-0.00376341690222719,0.00318010916541053
-0.0110939338017466,-0.0255782287773802,0.00272855929140789,0.00593908447812076
0.0128370179909061,-0.121715257198216,0.00359216217902244,0.00929451765366559
0.0152555191046523,-0.149640166995783,-0.000861892596479889,0.0118635024208591
-0.00167084709584259,-0.107605092204871,-0.0074234975233877,0.0124937107084819
-0.0182413379083179,-0.0394866344644469,-0.0163887753822871,0.0114370693520661
-0.0321362998822736,0.00880724545585354,-0.0241169977501223,0.00990010060919257
-0.0245343209836355,0.0321893566937057,-0.0280067108028648,0.00885056664526069
0.00885961128091349,0.0504009344411748,-0.0291437619363079,0.00810457495652597
0.0222275723087944,0.0636924687562808,-0.0267590283096382,0.0063645138884607
-0.002204671102531,0.060700676308559,-0.0237766579641182,0.00295982292602024
-0.0210522320709336,0.0437925525619393,-0.0207204231743524,-0.00141337635854302
-0.0036178869287412,0.0257780530816866,-0.014134273935825,-0.00486308385630177
0.0241628065379129,0.0208220794688444,-0.00743865195687678,-0.00628912418447879
0.0211490768775706,0.0318121125843325,-0.00446384296777347,-0.00731203464979316
-0.00933646947051915,0.0352123282803801,-0.0036076143028753,-0.0109372488263282
-0.0310841082737428,0.0144947002848353,-0.00079982069201661,-0.0203941566252459
-0.0260770922103641,-0.0114516986507401,0.00450008073631032,-0.0351546020707773
-0.0103052168014757,-0.0272601824421706,0.00810983590085802,-0.0463995852115796
-0.00697991840939288,-0.0351389311331541,0.00795386801229059,-0.0431856323669126
-0.0104858676852977,-0.0344890837482662,0.00557777017182441,-0.0240118339747899
-0.0055108321117658,-0.0290210700923089,0.00376465337331615,0.00199176399321786
0.00149755965184611,-0.0270411641501944,0.00288426456877103,0.0236416068995438
0.0062752917217124,-0.0270615029098434,0.00224883288679487,0.0342986068156471
0.016927263198607,-0.0258022933625984,0.00104287178228749,0.0335665931906065
0.0338855009965431,-0.0257506383544972,0.00023028578840683,0.0250805334058875
0.0478274382405876,-0.0257345244829283,0.00294900026345229,0.0127526245942759
0.0529273038896499,-0.023154123243238,0.00669477282815267,-1.63381515206687e-05
0.0517792023351705,-0.0183782419874275,0.00783231377403905,-0.0100004692616198
0.0457604094715135,-0.0142147714866747,0.00683911194928735,-0.015238907420801
0.0372969371024962,-0.0118334932976035,0.00307313066108468,-0.0156089332250925
0.0282929102395259,-0.010301918697998,-0.00140850578727893,-0.0125647254909815
0.0101723139837588,-0.00649980775604731,-0.00226396910227937,-0.00938049212579635
-0.0139876955725247,0.00668452345778385,-0.0018281508590689,-0.0101689363795509
-0.0252548045507569,0.0250297887983063,-0.00710750343139831,-0.0158757155643336
-0.0199101170514234,0.0463123165541627,-0.0183457212974015,-0.0217274902887712
-0.0103427678897877,0.0749752859545547,-0.0250582099698275,-0.0218071833081593
-0.00826964986820498,0.101287868897933,-0.0229352105008298,-0.0159278934318873
-0.0142978357091385,0.113019407028666,-0.0191855090752265,-0.00879039357453812
-0.0184057478684192,0.10260440741817,-0.0173552431873533,-0.00423541108597866
-0.0167273058020868,0.0807211240479317,-0.0165762751709187,-0.00240073669562619
-0.0143802248488786,0.074172607174954,-0.0166990637212746,-0.000769159699704695
-0.0106504969570886,0.0794499566726751,-0.0161109961659544,0.00282410085549752
0.00161542329485019,0.0702934704365605,-0.014504308016073,0.00843384355325775
0.0212713040894107,0.0278538630169457,-0.0130131518169286,0.0142225182028618
0.0405692162915207,-0.0740950549177278,-0.0110784598836299,0.0176646630537363
0.0537067396490754,-0.232371048511269,-0.0101082804308582,0.0166705777165761
0.0550660639391662,-0.342571289149842,-0.0124994542120974,0.0107507664132416
0.0492036928817352,-0.298536778794833,-0.0159762850836102,0.00245005848525634
0.0582272522535482,-0.141392099182675,-0.0127625038084026,-0.00461552439246651
0.0890076481451886,0.0184121197686836,-0.00291997726546317,-0.00821109916956348
0.104470687376855,0.119996778513585,0.00414143930592383,-0.00602517137217452
0.0680162162111457,0.15781851335392,0.00615249545199997,0.0018451751474513
-0.0107917065462088,0.156291131427507,0.00696184264895863,0.00973821069320369
-0.0935591621815326,0.139867969207814,0.0049961819676288,0.0135339670344605
-0.146436203240886,0.122738419784564,-0.00186565665001687,0.0146287897222767
-0.170925586001591,0.116136717679127,-0.008999345972258,0.0135306182494334
-0.194167093229321,0.125111407317076,-0.0141489373847034,0.00935208979266601
-0.210157603689115,0.139307445002334,-0.0170533733037966,0.00457994953310261
-0.186317294484215,0.132406026894816,-0.0136472020078171,0.00191149181412613
-0.108831834939999,0.0659685321877731,-0.00479843760009898,-0.00132122026891506
-0.000967463934988089,-0.043468822623309,0.00194590042349973,-0.00984732704125225
0.0847049012773675,-0.107136907377714,0.00110771303518652,-0.0214575955963626
0.121246597899987,-0.0987621275474558,-0.00791290307244006,-0.0266908544886417
0.114511824719799,-0.0950774791580195,-0.0158388177503749,-0.0194834086116662
0.0826273530795898,-0.141784092110222,-0.0121135327053027,-0.00234208959985545
0.0475697331713937,-0.181804741877751,-0.00194522105837561,0.0178775503595819
0.0188430475717917,-0.16185330970584,0.00202546638190867,0.0341777720579111
0.0181096954934161,-0.104466941346414,-0.00333815682135157,0.0415328476409064
0.0564778854594095,-0.0465268847835749,-0.0108579960293635,0.0391663762564995
0.0704480647117043,-0.00613148597970928,-0.0161532678623522,0.0304517011966809
0.0197398641784691,0.0098544633875676,-0.0189983116548431,0.0194462584241568
-0.0293337188235481,0.0140016139144883,-0.0173199164565753,0.00850742797312233
-0.0352690041080997,0.0138291770577145,-0.0123478128689461,-0.00121952858163715
-0.0311067320693721,-0.00743469072895613,-0.00797976015692919,-0.00987840495054222
-0.0363747752739672,-0.0537158078057769,-0.00489974003731795,-0.0171682614424173
-0.0424756417739867,-0.0940166170363825,-0.00316491104432949,-0.0198251395104802
-0.0426902637456771,-0.0754423054542828,-0.00406059932293594,-0.0163028036805769
-0.0184403464319078,0.00110624681258707,-0.00561145718128273,-0.00987085633907007
0.0376157612513968,0.0452801056392796,-0.00422066423090736,-0.00502724549449875
0.0807022785847647,0.00958378163021939,-2.33011399049694e-05,-0.00456355811518603
0.0769474930212626,-0.0401772957633739,0.00310435125564183,-0.00785963634029142
0.0515781490890566,-0.0371835876237658,0.00101342950583336,-0.0109398164838125
0.0350380932036386,0.0161249335401267,-0.00359325929699812,-0.011071301994181
0.0199866760924912,0.0810820337819513,-0.0052538213446643,-0.00886580404602961
0.00204747353880776,0.103670654892588,-0.00235063107195534,-0.00415886393469874
-0.00681782552437914,0.0506129904473896,0.00501547526360719,0.0040207038576901
-0.0117727315230255,-0.0451715288890511,0.0125208803773261,0.0122069970146288
-0.0224142538004633,-0.125832896597376,0.0137170544178492,0.0129706899418004
-0.0513265079489143,-0.16018728800111,0.00652494821829227,0.00457392860780364
-0.101909033251807,-0.149190286781293,-0.00667423751417138,-0.0054319162725868
-0.129389433785314,-0.116739507377513,-0.0182357347396891,-0.0105319178191437
-0.0902107384972584,-0.0745853676468645,-0.0189156577572104,-0.010713888486851
-0.00721434847700586,-0.0271536053480276,-0.00915280674972148,-0.00808113719330596
0.0569000907934241,0.00885391844782388,0.00245708609601546,-0.00470205509398682
0.0653050854345828,0.0390830596852133,0.00596217514955553,-0.0020218219877088
0.0569798045548727,0.0649970828631731,0.000317799564758454,0.000537872091399215
0.0706316725795148,0.0632158998204385,-0.00312705915967639,0.00383196420570245
0.0676059394887537,0.0425449578541699,0.0021240182824527,0.00671969593208559
0.0311526904577225,0.0292875924608105,0.0133080390603385,0.00786683727568105
-0.00120698468056576,0.035261809601582,0.0249324150534711,0.00722415400410622
-0.0137306117886518,0.0457021554858123,0.0303891560650966,0.00547502158998656
-0.0063897874891339,0.0371221448940952,0.0262141251137985,0.00316645739653513
0.0230238413763373,0.0011160801075507,0.0115229496303345,-0.000200987432879909
0.0506263042999246,-0.0660443991930508,-0.00986437901052738,-0.00571295629674822
0.0371485050904122,-0.121862200743887,-0.0246596392651638,-0.0132312479655948
-0.0202609226874258,-0.112383695524658,-0.0205904497888924,-0.0206683688837982
-0.0853994429726603,-0.0508284240297504,-0.0032538002729121,-0.0252671144300124
-0.124146565910368,0.0109397339103565,0.0118588373318552,-0.0246931306074467
-0.122026162497026,0.0387452965796865,0.0220145675669355,-0.0176960302776437
-0.0904099371673199,0.0439200978381524,0.0289678093770767,-0.00497432848476603
-0.0702062925690925,0.0552969210811017,0.0296941039173044,0.0098218823598041
-0.0874202996787521,0.0764434654381363,0.0233925732736483,0.0201297061053563
-0.109028377505556,0.0892179551462287,0.0143646610788701,0.0204810249524509
-0.0909916145169186,0.0872438217843045,0.0109804681086761,0.012300264430571
-0.0282981745549479,0.0809458457699914,0.0148378568614701,0.00328216254744682
0.0481134056370844,0.0779591331532413,0.019869628366438,-0.000608601411512857
0.0883422650136044,0.0838280040806556,0.0216080935018141,0.00061186604725827
0.0769553962102832,0.0860358559208999,0.0205616877542783,0.00403460345462661
0.0514355434807356,0.0617178473159975,0.0196110620574409,0.00742550996104339
0.045053012425419,0.0152099145344258,0.0188856010688457,0.00958774609222092
0.0497608196857592,-0.0263384946203389,0.0162736643767857,0.00958493439622186
0.0389287216437184,-0.0455191712551288,0.0128669905313921,0.00735393835567886
0.00750491559019113,-0.0401597139884545,0.0104500244346366,0.00406779162131041
-0.0295433550634195,-0.0112349427095361,0.00682198713250476,0.00238342033052995
-0.0602457519757097,0.00493876901567094,0.000157744997433869,0.004215993894907
-0.0629028508712007,-0.0293074156656506,-0.00510802719434154,0.00701251093898377
-0.0296564331207294,-0.0725211204122682,-0.00307391093188464,0.00582268604313337
0.0105648717960524,-0.0496890886540596,6.73052182944209e-05,-0.00145563467822469
0.0358798741973601,0.0402293844543405,-0.00475101146805242,-0.0114198145886769
0.0404453237321407,0.115244457485312,-0.00972523223340488,-0.0173321192721903
0.0286148132083872,0.125088302881045,-0.00258342797495329,-0.0153889013161997
0.0220352230419469,0.0957150812596243,0.0102589274584757,-0.00770714542037695
0.0283252457361498,0.0675269787736408,0.0154291077084136,-0.000343457274420381
0.02776358738614,0.0611585883726686,0.0140171433662102,0.00117685422078553
0.0146904109648561,0.0663759852775413,0.0146650665695877,-0.00346710752755909
0.00295134015408223,0.0691273686180794,0.0162760492534842,-0.00984917073459731
-0.00384892622770067,0.0787836509316927,0.0144073024900439,-0.0119754296551613
-0.00871867825267179,0.0932165452047223,0.0126885662282263,-0.00615332446574961
-0.00496976329298653,0.0954963017987701,0.0109829925738746,0.00447319760610275
0.010546728365461,0.0852106985272343,0.00979590982734672,0.0139901430409481
0.0227372607259313,0.0657002640086079,0.0122119618152613,0.0208590543205598
0.0244743144622327,0.0383565782688786,0.0114211269285404,0.024157297971511
0.0308731369195107,0.000436977329466043,0.00307829044780168,0.0210951426272681
0.0513679701403278,-0.0792452909418111,-0.00648266444287056,0.0122597482416997
0.0618215047673396,-0.18627995802215,-0.011417509748012,0.00127856471179998
0.0308286248960282,-0.221390486730493,-0.011474328617761,-0.00942580909523713
-0.0193736519076757,-0.151752212727267,-0.0103540441226587,-0.0185753946516875
-0.0448648109658669,-0.0491653548937305,-0.0111186196550266,-0.0242299939040194
-0.045295459699878,0.0280203901323753,-0.0118153128858138,-0.0237900787687881
-0.0373889518465242,0.0613887329119784,-0.0123892190711653,-0.0163411559833592
-0.0247436864021604,0.0544634749190628,-0.0130050823199364,-0.00532462544616406
-0.00603725173326171,0.029567606887821,-0.00845620524053493,0.00333155738839034
0.0096683556033576,0.0131528639936151,-0.00289341511136221,0.00658056342902387
0.0217786497069372,0.0175258983031013,-0.00544506472147109,0.00613097835478101
0.0379465276904292,0.0281573527375567,-0.0111024623150235,0.00450380071004308
0.0436886000976608,0.0284682850978724,-0.0115069063576327,0.000871832675319245
0.0345369596477916,0.0231156254944182,-0.00701814303273995,-0.00621652956700497
0.0251570194849216,0.015732426326032,-0.00340800949558769,-0.0131336578233738
0.015090808038602,0.00251014494006359,-0.00298870874823255,-0.0132987400308441
0.00585467030771148,-0.0117379412322497,-0.00262669568614056,-0.00478151889414124
0.0132237650530949,-0.0250514819452791,-0.00183561404256587,0.00832275344235493
0.0269442359380901,-0.0429579624507663,0.000908464956947786,0.0203520667236523
0.0185628244337681,-0.057566197907255,0.00619506308628992,0.0266163083712936
-0.0277884715575926,-0.061222832520999,0.0085255957917191,0.0240464510345475
-0.0953192620203166,-0.0581305335589323,0.00362156571828774,0.0134764330825424
-0.135016702037124,-0.0476123275924739,-0.00521265209432605,0.000552197487751378
-0.123336183169744,-0.0333008078493034,-0.00936279406075204,-0.0084877986089507
-0.0793280675045084,-0.023698526305324,-0.0100479370818466,-0.0114643636891024
-0.0342074870866363,-0.0225311984412024,-0.0122582160826841,-0.0104767592204735
-0.00641771859287341,-0.0258752546382032,-0.0126572779358532,-0.00884085145509409
0.00291273070583698,-0.0234036382511345,-0.0121304581629121,-0.00858430608991688
0.000797172076976528,-0.0158375887294707,-0.0130346186699818,-0.00842788670855496
-0.00490348954413318,-0.0156637511856039,-0.010968443101098,-0.0037411406257133
-0.00951430729013375,-0.0248168385889461,-0.0064923712270148,0.00612615373547317
-0.00856012238653622,-0.0269768415393669,-0.00698567092845695,0.0143939300876722
-0.00158691851817162,-0.00976812835841358,-0.0142640377351781,0.0148364218466549
0.00431833186437081,0.0160715734463576,-0.0235717493198568,0.00789504346179069
-0.0014127288759404,0.0253263125730231,-0.0286696268725671,-0.000450762158002207
-0.0184108753729806,0.0163648289938886,-0.0284126739949388,-0.00470800434751371
-0.0326839001181092,0.0156669596745892,-0.0281711686987745,-0.00480446873336657
-0.0380111075634277,0.0319946301077665,-0.0296991850371231,-0.00382294778435542
-0.0417600372181064,0.0549093592932596,-0.0287107533465914,-0.00365528144888581
-0.050815757593479,0.0708673159119065,-0.0220220856131404,-0.00460390495134989
-0.0523920947752881,0.0769066262563973,-0.0140310112750844,-0.00613331096198011
-0.0366980530109873,0.0906206495861969,-0.0116054813620079,-0.00621042328309102
-0.028102157021881,0.0928234732721362,-0.014484933977264,-0.00302861619178814
-0.0322463451009781,0.0260461164539048,-0.0181106095517702,0.00210737735244435
-0.0241082892008592,-0.0845535027756677,-0.0190453351508321,0.00629602590700623
-0.00916381453345273,-0.128060591396615,-0.0164839686172824,0.00802758750498862
-0.0101753063090509,-0.0780117163086241,-0.0115834507690496,0.00662108348874754
-0.0199277745083087,-0.021348974953232,-0.00675564995911149,0.00259830060590577
-0.0267135506387082,0.00362211543156075,-0.00409521196662542,-0.000665532946979111
-0.0327332882945016,0.0246090943854611,-0.00418059583913917,-0.000629300085573798
-0.0260734295237684,0.0307402841491889,-0.00582438566834316,0.000540146776727472
-0.00592306696618432,-0.00190467572976535,-0.00617951317156101,-0.000892833257660139
0.0105296814418416,-0.041937879328511,-0.00266685659978756,-0.00526152861876561
0.0152134703219253,-0.0398813922078854,0.00318136770924049,-0.00841763190239122
0.00368714194472736,0.00764425639836903,0.00767637946768237,-0.0062412980479198
-0.00904792046941016,0.066156084193931,0.0128923454717224,-0.000495913240631488
0.0111600787071357,0.08997336667241,0.0171335961677064,0.00321238936350532
0.0536324117589353,0.0607213440665387,0.0153265545754629,0.00266557428375912
0.0653190168079678,0.00322722383568784,0.0127705699307769,1.56226995568541e-05
0.0391598513304077,-0.04855966190249,0.011968308533049,-0.00122657002686558
0.0052591442103337,-0.0724769489350809,0.00892713993254373,0.00224248455374263
-0.0208077292986704,-0.0649298149539189,0.00529617755749953,0.00836791186983887
-0.0330063471079419,-0.0337175394882517,0.00240322164223902,0.00996086243808995
-0.031457422523649,0.00405607503821126,-0.00116797940012413,0.00456591386236452
-0.017814858662209,0.0254693794871285,-0.00194822409973517,-0.00268643861680723
0.000388746075282156,0.018683561647272,0.00409825085772039,-0.0060820040549129
0.010731100870985,-0.00250965036780736,0.014024991900017,-0.00522393102932981
0.0158245154565836,-0.0150879606795158,0.0222221179196569,-0.00300225922393177
0.0223064713288869,-0.0179466639565728,0.0252725211538667,-0.00100867266848861
0.0249963696834794,-0.0273626685357818,0.0267110216856298,0.000390535839157297
0.0244113351880825,-0.0583670118202964,0.0328949621662782,0.000671985770905889
0.0305532160812521,-0.0984668097307998,0.0366463920807376,-0.000514191981817498
0.0389858044999658,-0.108557958737223,0.028615879524,-0.00292686709104011
0.0360304643293683,-0.0770958436211522,0.0161907150715838,-0.00564225053188869
0.028821167335306,-0.0377660165577592,0.0102812409171077,-0.00708404748461616
0.029230936786593,-0.0181704869927357,0.0104627679518535,-0.0056584124371847
0.0320226203883708,-0.0138089945778269,0.0115139627686206,-0.000998666224655829
0.0381334184809085,-0.0170591697843509,0.012253190832028,0.00502470593329905
0.0504745344436768,-0.0269664949053127,0.0149872204009494,0.00971927688071287
0.0551883621767204,-0.0372410090904094,0.0202826982498578,0.0117281287507404
0.0457291770836521,-0.0404243328507137,0.021749199448942,0.0110411063199764
0.0338244427310472,-0.0361203255313836,0.0150489720078239,0.00866464783803472
0.0275087916823914,-0.0281067438005469,0.00514063275403064,0.00640303261143023
0.0255987620444964,-0.0215853574850778,-0.00146332339513961,0.00509496856889177
0.0227098105012445,-0.0228903469767646,-0.00220835278413037,0.0041207752835863
0.0150314205373,-0.0238232285625317,-0.000223376441334661,0.00372665386491152
0.00644054273759205,-0.0111311767500066,0.000815107011115399,0.00458421896615194
0.000200198949239583,0.00654516075694806,0.00301910380209881,0.00531459317122558
-0.00458332270488979,0.0174690736355797,0.00655200305844961,0.00378354065803257
-0.00959081133530427,0.0215019772781106,0.00503099185753624,-0.000883887371058848
-0.0114470425117499,0.0213997680300415,-0.00263027270521407,-0.008680232905006
-0.00342423738641026,0.0246358440369046,-0.0102948760429503,-0.0178019387867005
0.00802909354993731,0.0311366393366469,-0.0126644033580897,-0.0243558420967169
0.0132673541350994,0.0306037573852423,-0.00833879085224221,-0.0252729104485467
0.0142183808586861,0.0243810647147079,0.0044714735162445,-0.0203204115796279
0.0127667512668423,0.0191900446132812,0.0306616491495334,-0.0113402222156329
0.00625394247943338,0.0118540674594494,0.0614635470960173,-0.000119863343847029
-0.00610287720269381,0.00126194188652853,0.0771724721507123,0.0114067059683152
-0.021700670431419,-0.00328299356468981,0.0745661627311215,0.0201553823324431
-0.0380727385980048,0.00385717538529011,0.0637475006139516,0.0240085497404383
-0.0512291969962761,0.0145974138799103,0.0491046905334818,0.0226476549397109
-0.0595091503359438,0.00950452490695627,0.0312551922981257,0.0155984958687396
-0.0646190064948854,-0.0300209607702954,0.0161732829314762,0.00288519296334948
-0.0660136343766895,-0.0853530368941129,0.00812016330582756,-0.0123333715248924
-0.0613331061918702,-0.101683597951077,0.000836521511013141,-0.023678044354089
-0.0442719811542663,-0.0666817064933407,-0.0106247315920116,-0.0246171530574967
-0.0128201857799715,-0.0288923199781518,-0.0220673249668461,-0.0148262354160612
0.0133635942414929,-0.011586629325229,-0.0311853370488099,-0.00255413866019958
0.00797654071617638,0.00015032075236425,-0.0378114751960471,0.00448053167743583
-0.00597924656334252,0.012263615392581,-0.037084340740613,0.00617043187145486
0.0152538969299885,0.0275533241812267,-0.0278199842462583,0.005885598919851
0.0455602345848522,0.0368721301070764,-0.0146259250420119,0.00545628845667306
0.0377410188157728,0.0258493177867894,-0.00223932616518673,0.00467691228206241
0.00128527727120159,0.0107086862608644,0.0025362916591198,0.00329896043112163
-0.0347684755087024,0.0121710572424303,-0.00387662632672817,0.00247468204102174
-0.0499716695254552,0.0293195413678323,-0.0189994894731221,0.00292653451495843
-0.0292169404963513,0.0571273525908711,-0.033306715332962,0.00329566036136043
0.0111167236062924,0.0923555394074654,-0.0333951623497594,0.00289462481368777
0.0245479928130509,0.129267992472294,-0.0231478926056015,0.00238524158137341
-0.00422204301343173,0.144424998303046,-0.0159108550783895,0.00150140305960017
-0.041930093682385,0.0893226044249985,-0.0123095369032139,-0.000605998771623917
-0.0546423017107991,-0.0378200897073949,-0.00982573416745623,-0.00451161172056589
-0.0325641759612353,-0.145255181875801,-0.0113650909146271,-0.0094491843695599
0.0139971193124676,-0.153349733090446,-0.0186572552584168,-0.0130133459270606
0.067865638634723,-0.0916526422059838,-0.0260827967663401,-0.0122000870548607
0.112879442613421,-0.0372222866615276,-0.0277260792780467,-0.00506945721924768
0.139967886069392,-0.0150405241309828,-0.0264833850160388,0.00514697939289571
0.154177228961014,-0.00649730914867891,-0.0268451909572183,0.0112733589565044
0.158428683345674,0.00281208650712052,-0.0288072682366668,0.0110565245568556
0.141660669067188,0.0201805232744111,-0.0288665294560117,0.00899408654185118
0.102979780601061,0.0385678153671186,-0.0260353536449029,0.00903737570565277
0.0638825670707882,0.0443530139570879,-0.0267981177985348,0.00970470503586563
0.0380049521503334,0.039389543900498,-0.0355637040193123,0.00587342788717977
0.0172809373159959,0.0352900224369419,-0.0461449597154633,-0.0035320061590109
-0.0221142818602627,0.0335030196017661,-0.0535726909867821,-0.011124552214356
-0.0932135149226295,0.0335830078773391,-0.0568318198376534,-0.00967268813396479
-0.167421998903732,0.056973564635545,-0.0527990309497449,-0.00115179866330054
-0.209275701669122,0.117912134355508,-0.0451818889761409,0.00611713765247456
-0.19788834030123,0.197200644927871,-0.0383954897061244,0.005841281827495
-0.136003670055821,0.25910441752547,-0.0321008914694646,-0.00056548038484456
-0.0586548532238804,0.292831455553843,-0.0303029529224977,-0.00595185334921187
0.0236433139756779,0.310887187004471,-0.0337614095467275,-0.00574550209654749
0.110782566020214,0.259054338181255,-0.0342766858798288,-0.00241921746705399
0.175302027837036,0.0371604839792372,-0.0286015623319538,-0.00108572817279126
0.203036646919217,-0.292313584544039,-0.022879989653153,-0.00361678693420462
0.191410884386563,-0.479350086937772,-0.0214873129216453,-0.00743606055269092
0.137111458119824,-0.415818736016436,-0.0203440875821253,-0.00850866929593662
0.0641648830922126,-0.252658248847332,-0.0148854359623341,-0.0056612102745723
0.0138778559238944,-0.108073240156963,-0.00896621598463814,-0.00168773405553922
-0.000761266472226062,0.00963999150214806,-0.00495367490976776,0.000558524980489479
0.00314379897803604,0.0715830792360909,0.00689499032044126,0.000832571812379904
0.00742139669938429,0.0741226393886263,0.0299676280744338,-0.000310947606475491
0.00215285906191116,0.0704222486306445,0.0480405491875111,-0.00227536177121301
-0.0137940495806233,0.0912444976644232,0.0518788250795535,-0.003789683745968
-0.032848508252115,0.11624581587019,0.0514494060771908,-0.0035744771079189
-0.0476759676006206,0.117354566787923,0.0541984732512089,-0.00160264523540043
-0.0531311731101559,0.0944023535184405,0.0551934955983618,0.000550026606670843
-0.0510142158505126,0.0597965617310313,0.0520185660941442,0.00142160021350574
-0.0502846518560648,0.017581169340107,0.0501333308627205,0.000974020103842484
-0.0478373397098151,-0.0327751272610391,0.0506656842223997,-0.000384956603881049
-0.0392701927051984,-0.074255872516245,0.0514464350160307,-0.00260001006313576
-0.0321060185055716,-0.078374327077787,0.0512346183406293,-0.00447582551849012
-0.0285252763811799,-0.0567418391499405,0.0472193327045471,-0.00390989344595263
-0.0226171568042829,-0.0434860763346362,0.0393230171501835,-0.00107758084520132
-0.0154958898298509,-0.0437160399776661,0.030801197491649,0.001547220572914
-0.0178746264742964,-0.0492676254831051,0.0223954558529303,0.00165895709471005
-0.0337283392073738,-0.0569158672852453,0.0150228382206271,-0.00111335469387128
-0.0537319187332105,-0.0612897280917122,0.0105741593742989,-0.00375640022680877
-0.0650286791918455,-0.0613612775442971,0.00702405458551136,-0.00304490552989753
-0.0579146052627509,-0.0604007711878538,0.00231128178048658,-0.000722285866863783
-0.0341749982228992,-0.0530574388289074,-0.000650444204615533,0.000234402387376258
-0.00916701363192543,-0.041502790513818,0.00137731856637409,0.000644426219158963
0.000953895273823425,-0.0392164739442439,0.0072831470237321,0.00104595712913848
-0.00268920111383271,-0.0459133869699406,0.0132457858404894,-7.01620482015651e-05
-0.0035008132659771,-0.0516736133020777,0.0171929245600408,-0.00221537689994669
0.00326412389608316,-0.0534486369033597,0.0179561583585707,-0.00268035664400132
0.00201428931613472,-0.0540300696223998,0.0142705444997238,0.00147386776620697
-0.0112874485320626,-0.0544204352928571,0.00873097310907067,0.0113989414643206
-0.0259701737335606,-0.052378681354085,0.00285701503708424,0.0236836864916433
-0.0404094086009478,-0.0474513906896513,-0.00473104133137423,0.0312219651574455
-0.0489603035644124,-0.0397344812399119,-0.0125954481879768,0.0284656107980928
-0.0425806436806903,-0.0276007825361615,-0.0157930771501813,0.0157348638679875
-0.0273536334345383,-0.0128832758116428,-0.0131816649580691,-0.000854445514105101
-0.0153114120347801,0.00221460514797091,-0.0101816547426185,-0.0132221781606159
-0.00204378209805431,0.0295672332964293,-0.0098818110454756,-0.0159321210114251
0.0242865829566038,0.0764736589235761,-0.0115244907519547,-0.00887366841170132
0.055174057642063,0.11405494234509,-0.0150289665125604,0.00306491473780185
0.0743569600543181,0.114629632654983,-0.0199875371128801,0.0127892857951809
0.0815477444927218,0.0879056252659228,-0.0246564394196655,0.0140324628481084
0.0750717543330714,0.0631784578616841,-0.029130113856833,0.00654856538676096
0.0477885544334439,0.0624325843981199,-0.0343258233041332,-0.00256893112368035
0.0134131468419166,0.0742135877986863,-0.0398702489957604,-0.00678455203345305
-0.0096419433060841,0.076524834791558,-0.0453421909777419,-0.00520095563951648
-0.022406826077506,0.0708584338387352,-0.0466894657492616,-0.000313633861510117
-0.0320134794550916,0.0592702019441884,-0.0412470332814282,0.00517660487407478
-0.0400125062126881,0.0147071025041302,-0.0320518260314696,0.00974850940203654
-0.043041287747751,-0.0670768264162045,-0.0206296569564041,0.0123437477221467
-0.0419269527173702,-0.122441453552401,-0.0110371292453179,0.0117331722115642
-0.0452791862737046,-0.105046496112253,-0.00755302902466057,0.00736809300415984
-0.046917907685692,-0.0437647913995736,-0.00669231713553039,0.000418860037864386
-0.0283981134320825,0.0134491181000685,-0.00448554932704351,-0.00551725727463208
0.0112970280329095,0.0530375143631864,-0.00203736755263992,-0.00617634738830748
0.0496040775572074,0.0860449065134682,-0.00300791968847259,-0.000848213918820917
0.0567314937814273,0.11033506791757,-0.00577442212293208,0.00574939151809577
