-0.0174923063673313,-0.011765993755036,0.0112936497973907,0.000556573469234218
-0.0334636484056624,-0.0277432119952177,0.0168901241765748,6.90374479666994e-05
-0.051188251769099,-0.0359009300041014,0.0156917652484614,0.000463775938142722
-0.0565701121741642,-0.0401392860680914,0.00974070387684577,0.000642175928595283
-0.0413914268014553,-0.036247332859018,0.008888196125466,0.000199086252469619
-0.0135706229038807,-0.0249568340782067,0.0136947750873877,-0.0010044981721255
0.00367160686904852,-0.0232047260812,0.014201097683518,-0.00292797267293695
0.00125641399946266,-0.0343230802449063,0.00620086829737672,-0.00450981592370963
-0.00792950367409168,-0.0378886753854041,0.000356250386821234,-0.00440597812726842
-0.012168347670145,-0.0249822287863201,0.00722341406191408,-0.00274438477780006
-0.00963932189920357,-0.00612067489121829,0.019876193659215,-0.000697987553577811
-0.00295643643845615,0.00655635226523502,0.0224134055490046,0.000724983166708378
0.00606011576557448,0.0124338683786657,0.0116739754379778,0.00120050676380833
0.0163538060518432,0.0189225948949606,-1.87835925022049e-05,0.00145422619181766
0.0228969495393505,0.0253659584971473,-0.0055184664395092,0.00208999275285911
0.020209587861941,0.0265258237655722,-0.00736533863014313,0.00270601490353023
0.0085498368802876,0.0253811007392802,-0.00307412254099785,0.00272403903399769
-0.0094355789934376,0.0265513202997829,0.00734499973260337,0.00198354885716787
-0.0234670186765797,0.0302587949640549,0.0151455709806539,0.000721563858578015
-0.0246302699541487,0.0286216973683469,0.0133343182723359,-0.000756616886200463
-0.0135844584089801,0.0162708714976492,0.00490928591047463,-0.00209979654787658
0.0031986538307146,0.00626467259221303,0.00160388893384586,-0.00336700356135183
0.0215480344674914,0.0075491702152297,0.00668625728154295,-0.00504016737542339
0.0450284011582463,0.00790424350126519,0.0103843627578682,-0.00681118587051397
0.0604043442798635,0.000485906866592035,0.00878413925716867,-0.00687945372636902
0.052969238423797,-0.000725248589310468,0.0139789864956647,-0.00346097885027392
0.0369229306792488,0.00879563767050844,0.0286198578915608,0.00236972017691626
0.0262440533547609,0.0120632572770297,0.0316400735550364,0.00713316873940139
0.0185973743229275,-0.00105921325591677,0.0143996656110594,0.00862943507019583
0.0120303369147424,-0.019698296437619,-0.00308712783772911,0.00778276575590911
0.00825398900436524,-0.0287538093046974,-0.00690507461161033,0.00657045467767398
0.00660935885675423,-0.0277512714852764,-0.00837095490182281,0.00551806091837506
0.00586415467680114,-0.0264634075300407,-0.0201034112460048,0.00444528368028267
0.00902086349935216,-0.0269533840727659,-0.0342142506935463,0.00363542050004553
0.0194321197975702,-0.0159017821885892,-0.0330356447639339,0.00293278644457628
0.0310932092072267,0.00997907804631874,-0.0139679419453782,0.0017166195029001
0.0380560034016564,0.0303217826778865,0.00757504147426055,-0.00038822112662404
0.0409283408171017,0.0363688863659809,0.0199463386466914,-0.00320807421429875
0.0357471030600319,0.0398036216613271,0.0197971212161624,-0.00605856970789306
0.0243439273359659,0.0446925874896365,0.00952629921337631,-0.00805490280804289
0.0109027319920124,0.0449845288156679,-0.00106369614542956,-0.00807329572920415
-0.0110099379598726,0.0335167162250399,-0.00960683618926755,-0.00548777529555256
-0.0475086324079687,0.00889134238342732,-0.018939821275697,-0.00074989616642054
-0.0799274163584357,-0.0115262059845892,-0.0192363435691446,0.00467290435388294
-0.0832442365566864,-0.011653286665044,-0.00527837064459954,0.00858935130919877
-0.0710297368002355,-0.0126698726802362,0.00148653040516527,0.00954281077870359
-0.0578482396537117,-0.0330867118746733,-0.0126144937142092,0.00806203960750496
-0.025494096661828,-0.0458974136842837,-0.0256722625052773,0.00560360459915287
0.0416845412093251,-0.0344800908196148,-0.0166924502980299,0.00333282227103141
0.106825658600507,-0.0212669448527892,0.00494174210376468,0.00245306168498544
0.111284402702413,-0.0176785383636717,0.0196195027965937,0.00323107939321735
0.0772774766856267,-0.0146235761958154,0.0197414059968157,0.00428566675479694
0.0564238305500179,-0.0146871990242219,0.00982521235648305,0.00417923899588713
0.0362307481792262,-0.0257515138908771,-0.00216944330875355,0.00330092997808597
0.00446510838899381,-0.0364135410423513,-0.00851980700844672,0.00333707431349687
-0.0168497154542405,-0.0362789623618419,-0.00952257016001329,0.00427277348960997
-0.0198076838960804,-0.032991708000671,-0.015160382856114,0.00438452902888091
-0.020435239288501,-0.0259631493246142,-0.0228772358512407,0.0028884818138764
-0.0281782390045877,-0.00746488509004372,-0.0235662265927796,0.000408169954642528
-0.0371676398296029,0.0191822280723776,-0.0207085569326247,-0.00183202248457205
-0.041588645342058,0.0471650734407119,-0.0170327826595473,-0.00303755137465308
-0.04121644918559,0.0652848438380216,-0.00840993551010834,-0.00333177792195759
-0.0405778932280985,0.0642791837971005,0.00128662893629482,-0.00270454115595405
-0.0417036588865676,0.0470692699090878,4.27948649055921e-05,-0.00109849271756501
-0.047135915407379,0.0260555140525586,-0.0135806494591519,0.000859308695846253
-0.0506996688012547,0.0224510614150068,-0.0213072322990734,0.00247819344198865
-0.041292407863384,0.0348868949436311,-0.011511516441507,0.00305993752319466
-0.0294501468629234,0.0412017107268361,-1.13149385998212e-06,0.00205976711543245
-0.0229191481015365,0.0363327450978971,0.00311645214172485,-0.000211048494228177
-0.0170142080866698,0.0248342527478434,0.00143941386032213,-0.00300497851128747
-0.00852840604720147,0.00523630171936745,-0.00703903344914196,-0.00501291255044379
0.01187600431729,-0.017125608206773,-0.0153075886332563,-0.00457727978276363
0.0354406395642305,-0.0214836792136786,-0.00314331228086306,-0.00175116949258784
0.0293627494741959,-0.00608616599289521,0.022676934669435,0.00143727525663363
-0.00611410636825326,-0.00489493662111055,0.0284627193365706,0.00297565936988479
-0.0308649604522779,-0.0258018790962934,0.0180116002466315,0.00203013598536516
-0.0289835271678872,-0.0349659650528275,0.0111596504498699,-0.000552513004225614
-0.0144664883653777,-0.0206541189549153,0.0020150347709284,-0.00240208685537959
-0.00340177883307885,0.00140936471206683,-0.00689557709360739,-0.001972363466934
-0.0066511284139546,0.020282009568456,-0.00604645345296519,-0.000396030388219246
-0.00927960698203764,0.0359425472397158,0.00225232238398653,-2.21850018642601e-05
0.00165762233865754,0.0491491229618529,0.0112480390702146,-0.00190060819761244
0.00661111119042644,0.0556954153581745,0.0151819617213146,-0.00535163039951004
-0.00104410996857056,0.0548839944219086,0.0168999590594822,-0.00890091164426288
-0.00644489503203244,0.0466096520668477,0.0194704375276502,-0.0108566662651161
-0.00214119084369462,0.0317236125780799,0.0133265295194778,-0.010222162351713
0.00668701152445145,0.0182281037748456,-0.0019260309783358,-0.00740411619236995
0.0107302020800732,0.0101440196259357,-0.0101237819475067,-0.00406850772850064
0.00917895165601542,0.00444227227984591,-0.00666976522702696,-0.00179775740303613
0.00123338879501628,0.00154838528756721,-0.000526498485751014,-0.000771513589084469
-0.0069458196066462,0.00468443360496514,0.00216765287523892,-0.000520894877123646
-0.0065429313594838,0.011012914189723,0.00234487271120501,-0.000841785603763213
-0.00675302848548543,0.0143958377924385,0.00515681587680752,-0.0015835820267366
-0.0144419342591717,0.0151873971495805,0.0104299106520606,-0.00266960469799852
-0.0221968527168205,0.0184516976419231,0.0120340625261028,-0.00395244827833711
-0.0201536042929667,0.0252784383064075,0.0090844406537085,-0.00489493992751848
-0.00737888240769266,0.0300373531853934,0.00885637073698086,-0.00515080601503226
0.00641395651374913,0.0281834367658055,0.0139969215390411,-0.00483584100314404
0.0142217502466278,0.0213347270089523,0.0182951289806839,-0.00427928664662799
0.0164682891126122,0.0115635331963192,0.0161068393110655,-0.00377031344626977
0.0152448169871408,0.00613619055644094,0.00919106056135863,-0.00326445832003906
0.0115756000795459,0.0148160452397328,0.00632152860537608,-0.00263944957316249
0.00774913090054676,0.0244396655478428,0.0057519437931967,-0.0021692378781005
0.00497649817304979,0.0143710262102291,0.00107352368127644,-0.00193182000554472
0.00188276285586685,-0.0061392821252037,0.00054201372670771,-0.00127080814738016
0.00194237364364903,-0.0169000062689314,0.00705258653184588,0.00033620668065001
0.00690138878541772,-0.0172957793670341,0.0111749127722087,0.00213657902922232
0.0096388505066992,-0.0225358667838386,0.00688787825315774,0.0023620663980761
0.00811815879275055,-0.0369821507113583,-0.00763126840107569,0.000401819706978839
0.00844813359035068,-0.0486432997200596,-0.0231483843478603,-0.00282612130366494
0.0100721206071723,-0.0569272136367133,-0.0242549686816032,-0.00629820977823676
0.00800279709839825,-0.0690596927512032,-0.0149080054059823,-0.00843221141438612
0.00201609010585528,-0.0743987387150327,-0.00533481797269177,-0.00714654707086876
-0.0102397828247456,-0.0608789591202527,0.00415454821192435,-0.00215357612583309
-0.0232073738423423,-0.0442552908535225,0.00829395411363614,0.00402895134252344
-0.0266536191533072,-0.0382602534030576,0.00435488729239984,0.00824682677848421
-0.0214813331440348,-0.0272123923379871,0.00111989209910187,0.00901699137603048
-0.00393309243831037,-0.00817234416538636,-0.000998448342045093,0.00669686676867285
0.020507617515087,-0.00285292839962516,-0.00700145644614641,0.0028752514011763
0.034326912171262,-0.0103975623847333,-0.0113590394614573,-0.000494361265450823
0.036281787493482,-0.0108605871148415,-0.012737883173286,-0.00234190087803877
0.0278019005260458,-0.00188306523149274,-0.0136780454249181,-0.00263472455620001
0.0117673152154469,0.0117001280057542,-0.0108317959339745,-0.00191802485605059
0.000158721670036055,0.0326836420963348,-0.00505108540948667,-0.00124426849189496
-0.00277096078093367,0.0524011867450917,-0.00224714775126241,-0.00131331564795708
-0.000749859327361685,0.051613855865334,-0.00392727233645128,-0.00194966253402399
0.00421542480111829,0.0290946676047219,-0.00987026108117027,-0.00254464027057009
0.00765779818804566,-0.000901262377195206,-0.0185921436394284,-0.00198345568249749
-0.00303686875461742,-0.0280201069614343,-0.0224827724447834,0.000829467422874108
-0.0213586152068338,-0.0435054251264495,-0.0188051964136345,0.00514764106246981
-0.0255431666196556,-0.0400276758317579,-0.0122159302976397,0.00835967348426157
-0.0165680925727579,-0.0218834501320278,-0.00319965687177588,0.00842180353592106
-0.00441984234319873,-0.00669060933281871,0.00527251744999318,0.00537906151742253
0.0064933027474843,-0.0053425083703946,0.00573929119806355,0.000894071578372241
0.0114622482768064,-0.0170592318441105,-0.00205849867269055,-0.0027192670964466
0.00649174590305575,-0.0348898080340357,-0.00959339620902063,-0.00373955179665361
-0.00736763554924354,-0.0378132601535227,-0.00520819224213217,-0.00213458529883964
-0.0193086466881783,-0.0198701589677244,0.00962516787366965,0.000672168219634288
-0.0175741009361801,-0.00582474324427091,0.0188723907586159,0.0028307050205055
-0.00156430922491091,-0.0128058560440515,0.0142993503092768,0.00329870295119407
0.0164327917020311,-0.0283339007720632,0.00407295651069847,0.00231297951623435
0.0202301942028153,-0.0330883606005308,-0.00234115575353892,0.00072909189341714
0.0103826683593624,-0.016556963212828,-0.000714917451694606,-0.000764303643333099
0.00514493496130856,0.0210989302861678,0.0105143995092728,-0.00211918494986207
0.011032388772866,0.0513067194277528,0.0214555931441139,-0.00354286111752972
0.014761204769941,0.0453114198631875,0.0141196395700012,-0.00438613567327839
-0.0118589910513522,0.0180023795411013,-0.00733934331258229,-0.00357875780788127
-0.0689545108484029,0.00740699413969208,-0.011798332793481,-0.00111084519347734
-0.108808592147067,0.0256251713047299,0.0105834944095039,0.00186959834747845
-0.112970932725098,0.0416077056795277,0.0269067450244224,0.00415271539122674
-0.107694059887737,0.0326842683595406,0.0171756796951087,0.00584016678847086
-0.105314828450052,0.0183063362848981,0.00460082898808619,0.00756356053705858
-0.0650400121100955,0.0150922284424636,0.00367365589329861,0.0084394538340879
0.0149931502539991,0.0104837977260626,0.00132953762606015,0.00715319333152638
0.0428589387414041,0.0025369419915004,-0.00489938227875313,0.00449472581405458
0.00346688211491623,0.00580055897406901,-0.00342902821339823,0.00212305511431138
-0.0295654596397116,0.015528674690343,0.00664311234466838,0.000106976887033105
-0.0240926249780549,0.0216314215723093,0.0168357199742955,-0.00200702353077665
0.0102236535551812,0.0235354634295645,0.022825294317342,-0.00380972254726929
0.0503211013501363,0.0204547292182407,0.0242661364250704,-0.00471980980114443
0.071481578662359,0.0131968392838176,0.0210083232335686,-0.00448016608202352
0.0500504428718365,0.00568725137668731,0.0158343642281362,-0.00317144486891699
-0.00740360044129525,-0.000136656813694461,0.0137534723829569,-0.00148143022394201
-0.0522475000106746,-0.00374362854302019,0.0167165670625689,-1.41008481953234e-05
-0.0569256608475578,-0.00523784499290581,0.0215363724063107,0.00116601534500944
-0.0409046536750931,-0.00758915452738504,0.023069094326373,0.00201686139050476
-0.0273649135727295,-0.0141129100823515,0.0199124379776103,0.00243457027032068
-0.0247344587610615,-0.0213696761157333,0.0152706894604222,0.00250022581329648
-0.0273901071394195,-0.0226916489491022,0.0105845325893575,0.0027076287315719
-0.0213798304377379,-0.0177200120170271,0.00506445110116096,0.00344299559475493
-0.0188323288466662,-0.0100356481808994,0.000459019886211113,0.00446600082071001
-0.0332964589827218,-0.00231689780236646,-0.00120631486107938,0.00533783215924278
-0.0448981299855864,0.00264795298308288,-0.00211837656811285,0.00554728090405595
-0.0403831843292801,0.00373035601832317,-0.00413066956136371,0.00471314732866222
-0.0285491989931766,0.00559716989039313,-0.000998933093587142,0.00320090770725544
-0.0148201185316743,0.00653822805445465,0.00789719288739779,0.0013891257730023
0.0100093501772549,-0.00591193509799252,0.0094482741043483,-0.000609817817236433
0.0463494313348151,-0.0339748023809604,-0.000159449919422774,-0.00231171955584433
0.0592134246212438,-0.0559080417301036,-0.00986081948470022,-0.00336796766144696
0.0342902415806693,-0.0532389242738952,-0.0118143431641577,-0.00356297253290746
0.0125166258029994,-0.0362462245604511,-0.00530631974158184,-0.00271387010403031
0.0116358642988345,-0.023516968202424,0.00195607510705709,-0.00115043032452745
0.0174762811548893,-0.0170999839744852,0.00430618958132658,0.00077042897867038
0.03041264998947,-0.0101161844626274,0.00699463721087073,0.00275635794037804
0.0488396201177666,-0.00816936309927613,0.00741219174900276,0.00409305618678021
0.0637844061781002,-0.0198908006034127,-0.00396523667058915,0.00411043722381125
0.0665971407521661,-0.0346677676109382,-0.0217384926217924,0.00274791907997591
0.0549676886795815,-0.0305754671458097,-0.0242518517009688,0.000791766699311386
0.0303308008594401,-0.00411537571274871,-0.000934387778954979,-0.000532564232225162
-0.0122055415586223,0.0181790140225799,0.0257784318163174,-0.00100711747600376
-0.0590752286027808,0.0253025355689248,0.0291418845303794,-0.00120960139540769
-0.0809816940841099,0.042247916373459,0.0158968222014692,-0.00116029148713537
-0.071505733840779,0.072871829938978,0.00851658275291745,-0.000747940281712288
-0.044895593314442,0.0853331915696348,0.00789573620411028,-0.000205475415372857
-0.00570940024562706,0.0571377042085215,0.00194070325123775,0.000251665165042181
0.0481486128279902,0.00289735386673337,-0.00853113811698289,0.000255641368043885
0.0945347202057566,-0.0418324514653724,-0.018777576362619,-0.000248666147384448
0.0986862916172459,-0.0601630275548188,-0.0279023799721563,-0.000699729657143464
0.0664272479404044,-0.058951976734696,-0.0296732815171523,-0.000672479094726437
0.0344147579175394,-0.0478911411901191,-0.0180040921797612,-0.000245576832685353
0.0152965491835103,-0.0363282756238209,-0.00149615023823288,-0.000215591954750699
0.00580864043243541,-0.0308409787454686,0.00490476177660128,-0.00125406363031462
0.00432613734259241,-0.0282534666144254,-2.92955466834602e-05,-0.00264742394017805
-0.000585630598156443,-0.022838027525451,-0.00685024013405132,-0.00314475745679961
-0.0163189256675665,-0.0141694469086303,-0.00910163465951193,-0.00217059836055896
-0.0317673831093993,-0.00536725861490101,-0.00697800449639352,0.000147758594123374
-0.0325921239368181,0.00566494278084314,-0.00131413870276305,0.00255552475194182
-0.0208462214413017,0.0240878098718337,0.0087219801209987,0.00305015320875096
-0.00899707835968807,0.0408153687985204,0.0210020532902616,0.000904533997461214
-0.00283190426109686,0.0429854862813347,0.0248289375450691,-0.00235039555745345
0.00239621183462333,0.034857340445187,0.0127064165923784,-0.00445303689999753
0.00373241489046327,0.0229014667866688,-0.00620310328347403,-0.00454767632192832
-0.00439049811213698,0.00953645937332751,-0.0185251341787981,-0.00332892523232397
-0.00427625350017758,0.00543156456550704,-0.0172719812091483,-0.00177886903394693
0.012630709168559,0.0174945708292445,-0.00544283691690416,1.70445113080665e-05
0.0305963168163618,0.0283281992132576,0.00178374272105348,0.00288096287550171
0.0388865332627765,0.0228652422968748,-0.00238380421955592,0.00606818694959436
0.0291541236623163,0.0184480325502773,-0.00263411727555725,0.00668226158430148
0.00266886924662911,0.0233437940750875,0.00510693111628503,0.0039570862355491
-0.0103562775933516,0.0211963395668411,0.00326288314071855,0.00101210821479723
0.00363880042208005,0.0105765452902968,-0.00902614299869747,0.000327858976481835
0.0163719976121418,0.0061713591950914,-0.0139491396246448,0.000777631433790414
0.0101555355709265,0.013038416505343,-0.00493467131240048,0.000367534038653632
-0.00114927993270597,0.0201107137756623,0.00718174676226151,-0.00120257104183571
-0.00141423102727415,0.020131619935365,0.0126567414723619,-0.00277618546924179
0.00714078354619259,0.0199402978162475,0.0122617179581149,-0.00305425571962356
0.00948017221315875,0.0183643528522016,0.00548470410552573,-0.00185755437747528
-0.000556077665585518,0.00845196366056254,-0.00739742935042835,-0.000246992620925306
-0.00804114681161511,0.00271860213321072,-0.0162891755223943,0.000473035038014882
-0.00162224960809025,0.0116314823653259,-0.0148067169799601,-7.94497828444801e-07
0.00905462121610261,0.0199374897803486,-0.0107508826995368,-0.000862004206250581
0.0171208400332974,0.0145022044990225,-0.0104636891352836,-0.00107926316921432
0.0249176231625692,0.00433102753113206,-0.0117353627929871,-0.000303029042840819
0.0298998977552199,0.00226353224678553,-0.0116785615940073,0.000957942193861824
0.0295111248584687,0.0049128638702524,-0.00859502304688769,0.00204048947111154
0.0242373077114135,-0.00311864251073931,-0.00460603412690391,0.00269706179893255
0.0181106540946776,-0.0221785416176801,-0.00307289731874524,0.00284975521790315
0.0203653938540238,-0.0339342947148745,-0.00330900883154784,0.00263220974919797
0.0280759068420098,-0.0341306619125878,-0.00289734954290473,0.00254729323179425
0.024187056294671,-0.0298386393671141,-2.91199232461698e-06,0.00257232756640634
0.00959220665309356,-0.019838306912834,0.003806212920916,0.00188427664117852
0.00058645768388875,-0.0116092422453572,0.00201402169333668,-4.50711049024474e-05
-0.000955055415703817,-0.0162661717526724,-0.00551804575563358,-0.00228960921132301
-0.00445459800465309,-0.0246073066729137,-0.0107950517589501,-0.00304234410052302
-0.0109525533472506,-0.0225989607367193,-0.0125798970861641,-0.00193884426709848
-0.0119086905425154,-0.0120285953928162,-0.0155185850411075,-0.000497443001714084
-0.00729158627762821,0.000432209659133515,-0.0177371844533256,-0.000116765268470503
-0.000835157973651196,0.0175527574817859,-0.010318677250997,-0.000663154343046335
0.00171244712450093,0.035538413175264,0.00957158588411393,-0.00101460973922654
0.00187422445836997,0.0391251583459478,0.0252563892370771,-0.000866544345528882
0.0124573620242718,0.028753083587654,0.0228368523342644,-0.000712103815801269
0.0224976220821599,0.0148659450403609,0.0106032072870152,-0.000444124894431626
0.0171196508526636,-0.00223533707587855,-0.00163367088494095,0.000156022668336265
0.00749927949841923,-0.0221071875196792,-0.0084640317794247,0.000691360030475935
0.00583790979504679,-0.0371071396249462,-0.00936024074173218,0.000728727444726836
0.00988537802621328,-0.0429509922384263,-0.0104203620708382,8.57453690970356e-06
0.0151982905245503,-0.0420755649400221,-0.0115694923438873,-0.00142087389171654
0.0215887513895939,-0.0386826135545524,-0.00614802388056268,-0.00288205770112659
0.0269694255134217,-0.039629485913034,0.00369909732079104,-0.00369505553748892
0.0260577640341784,-0.0481492678169162,0.00611787960992951,-0.00389943281284165
0.0159392788053657,-0.0616204343155474,-0.00342212213950474,-0.00379881618394766
0.0036433561392463,-0.0715031399307658,-0.0167902523606905,-0.00321746709761227
-0.000740177027095862,-0.0719545694492013,-0.0253450074716723,-0.00188126296877609
0.000107180810993892,-0.0691508532578605,-0.0286292075647189,-0.000371759490802876
-0.000427694595138825,-0.0621399196826906,-0.028997006382705,0.00039776257113645
-0.00106359859706747,-0.0460888905721391,-0.024081314171198,0.000465661714876246
-0.000403702109563416,-0.02125574639624,-0.00931216745126175,0.00010620456582475
-0.0040320283166885,0.0105365508314422,0.0115921900594998,-0.000996448920167823
-0.0131424748001208,0.037705683910481,0.027589942217391,-0.00298335966244071
-0.0151196980214706,0.0544442775911606,0.0337899329945782,-0.00497972631933364
-0.00283891773146133,0.066548228615335,0.0368210990885919,-0.00546281058775999
0.013032680709374,0.0693732299826404,0.0343208991041474,-0.00374989933901636
0.0180540238807149,0.0601701327463905,0.0170239065177075,-0.000806205204413654
0.00972305528009194,0.0507733610723004,-0.00110647051327547,0.00168128427510691
0.00195701522365995,0.0420813714048141,-0.00539859744479396,0.00282205467575795
0.00327182252341457,0.0208958401893126,-0.00658056185665622,0.00277242393068292
0.00457648178410499,-0.00986024157533603,-0.0133542249779523,0.00223794407126954
0.00136019131763527,-0.0330747701153966,-0.0179207168218581,0.00182043604702597
-0.000298938686090208,-0.0392139995490906,-0.0147465575854123,0.00151303920031161
0.00226676254236631,-0.0324983857080911,-0.00936860224524298,0.000977552435248544
0.0057485947919977,-0.0232889910810811,-0.00871062981896766,9.82441518072022e-05
0.00412337174416371,-0.0117225152540043,-0.010326376087483,-0.000757997559978439
-0.00223762727799378,0.00570278740283038,-0.00628161793557218,-0.00123621229697546
-0.0106480081956658,0.0207827846779658,0.00166315665207532,-0.0015348681011978
-0.0229110190777371,0.0265742950125097,0.00119510073676878,-0.00183265126765277
-0.0293169539038674,0.0278417377211429,-0.0101909264283494,-0.00195158922191265
-0.0192997636255374,0.0208167036498325,-0.0216464203335523,-0.0019898981363746
0.000312541223434257,-0.000678878336526495,-0.0264539166020733,-0.00200588393039866
0.0172589009126313,-0.0240936237247175,-0.0264296347411016,-0.00151539194716415
0.0225689032143724,-0.0350491401129289,-0.0242761472606133,-0.000611087255738488
0.0145434171783309,-0.0258168657545059,-0.0144280799708946,-0.000362718581348732
-0.00241881432403207,0.00587446414706591,0.0141169920945149,-0.00132910261157545
-0.0231782906889771,0.0540416345634426,0.0588180596310041,-0.00290191264928119
-0.031864628088761,0.0983428605977665,0.0871157643013545,-0.00430301141509591
-0.0194172160442538,0.0961880930620207,0.0622730833406015,-0.00490653327032611
-0.00697363830379618,0.0443846438894015,0.00572729561582067,-0.00333886712012658
-0.0101563529888443,0.00626316797741368,-0.0296873203014905,0.00154792289097569
-0.0169695454324175,0.0111982963047737,-0.0364131329382091,0.0084377651624343
-0.0190535465724791,0.0291328671448542,-0.0313613340136767,0.0138687394814702
-0.0233365968989144,0.0357560084599055,-0.0220786991861035,0.0152841436884818
-0.037223808035973,0.0290219321266902,-0.0146100575865368,0.0125392789811949
-0.0533009911488939,0.0200079731173315,-0.0120045349366159,0.00678434555618917
-0.0557167338257354,0.0142727762978485,-0.0127264911823137,0.000359951319865567
-0.041748692846017,0.0108899911527452,-0.0155711487675237,-0.00419437572889753
-0.0260661769746694,0.00978251553922336,-0.0157161147290269,-0.00608732168947492
-0.0234342790770776,0.00403840031854807,-0.0142904563464401,-0.00609636886584294
-0.0264053609208016,-0.00756318482445112,-0.0236308715523032,-0.00523491414254306
-0.0152488824021883,-0.018318816558981,-0.0355978341531516,-0.00402965327993049
0.0069009423391509,-0.021721143579718,-0.0321899331744523,-0.00286028571123338
0.0130146092021627,-0.00788071350008876,-0.0160030447129398,-0.00209681926609206
-0.00905719406054557,0.018649889617168,0.00214837095061651,-0.00189068834366169
-0.0292110736314663,0.0393916281280026,0.0178635134434983,-0.00194540506910831
-0.0152663562694551,0.0475916341369332,0.0225520415817655,-0.00179179775312666
0.00528919911805462,0.0451449378488465,0.0078426476478778,-0.00119107226109739
-0.00374850972226334,0.0317209611533028,-0.00734430024333336,1.99380619416807e-05
-0.0247681275012737,0.0104478004972826,-0.00504586455182691,0.00208887109740482
-0.00733169033255037,-0.0104343050083979,0.00466791335881651,0.00482421383787069
0.0446949160569273,-0.0218345786291891,0.0106234505331566,0.0065799925927148
0.0521914752638201,-0.015339468214149,0.0153512801691529,0.00581658289503748
0.000167181152894443,-0.00750589998755438,0.0164604324360136,0.00340054939979759
-0.0502811812296527,-0.0228169017995661,0.00649811342069876,0.00148164837465103
-0.0665117618807331,-0.0411730683409788,-0.00357992583663513,0.00115339225982387
-0.0549167420734886,-0.0344880444722263,-0.000605180850049569,0.00151905212948632
-0.0330828504400764,-0.0161761650833116,0.00874344614979983,0.00104387927830203
-0.0143995141940652,-0.0102963653378783,0.0140729491643047,-0.000588188070137168
0.00340092112075232,-0.0188435322735097,0.0109692097137697,-0.00301564137894314
0.0290180887278552,-0.0268843976395105,-0.00194427079687949,-0.00577892167841052
0.0402558353759536,-0.0268509340922817,-0.021231181351843,-0.00746222169970772
0.0193918090037776,-0.0233183791258097,-0.0318410448904502,-0.00659383049567787
-0.00537220836345165,-0.0124608983279176,-0.0143727651744405,-0.00319770538715057
-0.00877406948498972,0.00481623934252828,0.0192934462860728,0.00150623812652261
0.00354404316821988,0.00976627580044127,0.0358451512118242,0.00557446163994608
0.0163461507206857,-0.00116700783741882,0.028192454827235,0.00686873872892872
0.0162442971434463,-0.0109984731220601,0.0141056797872275,0.00492938483431562
0.00201175957230586,-0.0117950841065713,0.00660439894649349,0.00176943062935365
-0.00904798947442592,-0.00873620201185112,0.00286690829740306,-0.000337192180893098
-0.0110357550644534,-0.00549106236195455,-0.00263688073798333,-0.000895619733098379
-0.00902639541250681,0.00715781459658813,-0.00638589055418824,-0.000834740552887121
-0.00106889866129379,0.0338552162956191,-0.00148028656486574,-0.00151609918980628
0.00739710865387974,0.0589451059484067,0.0139635937755976,-0.00360336147505178
0.00857277637773912,0.0646316456049573,0.0281354003660996,-0.0059953014126608
0.00924568840889464,0.0473768042514705,0.026065096757447,-0.006712572414039
0.0168118834785259,0.0204223331656388,0.0138495256964327,-0.00488813732713539
0.0236200018364442,-0.000755461627814535,0.00962263068384615,-0.00195433444634733
0.0181787556662784,-0.0147258888766476,0.0146646215754394,-0.000118394302691777
-0.00300553516659624,-0.025767556636227,0.017545109462192,0.000385669521473323
-0.0290063965193583,-0.0331337542309018,0.0112746977825131,0.000857672707593897
-0.0418668645993144,-0.034046311397986,-0.00199443510468636,0.00203132257943724
-0.0392970115798217,-0.0284799225123464,-0.00819182262591443,0.00344712095198589
-0.0298184087925232,-0.0204416801967959,-0.000410007591543648,0.00413080181264068
-0.0148541378150062,-0.010607972293317,0.0110506616635364,0.00321300366730931
0.00836016711896567,-0.00237425061976032,0.0163033154605481,0.000811995317629086
0.0314654353445412,-0.00310988585785899,0.0115339447646517,-0.00140613721874906
0.0331339658669445,-0.0043502218829439,0.00128348251915962,-0.00211978050420884
0.014153374229227,0.00323666941918365,-0.00459876661622391,-0.00165174458480804
-0.00211655573109041,0.0103429724292068,-0.00431414254716291,-0.00075858617969246
-0.00773454984426698,0.00948843716408767,-0.00193025424589908,0.000170158013971468
-0.00353612589324707,0.0084646738875704,-0.000731373582258915,0.000893652789329006
0.00992313131688789,0.0189136837746245,0.000863765191569983,0.00117178227112846
0.013366523734998,0.0387319871350453,0.00662437216329314,0.000874192063181921
-0.00543656920973398,0.0563014734586602,0.0134711180819071,0.000228125687093971
-0.0218786074946393,0.0656650877815729,0.0149874505512918,-0.000507372561627449
-0.023987684616718,0.0633009241768654,0.0067455164491222,-0.00109420623822846
-0.0276505822649272,0.046682416943442,-0.00640619340634786,-0.00110312933455905
-0.0409336263677929,0.0185667264608316,-0.0142829815790068,-0.000675101729245954
-0.0551790439350583,-0.00990383144292754,-0.0155515105846671,-0.000379327315579691
-0.054756014811224,-0.0296891774253736,-0.0147907039309831,-0.000359371461681508
-0.0423566399070505,-0.0377406378490182,-0.0147059760630948,-0.000246889381053345
-0.0268701192394553,-0.0309974667900122,-0.016020670526761,0.000373196513632291
-0.00611830615142704,-0.0143163251768951,-0.0160956368467903,0.00127224825102783
0.0135546940932444,0.0016732599022246,-0.00947564179840181,0.00175086706056749
0.0219999748558799,0.0102337051627224,-0.0038947259767457,0.00157315357649786
0.0259202338140685,0.0136609528794316,-0.00848775795436992,0.00120642636443568
0.0308993887671008,0.0216829993667721,-0.00981464153483958,0.00106437480101136
0.0247619341556014,0.0362655352973229,0.00232561047482092,0.000558354841841846
-0.00632171590591959,0.0417624581769658,0.0171684833651084,-0.00121724083655427
-0.0545369367333062,0.0312265310063547,0.0209258953692106,-0.00354734055822147
-0.0884653661100033,0.0196581327495575,0.016020546521292,-0.00470245167483245
-0.0923345954156293,0.0135239605345218,0.0156630116267222,-0.00407254000265475
-0.0770957179968805,0.0055178225551201,0.0164416488318275,-0.00200468414935346
-0.0470746275578128,-0.00994994839639301,0.0105512941386706,0.000697690394529885
-0.00289361963478436,-0.0309789633252864,0.00386994201828691,0.0026146486655212
0.0450845681447139,-0.0444869232606345,-0.00261867311154713,0.00290554005726181
0.0861321591112154,-0.0423196567746902,-0.0104933185145337,0.00190993123486485
0.0985077930793198,-0.0311144976749494,-0.013790278672856,0.0004327862963189
0.077656462212178,-0.0195766818700332,-0.0129773586089279,-0.000375657728812857
0.0473488410745921,-0.0156014654174607,-0.0133285338950596,0.000515991624116865
0.022393251556458,-0.0185520175361268,-0.0161904824967946,0.00257098479109799
0.016152678807618,-0.013731636500006,-0.0196387967959046,0.00393534381236475
0.0227326446459906,0.00400028521460537,-0.0129222869125348,0.00355221114784254
0.0156354149802565,0.0189814788790036,0.00797484876873867,0.00168820194765565
-0.00912032323391095,0.0160574089583713,0.0237802885207363,-0.000942874634670477
-0.0285698842862921,0.00320846454993465,0.0198118448325416,-0.0032910559359869
-0.0246967619704101,0.00290108703883791,0.00966182105666504,-0.00441008753269544
-0.00593558461786439,0.0172183220000928,0.0113556594640893,-0.00409161512535551
0.0114675385566973,0.0277136507951309,0.0205759663230334,-0.00275690816996892
0.0162686177393911,0.0199916460037529,0.0180593941946411,-0.00123599900319213
0.0111207390029004,-0.00634221818791453,-0.00204233999710013,-0.000364545050404686
0.0127960523123684,-0.0347323303718866,-0.0211725980247364,-0.000507794453751047
0.0245386791480453,-0.0487447375924476,-0.0250647225867607,-0.00128597570443015
0.0331934930735791,-0.048242016010271,-0.0201657622355445,-0.00194548956641034
0.0320275424488373,-0.0385697678810937,-0.0139889471459587,-0.00205795219184197
0.0263765204243904,-0.0282175643793664,-0.0109765288843932,-0.00167093575977646
0.0210497814261523,-0.0265264104822495,-0.0101093768533049,-0.000872999335395897
0.0140804385285858,-0.0239258832957998,0.00179419154194517,8.61961428507982e-05
0.00768868542227264,-0.0102119083763445,0.0211654137789763,0.000763526957977699
0.0103098426497817,-0.00392982047396173,0.0226120381214591,0.00123349941715575
0.0229737856722436,-0.0147465077455977,0.00463835483438393,0.00176684297923264
0.0363948708033549,-0.0189096141365818,-0.0079844088811102,0.00210700316400937
0.0378258741535174,-0.00898730774568203,-0.00446128724846775,0.00192537330605014
0.0287583491199421,-0.00392297369464096,0.00338963456960966,0.00177091480672618
0.0215035413617064,-0.0103332326498185,-8.32369658896465e-05,0.00269624125861697
0.0172929973363464,-0.0192347561852543,-0.0140326835547924,0.00461866680043887
0.0144242367773706,-0.02314734793233,-0.0218397088596454,0.00605703873040861
0.013261693591679,-0.023747155500176,-0.017056131557457,0.00602682722171719
0.0158823343278286,-0.0240084160236649,-0.00986061992867646,0.00485571545741266
0.0253521435818363,-0.0244099295239542,-0.00830777880802212,0.00302175393613993
0.0318847902921048,-0.0291837544692477,-0.0117653869703362,0.00064153288761495
0.0263767296202795,-0.0283516278620655,-0.0119804842359158,-0.00198432923086505
0.0151065499124818,-0.0104786936737244,-0.000950628750909734,-0.0041574146844284
0.00315496979028867,0.00370073276702591,0.0133935565450587,-0.00526051587096026
-0.0141998646788677,-0.00492507132226661,0.0154103849829317,-0.00511365496187595
-0.0340259842072749,-0.027708689812053,0.00550179702543284,-0.00431964328830923
-0.0437086904796476,-0.0504710401874425,-0.00490753385046977,-0.00357430570297258
-0.0424171212461893,-0.0622874271315703,-0.0111405591673662,-0.00259103524699743
-0.0430646549827892,-0.057286054444015,-0.0113108026234044,-0.000930784261017278
-0.0519143140719429,-0.0420425752822697,-0.00484797030992976,0.000972843545290776
-0.0518540788683086,-0.0274138079554668,0.00175544408394708,0.00207500266543001
-0.0255313161467477,-0.0156243759109221,0.00662131419655872,0.00173219872930452
0.00319437132698336,-0.00714271516646399,0.012514057023133,0.000435031594627474
0.00715049257626735,-0.00765283233062988,0.0136957297142188,-0.000457560061877448
0.00626391189336838,-0.0152802307695004,0.00736342404187523,0.000422644976309627
0.0220212067382238,-0.0217879666430387,-4.9908086857741e-05,0.00315177712131323
0.0429551116911656,-0.0220990536046148,-0.00352581178168711,0.00611586741800737
0.054619703901593,-0.0137982959162428,-0.00212836249026779,0.00774935850396305
0.0537696355714443,-6.87427893565316e-05,0.00167980779196698,0.00786556515426199
0.0365503591278469,0.0170833355776683,0.00204540807309579,0.00676672672454296
0.00940913411515414,0.0376480374876938,-0.00486500256901177,0.00460028517248511
-0.00727593731059202,0.055409785734464,-0.0163489503356832,0.00198370916007123
-0.00645229209675983,0.0632399783375619,-0.0246066008562709,-0.000228572358925457
-0.00237696324246719,0.0554975487289837,-0.0221257374964032,-0.00215710440329408
-0.00809704008782018,0.0305482164284376,-0.00977410711464941,-0.00430070043741862
-0.0205059064502928,0.00310675068642474,0.00235767225779757,-0.00596052602144354
-0.0290666638654441,-0.00696445924066411,0.00841065976075337,-0.00625067544116316
-0.0290891538692674,-0.00360683136667152,0.0149875963700451,-0.00569922100356201
-0.0242376270762889,-0.00333098946775939,0.0280221497381982,-0.00537900120518333
-0.0227328815853583,-0.0123638754630187,0.0347098440011717,-0.00531381998137281
-0.020644766324991,-0.0226916289620964,0.0229458354808762,-0.00451276578945289
-0.00619242804542825,-0.018316550947962,0.00834148437187828,-0.00213328177423444
0.00876226308498957,-0.00387405524680923,0.00358884256697925,0.0016196009586517
0.0128073922054247,-0.00248772149557856,-0.00230811977087973,0.00592399992713156
0.0133905347826053,-0.0183040641726814,-0.0165403075056741,0.0097714843959044
0.0143203293850242,-0.0312144295926944,-0.0307000079547666,0.0119579570659222
0.0175252709214366,-0.0238615150685808,-0.0353727851111866,0.0117981772425772
0.021188966755477,0.000139734628323153,-0.0289211955374023,0.00953452306826959
0.0189442183461709,0.0248882275847142,-0.0154320599829233,0.00581226821257706
0.0142849040767548,0.0408647732863826,-0.00577857169040395,0.00135436572474196
0.0179397095229037,0.0504019516243801,-0.00765451754246579,-0.00258643695839756
0.029070993668121,0.0551628205433079,-0.0121342454705762,-0.00476877632580969
0.0384357158301245,0.0552754415454367,-0.00976617036955668,-0.00518989905598503
0.0397073227643029,0.0539973878566413,-0.00357068182432847,-0.00488121085439862
0.0303469841247736,0.0498806567989731,-0.00123992509756712,-0.00420795625598763
0.0175380419607022,0.0383337564476616,-0.0037736528101347,-0.00264573032485937
0.0103256645559916,0.0200216938524374,-0.00199572825185062,-0.000415867377732885
0.00741456805873341,0.00286914698677847,0.00525797956802378,0.00133866527403171
-0.00324704134735058,-0.00716390175824936,0.00790631235712105,0.00186658110127779
-0.0310432833549414,-0.00856093762174904,0.00334639076485731,0.00161570978376797
-0.0616236479772778,-0.00663745168551516,-0.00129840023687993,0.00134128887034478
-0.0681165369486258,-0.005263358499615,-0.00411197218587236,0.00108243690549497
-0.0465989987370717,0.00239204934213387,-0.0110049972721603,0.000725747705302172
-0.0156015520679937,0.00947590195443071,-0.0210696231960777,0.000606715416263872
0.0117104832018219,0.000939257421620423,-0.02752927082736,0.00119482668321123
0.0390151928165166,-0.0155596049088836,-0.0253575244809859,0.00272697050350857
0.0572322138487896,-0.0223581585759553,-0.012821965089406,0.00471507843073933
0.0368124629966289,-0.0241306359286899,0.000630387961204161,0.00596418368846234
-0.0113362053002983,-0.0333936249544311,0.00452498921553472,0.00576674303829441
-0.0463666225153773,-0.0455630987613527,-0.00116369963520183,0.00416683661342576
-0.0491674167928177,-0.0471653555517463,-0.0119639341399456,0.00172888508286495
-0.0229046284022651,-0.0281792012074066,-0.0154735517676127,-0.00044944299893671
0.00127863093554308,-0.00192110521432804,-0.00550442255300129,-0.00163209296528922
0.00127031944358822,0.0112318087245201,0.00289872189961158,-0.00197774350851317
-0.00214347894159948,0.0180837323509396,0.00322648157682145,-0.00241584958381504
0.0026046115581489,0.0318889438553745,0.00558671279300365,-0.00359447264160405
-0.000980993089884564,0.0427949574753954,0.00419029683928812,-0.00469127280964423
-0.0123035158820298,0.0412539228353962,-0.00747047435583438,-0.00430807971910083
-0.0140063973365372,0.0428565715386172,-0.00738629142425598,-0.00250017176971358
-0.00754762769242388,0.0561030145036247,0.0160977094178381,-0.000748824533523406
-0.003460529875142,0.0630572012266488,0.0335441518810079,5.45334240637744e-06
-0.0021503845707207,0.0460139088221098,0.0197691950519555,0.000132866079525933
-0.00317456184630303,0.0106527435609665,-0.00847676640021013,0.000553730149723602
-0.00186530541123097,-0.0244184657265962,-0.0284181787786743,0.00151388805801032
0.00749538207748262,-0.0545179528915444,-0.0399787655889901,0.00237882752605177
0.0110579197502348,-0.0791026814197888,-0.0405983058668423,0.0026305236358056
-0.016815655740689,-0.0853688794724544,-0.0296417393934381,0.00206697906134856
-0.0673492297268274,-0.0759749497498779,-0.0247522850727339,0.000274653826761595
-0.0924167951702429,-0.0715818420603489,-0.0323489426639247,-0.00280301497736601
-0.0811237145924434,-0.0640425975078031,-0.0225869373022299,-0.00561778541594966
-0.0682526630372403,-0.0245230794992665,0.0363847448503042,-0.00562482947757218
-0.0601500479322797,0.0258959266398158,0.102912169561335,-0.0024613871015637
-0.0221791858043611,0.0294792171419277,0.0983144411110883,0.000428900705541925
0.0703941032815009,-0.00876170759785697,0.0325746412696774,-0.000751017187955479
0.13965996976721,-0.0303186408360577,-0.0165800219513415,-0.0049098976987663
0.0966675760551362,-0.0141849702435283,-0.0196497720583754,-0.00671190782902576
0.0170536912491839,0.0194335486726748,-0.00247388329247153,-0.00359027421867237
-0.00695007469769023,0.0490377114936317,0.0122009401057948,0.00123785731120367
0.00598580943277889,0.0656438402702368,0.0158355218010363,0.00352782261235416
0.0200277823563381,0.0755650556166632,0.0082639886696787,0.00280164778583551
0.0192356362870586,0.0887228846332745,-0.00274060421831209,0.00131920973632385
0.00083782017623929,0.0988972236263429,-0.00894066912663145,0.000282374178864048
-0.0191264455664018,0.0886030676536935,-0.00477336541701335,-0.000747395403713023
-0.0236292934951405,0.0543059356747313,0.00455395612828402,-0.00202306804977603
-0.0130024900348548,0.0185149234879219,0.00736342812495462,-0.00293970391892508
-0.000753705541563709,0.000306735909414185,0.00159728156531795,-0.00309962724547356
0.00481847347409116,-0.00795074378217307,-0.00646630430856445,-0.00280827844445216
0.0100659940971609,-0.0165208548013297,-0.0137324264505727,-0.00230565690485789
0.0211152452501228,-0.0247176590531885,-0.0183579742975754,-0.00168396340197998
0.0345079082912981,-0.0264778422222257,-0.0144497396347359,-0.00102227337963411
0.0425720049453071,-0.0230855547121994,-0.00551301305428272,-0.000813514530757857
0.039841976059791,-0.0252262430462255,-0.0015333742585325,-0.0014666043563993
0.0297452373177733,-0.0316668203529852,-0.00183077302922071,-0.00226439693455826
0.0197430605237531,-0.0303322144962038,-0.00221863268655217,-0.00244579642591648
0.00826994967064126,-0.0177594174786554,-0.00195864891324628,-0.00213371947644721
-0.010422056796354,-0.00231840522658486,0.00354902633711793,-0.00187057170889064
-0.0345999619121453,0.00958715354994603,0.0161685718352652,-0.0020611879764038
-0.0521244770136951,0.0209934849639934,0.0261377090118362,-0.00263924018469026
-0.0538289366540126,0.0324330351237488,0.0249552746719235,-0.00306535427847948
-0.0497209721544563,0.0389650336608479,0.016701506895343,-0.0028776362871077
-0.049501000636393,0.0417184995530906,0.0083945916241833,-0.00210279191867899
-0.0440462238331563,0.0461482304539279,0.00429614461226763,-0.000765009313181245
-0.0255699348048075,0.050626300557213,0.00485771322986488,0.000860656001536735
0.00549778915721932,0.0488018518016428,0.00414564416764268,0.00164798668020198
0.0385207614393963,0.0402492350116185,0.000760250452074692,0.000953405262298586
0.0564338809678943,0.0323019463699689,0.000673455784581948,-0.000371018406592343
0.0565958216619724,0.0273769681102143,0.00308044599875708,-0.00117173946320002
0.04154671892585,0.0232086343395954,0.00344910947687966,-0.00113697837033607
0.0255993821485103,0.0232011408120045,0.00210093444611081,-0.000742006594859446
0.0282572138129968,0.0227209445317992,-0.00241550787652613,-0.000601802831698702
0.0376832273670395,0.0144490327517256,-0.0102212995926175,-0.000693681158407102
0.0325199730673525,0.00774372329358406,-0.0138450650492388,-0.000715057700320384
0.00846963745264188,0.00590924364031243,-0.0100571781089257,-0.000997568646453218
-0.0216619038353837,0.00230292122431362,-0.00347452185517914,-0.00186731048175864
-0.0395708480038484,-0.000731228900575536,0.00526270795721232,-0.00308765722110663
-0.0428293254021452,-0.000542355751798486,0.0178696865704587,-0.00437367341316668
-0.0348504334942193,0.00240143931656605,0.028448047312346,-0.00533354463484807
-0.0204535738303138,0.00479488505991328,0.027057489832389,-0.00557881073692071
-0.0119355120223177,0.00237395472059536,0.0151481792033693,-0.00489868904814093
-0.0147780062934561,-0.00561767582396292,0.00186019220351246,-0.00329462023020162
-0.0238326619655051,-0.016357447444608,-0.00719994340460689,-0.00123960197905046
-0.0328364921648966,-0.0238092889914657,-0.00949827134190675,0.00082474634987838
-0.0363751147887952,-0.0235638877998329,-0.00647435138904632,0.00261865386412764
-0.0383449326110653,-0.0181011482145514,-0.00366442760492268,0.00368004157387334
-0.0422286817966139,-0.0157931810873278,-0.00369096010793093,0.00337122955748593
-0.0385252126200539,-0.0199374022595683,-0.00389175748861157,0.00186216405063532
-0.0228069613554203,-0.0184964946956232,0.00180121420795368,0.000652215591165454
-0.00227623949871945,-0.00319998691917934,0.0186918353325831,0.000459548326383727
0.00286134018307924,0.00917482222926024,0.0345784326632356,0.000415672613684234
-0.014685811785324,0.00128461489525089,0.0313347832954241,-0.000116741737102296
-0.0288281274314168,-0.0195155622323195,0.0132315329113606,-0.000764537824710836
-0.0280427277423663,-0.0319011628395071,-0.00362292334205017,-0.00107037783985095
-0.0339248091710544,-0.0300534504072026,-0.00872910327765725,-0.000893641318521797
-0.0456963365730756,-0.0227547258555326,0.000941757987565567,0.000100397551867029
-0.0408799118493693,-0.0132471286944555,0.0169840142865011,0.00173835006147811
-0.0217489627287561,-0.0051595453789967,0.0219727940710063,0.00269088856027967
0.0049986752785859,-0.00505284632940284,0.00549818111585052,0.00176564425623832
0.0326864090372455,-0.00959210078585517,-0.0163477012796601,-0.000350186565798456
0.0422401796075275,-0.00683568140571773,-0.0193000478656916,-0.00192208208910171
0.0373179953940025,0.00347587338013322,-0.00578574377895965,-0.00253521983697418
0.0332172876482127,0.00900727176250715,0.00641189764894188,-0.00278828270031764
0.0214223493726077,0.00541653996161536,0.00782811967466094,-0.00276364402689479
0.00796806002233431,-0.00423247412058822,0.00126032899053606,-0.00179741126059705
0.0135528765453341,-0.0202877394806696,-0.0046352710381633,0.000509742207857318
0.0183716630765569,-0.0403614108755769,-0.00578070251880573,0.0032197271405217
0.00210592039255698,-0.0570191781124833,-0.00569332419722907,0.00500920078554194
-0.0138044558711355,-0.0644338324350244,-0.00981334475889285,0.00574017229552655
-0.0111207463646205,-0.0620396437424932,-0.0149383120326436,0.0059742082961985
0.00099624658079242,-0.0550184082948504,-0.0108408824442657,0.00577524887896498
0.00510840732819316,-0.0507524273048445,-0.00123088598440332,0.00459249066568176
-0.0023676950457833,-0.0494223219555159,0.000484690193372078,0.0024466878680697
-0.011111233340024,-0.0433361617172463,-0.000900816992065553,0.000440122896063316
-0.0185244265536368,-0.0283921991183707,0.00663512895883005,-0.000432305231295476
-0.0247761512579358,-0.0062555138094707,0.0166207626841009,-2.68140697799195e-05
-0.0203417925915754,0.0163968930448729,0.0163140256488465,0.000773220707511274
-0.00594014128210636,0.0298668764141548,0.0045863318255394,0.000853939331412834
-0.000164004307873401,0.036249971260956,-0.0108487376896295,0.000278607814413012
-0.0057889893019542,0.0440721096179152,-0.0210228616874577,6.74861377015014e-05
-0.00397781356048252,0.0500645046685464,-0.0213799689063256,0.000573098654578093
0.00807310174787974,0.0481588589842274,-0.0111468492758833,0.000938916382650338
0.0201485830791142,0.033700159493318,0.0022681637959721,0.000782359543795133
0.0308972239926857,0.00296120799460939,0.00345509451912458,0.000966968851323142
0.0386983804291881,-0.0309749670074507,-0.00795978197030842,0.00191140367079272
0.0410341905668228,-0.0466718133360121,-0.0210064977960478,0.00286141512286929
0.0424251580791602,-0.0388455632387519,-0.024669730968607,0.00332422878815945
0.0399198440794951,-0.0201086043889122,-0.00984825079806298,0.00357387541323851
0.0249498609200698,-0.00683735521440233,0.00438532666855434,0.00357309822003029
0.00776689275833779,-0.00550784891011229,-0.00301894346266458,0.00301160348984613
0.00156232885750267,-0.00605979843171702,-0.0136894561213089,0.00208701832564177
0.00300056346923548,0.00311070042405083,-0.0132854094085507,0.000929291600970674
0.00527045149752422,0.0116517237232153,-0.0130763927042516,-0.000516268532502425
0.00505879403288371,0.00710510315974476,-0.0109150231700931,-0.00171975502424588
0.000874925052014633,0.00138968333962208,-0.00217375995450834,-0.00229852695700155
-0.012035446211849,0.00527390941453854,0.00347382892553703,-0.00244754017455749
-0.0286750399772168,0.00750584938875549,0.00495328754211389,-0.00215932984857582
-0.0253573224532537,0.00412899008540995,0.00667023078573974,-0.00117737505019759
-0.00382077168828004,0.0127850630903585,0.00636481954272416,0.000273617365914808
-0.00167225379397215,0.0366100505913831,0.00281141828197569,0.00147433954982688
-0.0372130995660309,0.0571891671571908,0.000436913749776557,0.00215129550108584
-0.0835616879860918,0.063015807418149,-0.000218389024818437,0.00266568492886204
-0.0976211941129207,0.0506453335927559,-0.000142643452909416,0.00318618571799156
-0.0764460118818905,0.0211143329474756,0.000288375792849311,0.00293669728123218
-0.053849714641062,-0.0139578502955632,-0.00178666689115484,0.00113165697261748
-0.0344218739722332,-0.0344628737256912,-0.00260729243737953,-0.00149624679184294
0.00202053447004164,-0.0312382756628144,-0.000821116733741908,-0.00341347311389522
0.0520592882871462,-0.0167310152215915,-0.00333315583917604,-0.00399620067329688
0.0763214669980802,-0.00309673510719079,-0.00904572101469566,-0.00346457186698571
0.0498821202438305,0.00938720717726455,-0.00854171981313051,-0.00205934775044391
0.00558899149214031,0.0252782559264143,-0.00130805851978962,-0.000265308551391358
-0.0265485376469274,0.0390493186228101,0.00595512196288819,0.00128025943072474
-0.0421115384751511,0.0349316148391445,0.0104819330179535,0.00193679987746185
-0.0370234420214848,0.0125095755669365,0.0110439034467878,0.00121702980245083
-0.0191430060283579,-0.012349430793903,0.0074632679783627,-0.000605714633103089
-0.00302552810071449,-0.0230462253355411,0.00466320695410454,-0.00265442509917519
0.00849732514628452,-0.0191600504946711,0.00487960930583453,-0.0041537140734219
0.0143031329301768,-0.0148344096269983,0.00360280403729495,-0.00457475214332814
0.00090191006261859,-0.0147505933199048,0.000497361963408367,-0.00324479498869437
-0.0241461002053869,-0.014989948686217,-0.00149873117626377,3.61894699436698e-06
-0.0325798770681793,-0.0131630964433641,-0.00315612082029098,0.00396001781143491
-0.0175861321507643,-0.0108219080930898,-0.00436902527450246,0.00646052327940421
0.00421719461893425,-0.0138532917602614,-0.00261945010813212,0.00569876862093397
0.0118089354767187,-0.0228579671643247,0.00274780941068261,0.00193575619386632
0.00387949444297909,-0.0266411961052839,0.00997951652452663,-0.00222873301931567
-0.0112936061975507,-0.0208782572167257,0.0147609040775687,-0.00444419710190592
-0.0371431201094765,-0.0156237085239598,0.0121912263190002,-0.00432066586360035
-0.0563061705324567,-0.0165153540785883,0.00378030540817426,-0.00231587975331495
-0.0395769882483127,-0.016465779784522,-0.000616172929674233,0.000630424632927457
-0.00517158468895188,-0.0120694957860232,0.00117012774398842,0.00296738940944256
0.011790484164051,-0.0152897687247353,-0.00169312837600809,0.00399567157589924
0.0184937756781744,-0.0274691525313384,-0.011800173043762,0.00450194349032974
0.0446995466945246,-0.0326763035918105,-0.0192311347990508,0.00471911837372134
0.0849559142811074,-0.026913465097246,-0.0190474790589663,0.00362588154452273
0.0929396511386289,-0.0184071073273611,-0.0149655642964393,0.00109919083367127
0.0584515564722175,-0.0123490233146808,-0.0115732282859935,-0.00152851381176655
0.0220602495491248,-0.0072160362105433,-0.00855697841486555,-0.00295087829181443
0.0108305789764001,-0.00544253354269663,-0.00316652578568609,-0.0027452675368438
0.0188191445002122,-0.0167647772422544,0.00407418504730963,-0.00142208396666777
0.0273845425244591,-0.0325920098494451,0.00962368464447374,4.65633518722422e-05
0.029117179451732,-0.0381426129993443,0.0112906615079304,0.00116236698858179
0.0292946801699458,-0.0409715663585607,0.00887849258944356,0.00193556663965001
0.0325792221258578,-0.0507852928308488,0.00408257057390587,0.00257232305161091
0.0380326877943693,-0.0588568240320211,0.00173313284706535,0.00334037180345743
0.0401615635412204,-0.0564520957734122,-0.000779697805160486,0.0039415035724456
0.032844287911416,-0.0519925286061951,-0.00795468530022929,0.00403253932222066
0.0171993196999064,-0.0490762249708853,-0.013403357231631,0.00407623011931403
0.00465590370741919,-0.0388990603122677,-0.0132248123744691,0.00447743899497327
-0.000381379398928898,-0.0250110204125032,-0.0124911864090369,0.00479115682829036
-0.000851755341761318,-0.0207228813851033,-0.0147980873385362,0.0043165650915808
0.00531676188302922,-0.0216876762209136,-0.0159060006086288,0.00350657577722205
0.0144068416196844,-0.0110584953845083,-0.0113316291266774,0.00369732733587172
0.0204948518192896,0.012843668679988,0.000511341280675121,0.00467594467281657
0.0201723170847946,0.0327933456283394,0.0190640593701567,0.00486945196803888
0.00889697424114101,0.0339076804868714,0.0284322156323546,0.00368613942367693
-0.00203599071784794,0.0313955471699117,0.0183496769449779,0.00169247566713692
0.00183346999745261,0.0481645462843274,0.00491334098221239,-0.000355000280717296
0.0138864972777502,0.073017824584167,0.00161321746116679,-0.00176727902447066
0.0217466612814153,0.0820896774430264,0.00461142794707549,-0.00268241630441962
0.0174225695674579,0.0590748545236085,0.00130946390178894,-0.0041351206162706
0.00169670173566854,0.00461114567074145,-0.0173014555463748,-0.0059704910928846
-0.00966211597538381,-0.0452933580654802,-0.0365684874280623,-0.00643111952135374
-0.00659481135394499,-0.0562460897514809,-0.0300630320362123,-0.00464078030818117
-0.00046697515046417,-0.0335824965879204,-0.00223505981875291,-0.00113426620717285
-0.00310613903709648,0.00100778456975548,0.022864095816296,0.00309165319884612
-0.0129361606154237,0.0298817748327696,0.0344338759201405,0.00620477335386613
-0.03010723664213,0.0372214964446913,0.0264683906510806,0.00687044358407321
-0.0425300146750993,0.0245895647071351,0.00310122661287037,0.00596821568288314
-0.0293216248002465,0.00590872267056952,-0.0154953995398715,0.00544044793759276
-0.00978445036963198,-0.00688162319079016,-0.0176264649501572,0.00583251538932146
-0.0181761798912265,1.84166190294252e-05,-0.0068015008908658,0.00558913363134158
-0.0426121828195966,0.0257009573821307,0.011365380659722,0.00343364956708489
-0.0647784975656274,0.0470005274468112,0.0227515392558631,-0.000288905076511275
-0.0749706833372108,0.047504486314024,0.0169058277218667,-0.00480758178866756
-0.0496214334062697,0.0373675118925198,0.00539721380084026,-0.00899506157566437
-0.0155372257485031,0.0308495833900869,0.00251192305773475,-0.0112728694213253
-0.0106537699628818,0.0333912081465839,0.0111009743625851,-0.0105896694617598
-0.0188597988061258,0.0418923620362006,0.0197788370165769,-0.00725819832793777
-0.0145210711790104,0.0455374037589785,0.0174140503917864,-0.00322087071680333
0.0287888180456111,0.0445170663202198,0.00932372090467543,-0.000626233547628799
0.0766170599835086,0.0453626651485826,0.00401013730437562,-0.000472890446934781
0.060751705370062,0.0446782859565022,0.0015416355424064,-0.00209535302762203
0.00954331407665229,0.0375798561526458,0.000846065530588616,-0.00342615348657332
-0.0223457326483934,0.0312871428109707,0.00344545012884149,-0.00299602294475421
-0.0283092689593859,0.0341502151894541,0.00513579628419246,-0.00123448395790139
-0.0198801754524105,0.0395546543657465,-0.00103933077265959,0.000478073213197295
-0.0108551897219952,0.0336405997611726,-0.0128097358916187,0.00127848426269343
-0.0116055729161015,0.0118715535330917,-0.0226177530061848,0.00103900030519211
-0.0286990388388995,-0.0136686663098039,-0.0274607686840333,0.000183502023876791
-0.0498051492713021,-0.0297118353892705,-0.0286328597101408,-0.000541495488148423
-0.0498971281256637,-0.0344583232889962,-0.0270879151500934,-0.000933135321145857
-0.029532819234366,-0.0292367796066294,-0.0197051650340282,-0.00130249076391419
-0.00850559700568594,-0.0177842029854199,-0.00799871069534947,-0.00192227841678544
0.00755571254121649,-0.00699181008875683,0.00120063340422635,-0.00285883256474167
0.020673718819956,-0.00096982134117448,0.00605919517512706,-0.00375906930398415
0.026787396849196,-0.00481951706060112,0.00465913865761931,-0.00411488598184889
0.0225528774985828,-0.0172047610447174,-0.000794440812167526,-0.00349578534100036
0.0128389794154544,-0.0197264925066637,0.00179246632079204,-0.0019935034599917
0.00211243621089207,-0.00472048873805173,0.0157933476082645,-0.000589136882811123
-0.00428849134824793,0.0168069323579033,0.0272665778836874,-0.000349983168004817
0.00134239797414435,0.0390723228019399,0.0258461658772032,-0.00167978307503742
0.0133197621636529,0.0516987889813349,0.0161315776946572,-0.00429686872026881
0.0233880951267247,0.043893273049256,0.000943995051002226,-0.00706851899370903
0.0261974976332356,0.0311199828088093,-0.0118651510657102,-0.00817975606515681
0.0114601633557469,0.0238747869524309,-0.00848848540407871,-0.0066907506660581
-0.0108579716602599,0.00487167928623755,0.00117615623297179,-0.00386023796347321
-0.020703275085986,-0.0265943628412962,0.00176948543608882,-0.00187009669747213
-0.0178486136012022,-0.0494295509797801,-0.00133910196146822,-0.00160917625422187
-0.00809157946477083,-0.0517918134912353,0.000911451793444373,-0.002057428436728
0.00361106226042463,-0.0358506891603135,0.00745703699799904,-0.00145079395307438
0.0116492228042333,-0.0182555584312567,0.00784155298427901,0.000645840286902861
0.0183958542736222,-0.0137990090826838,-0.00444067465948656,0.0028844903249208
0.026398651104885,-0.0141301912044925,-0.0178484230392208,0.00399708721421805
0.0292577472162963,-0.00685293009652063,-0.0198019390074516,0.00437613828031483
0.0261853106752551,0.00720937284096061,-0.00883461866700663,0.00511954039649819
0.0208196826262502,0.0209578520577416,0.00958554646927581,0.0058335414906199
0.0175693742928798,0.0282054084475004,0.0226939422774574,0.00466681275960212
0.0199511910160816,0.0266591337447793,0.0218530942165363,0.000875136062080421
0.0208192496116959,0.0192471793972726,0.0145189635563795,-0.00385427776521343
0.00972800186852579,0.0140855018706558,0.0115988784015442,-0.00719619755062624
-0.0167855023993148,0.0157930669681892,0.0133629331905581,-0.00819831257236144
-0.0430810450799267,0.0201796563796199,0.0141373009382242,-0.00706173320918082
-0.0455294677131806,0.0226335847829514,0.00963368356562846,-0.0046172567153163
-0.0258198961569073,0.0221692456681229,0.0045847341041738,-0.00221104119276623
-0.0120902706585894,0.0201346058347361,0.00621920604597731,-0.000848673973109835
-0.0182433687922095,0.0236460482022786,0.0158515120232585,-0.000511356575421963
-0.0238771797964641,0.0331039029831326,0.0243398025890478,-0.000212217100491936
-0.0120453368827499,0.0338836448703839,0.0180827381502332,0.000647785995353995
0.0015369246295883,0.0209859631156757,0.00465551811768122,0.00150292161971881
0.00287385983382068,0.00938275007628012,-0.000142416784906769,0.00192278435478371
0.00511585404671739,0.00588640474242835,-0.000335511389693299,0.00222667023879307
0.017030567839431,0.00843117331340001,0.00267205100983408,0.00243105892783063
0.0273368040109511,0.00959781681268179,0.0110592373557933,0.0018617008520369
0.0257920149400528,-0.0072875410371448,0.0100821490555331,0.000246249100885967
0.012808439171772,-0.0308916993336655,-0.00220949702713364,-0.00170529585067414
-0.00365968164779006,-0.0301466841916989,-0.00745094595530679,-0.00271645756823094
-0.0196096674052114,-0.0101649380238673,-0.0024382688464907,-0.00180756523932281
-0.0304466476406855,0.00186521043478181,-0.00229578989012154,0.000895775288644945
-0.022367585673849,0.00288349816387511,-0.012644752767273,0.00390872334161891
0.00225608024181126,0.00868008105131554,-0.0149473399539738,0.00501217680728331
0.0237310476304091,0.0230463016201411,0.00218355341605119,0.0030933033868857
0.0306786310053467,0.0301377052106282,0.0182665070768626,-0.000550728900250814
0.0269703766048813,0.0238118010971279,0.0154679095311784,-0.00291507798241221
0.0200314345667248,0.012834000143017,-0.000640896259447472,-0.00221137143879603
0.0120638824170692,0.000291046123651268,-0.0171349310342578,0.000416132121252099
0.00778287816802634,-0.0104414915907056,-0.025281316162028,0.00298331104190121
0.00891335631460267,-0.0129879241465965,-0.0223785132635239,0.00437260283580865
0.00785125422556224,-0.00892970586289915,-0.00980138041402693,0.00432837163335412
0.00444209711723195,-0.00506091540043838,0.0068277327566528,0.00288059046249827
0.00666428548061224,-0.00226241008812904,0.0151028150966338,0.000187428194238483
0.0156807776383354,-0.0016312466395457,0.00754320718066609,-0.00267950545515594
0.0229581295169328,-0.00825345167232549,-0.0063731796658514,-0.00411909634140765
0.0215219960312155,-0.0150736488048106,-0.0151215205917489,-0.00337765025274821
0.0171352641531685,-0.0139441760842796,-0.0206670497010762,-0.00126862582129356
0.0178785015419305,-0.0110162368335234,-0.0258861670578577,0.000560334982707038
0.0236697409880517,-0.0103509316754294,-0.0281126032133633,0.00114976770322682
0.0273200826424888,-0.00942898217998836,-0.0301029357883267,0.000692348128950147
0.0211443972564787,-0.00469307370538322,-0.0316025020310807,-0.000224625515021193
0.0111984596022524,0.00540095702313258,-0.026063229744566,-0.000869248874699891
0.00380475777921145,0.0104212557429461,-0.0174019393802876,-0.00054069021935651
-0.00661664734241377,-0.0020063516661756,-0.0160303949851716,0.000565006268513034
-0.0161196797100639,-0.022304986232948,-0.0192436269422386,0.0016953046387393
-0.0163914127606988,-0.0312146990045381,-0.0186987674463983,0.00219567350928523
-0.0110291464935937,-0.0284362582443399,-0.013234280149085,0.00162613231155037
-0.00235859158236518,-0.0225990845771891,-0.00603493749217925,0.000366357666872259
0.00875568362613309,-0.022814862368365,-0.00858421421836419,-0.000545808452725122
0.0151104373900653,-0.0350778965987345,-0.0222645954697895,-0.000948338236071042
0.0192445503147529,-0.0377396831762188,-0.0209609117240859,-0.00148880951016517
0.0238573732007507,-0.0113893980351828,0.0120835355777313,-0.00152356469968766
0.0180443449021642,0.0206595825304588,0.0427925816371806,0.00019063586579785
0.0077175634557323,0.0290169266795079,0.0307850621872806,0.00292959080726798
0.00261273609585322,0.0105540817975438,-0.00386874980081107,0.00441350802760239
-0.0120748599950288,-0.0192351393219884,-0.0211049021754208,0.00362400911616078
-0.0362684747000765,-0.0341169584869976,-0.0200695056352435,0.00189196118190121
-0.0456816112831293,-0.0210310360192401,-0.0157056460928301,0.000915972558413908
-0.0447152940524764,-0.000293630028856677,-0.00388401311760308,0.000915415438895814
-0.0564231336139976,0.0019893288310662,0.0137186736880409,0.00106481807910045
-0.0714838875828063,-0.0104755700826503,0.0190136002339937,0.00046688148563508
-0.0629112469546678,-0.0168317380673095,0.0110243123608976,-0.00153851410587553
-0.0287763451679505,-0.00454352343726241,0.00158387595798466,-0.00456776857705978
-0.000431647067317353,0.0182045655248112,-0.00449042879631631,-0.00701096044338543
0.000652723602944605,0.0296075109770572,-0.00874949398837653,-0.00736792116307465
0.000469807640903458,0.0210383593037881,-0.0123204532683626,-0.00552151401638891
0.0267993563733149,0.00604358309542007,-0.0112921097169754,-0.00255544385135314
0.0551678965982959,-0.00414769129794267,-0.00295278773853239,0.000576114774461792
0.0632031313412448,-0.0172087925184277,0.00853622916896877,0.00320645074248221
0.0635564447434933,-0.0340931654525028,0.0173455388116208,0.00455475957007096
0.0584241003289047,-0.0438002575693821,0.0213003345628574,0.00461661596609776
0.0460968100914403,-0.0444720819268283,0.020911864767815,0.00433918054831809
0.0332901760738286,-0.0441066070696866,0.0165005631765551,0.004407487874744
0.0192737226428838,-0.0496330844329224,0.00753667340599366,0.00457615951924672
0.00277955000836472,-0.0560275848877596,-0.00157193115914768,0.0043312873590876
-0.0125709789419778,-0.0586569660819075,-0.00424542619821877,0.00387650066463428
-0.0246545355074287,-0.0597876256262212,-0.00028330936946668,0.0036800481232411
-0.0357313621023824,-0.053441698017964,0.00725839374748253,0.00344827827075223
-0.0473124556940912,-0.0382465334826916,0.0146910140544015,0.00255458034736316
-0.0566208142301295,-0.0248714496504091,0.0165636769491146,0.00116458492856007
-0.0593609823962033,-0.016125971348496,0.0128227925750621,0.000215454116415137
-0.0518976972206322,-0.00716566261565398,0.00943508706308925,0.000282697847489858
-0.040522906222973,0.00852430957389756,0.0128333779488518,0.000637094362500869
-0.0280455265147101,0.0301329283931109,0.0201411307542733,-0.000118566511748276
-9.7199013181358e-05,0.0349116035992503,0.0165859539443399,-0.00220688528592429
0.041173976295282,0.0106161282588512,0.00308612326178071,-0.00428751236184853
0.0647271938257755,-0.0100973374831745,0.000660699183822219,-0.00475432091529218
0.0597005218881686,0.00179716821278054,0.0175066286264234,-0.00319295663618718
0.046627626160843,0.0218600983185314,0.0322950170045659,-0.000576310611995722
0.0425998795113767,0.0147747593662482,0.0249222574886979,0.00170633229618552
0.0468938693915972,-0.0173537058631057,0.00768191642231613,0.00264803249456765
0.0370212318374808,-0.0448794546176052,0.000344193533481592,0.00266626064034976
0.00565276263690398,-0.0459431497586148,0.00413741450618129,0.00332208339092745
-0.0117026959594764,-0.0219730812362873,0.00718022562903008,0.00529805864673468
-0.000145990339382319,0.00788028240986436,0.000929731788460512,0.00748475325806284
0.0117652122928409,0.0233010494769365,-0.00633133577588633,0.00833218525244581
0.00411046031503711,0.0309716746814654,-0.00343093979433813,0.00741816946559839
-0.0289771737596672,0.0507155833703974,0.00660940837197891,0.00540650325800068
-0.0716537863951615,0.0733253029706876,0.0125727310632248,0.00311303722473768
-0.0909589148508201,0.0729670129849438,0.00919821361673483,0.001121624077414
-0.0865143974165786,0.049189192070689,0.00270917199181576,-0.000216043234226459
-0.0743659927012588,0.0159663671710037,-0.00297494356724314,-0.000927582978832004
-0.0513084243709859,-0.012093932064485,-0.0114219418088432,-0.00118544440826773
-0.00903415846299339,-0.0222878848197885,-0.0196772842331416,-0.00149476214837414
0.0440935418558735,-0.019680285566761,-0.0211012510108911,-0.00258341344505038
0.0697116366014386,-0.0156749335287044,-0.0162060536445052,-0.00426180317259991
0.051764047357532,-0.0147844581841202,-0.0090241166772024,-0.00542108046341368
0.0197217118420361,-0.0107920617233527,0.000254674299914569,-0.00527814469962427
-0.00114002252572679,0.00587390707785992,0.0120335153958051,-0.00375766920722162
-0.00205792959371294,0.0279724051575125,0.022536515065557,-0.00142987765107676
0.00382319450768656,0.0440024741002006,0.0270099602349755,0.00108642745746825
0.00463697566117053,0.0522309237817782,0.0222462939071766,0.00363817417669589
0.000526413139279959,0.0510963927407868,0.0118687741019437,0.00547800606574016
-0.0112026646626186,0.0396678766189911,0.00337267431792258,0.00544091152068088
-0.0250431735169413,0.0269137329871841,0.000682992475741863,0.00357435620128496
-0.0308107235188015,0.0273179666804222,0.00209522621535361,0.00141090546158874
-0.0276481581731515,0.0388245824692147,0.00533315805906259,0.000463554473880501
-0.0216935953082084,0.0452436296800537,0.011556676380917,0.000749167926589637
-0.00934513596073368,0.0370944828533912,0.0149158528331751,0.00117025485852416
-0.000954810871473557,0.0166304601658438,0.00813368632808152,0.00085835584867602
-0.0187070801003372,-0.00583183873821388,-0.00375862091786043,-0.000146741431612342
-0.0436449422355422,-0.0200863165813526,-0.014439001101851,-0.00116480652870567
-0.0517647580564412,-0.0227232128465412,-0.0219660269625837,-0.00151643038572366
-0.051936329802823,-0.0162216587616198,-0.0225072332014084,-0.00140605163313242
-0.050666019251989,-0.00392429376451442,-0.0155322316489885,-0.00184708478385175
-0.0349385153834091,0.0136252590889423,-0.00616561162060606,-0.00306310231105833
0.0220927887285593,0.0375566383055135,0.000796440991875261,-0.00419641669596929
0.0855144042634715,0.0673573169017168,0.00815559941812829,-0.00439601364622126
0.0795741567254316,0.0939019363109983,0.0180451502973335,-0.00338165592934609
0.0349056466426905,0.0998606564779764,0.0226691051722834,-0.00160157419574666
0.0153655069979402,0.0813167554382873,0.0190397640052086,-1.09033201099104e-05
0.0171086231879679,0.0515714746536124,0.0112572498239989,0.000961389540829118
0.0278928119159615,0.0195610735366696,0.00436022761759221,0.00155584870051573
0.0372580128379235,-0.010289248535655,0.00165121555253998,0.00167032061904252
0.0303264644347166,-0.0343977901644336,-0.00343713337845398,0.00112145361721731
0.0124652711408854,-0.0499175207268609,-0.0133026113645323,0.000302644474760609
0.00421706604273102,-0.0544504981342025,-0.0209093317443111,-3.10932211580632e-05
0.0106990402918488,-0.0526622786062953,-0.0237351680548318,0.000408561553164013
0.0169025144157249,-0.0490314100958097,-0.023064150337114,0.00104907781026205
0.0149782759212596,-0.0437397477208482,-0.0188424257891268,0.000979141283041279
0.0112060529957036,-0.0307906607173045,-0.00881085620068225,-0.000175007116760985
0.00773473557825312,-0.00619737486991272,0.00340489189855422,-0.00183057308613749
0.00472414454457009,0.0156201426577682,0.00918525906841247,-0.00324218190476511
0.00495740729922535,0.0210750337992515,0.00815268205559559,-0.00402880211551148
0.00790908900033082,0.0138587120442834,0.00517669297913474,-0.00400530252928545
0.0130086915494845,0.00936054019524338,0.00489599458063926,-0.00314494241651383
0.0159298607800652,0.018200656843689,0.0115268120683623,-0.00189679919675928
0.0143313563915008,0.029348663830885,0.0179148577722439,-0.00110432715030851
0.0143981615829017,0.0304861036920575,0.0159960384394338,-0.00089451604908799
0.0146871783500921,0.0239813498824287,0.0113887704018889,-0.000550491733076579
0.00792860408498954,0.0172257181990461,0.00947716916660727,0.000266361887275069
-0.0015440392274866,0.0156279184474363,0.00951049016614658,0.00120820749365119
-0.00129652582869627,0.0152294256492856,0.00867818895223389,0.0016227660807175
0.0110067838382969,0.00843112975958065,0.00232467900393828,0.00107797989580037
0.0209502150402576,0.00158320248935725,-0.00676045181269971,-0.000147423642817184
0.0128228584255,0.00473530123171487,-0.00874512439355889,-0.00110175233193791
-0.008308704778588,0.0118683578274574,-0.00447813352301002,-0.00102124501386153
-0.0177378725946622,0.00739086242229157,-0.00557800423872034,-0.000215715716040395
-0.00415723435081532,-0.0123294085282106,-0.0147046567404613,0.00064935704978904
0.0133038635377095,-0.0317798179945353,-0.0192608280346574,0.00126368489072985
0.0124142373774854,-0.0386787351260094,-0.0145571069994358,0.00135839692664959
-0.000342135400570778,-0.0340588169887664,-0.0126937707011412,0.000505389952450612
-0.00155764210685889,-0.0209325779813928,-0.0146580892898226,-0.00140406852683087
0.0198970222971051,-0.0022679965711718,-0.00614124369698347,-0.00377200504213477
0.0449586436782707,0.0131341719059943,0.00979288576465607,-0.00565619076704739
0.0434586945649559,0.012495172827906,0.0153878551558667,-0.00639755910355573
0.0189393011180131,-0.00213475839342901,0.00804246134622721,-0.00577741223442631
-0.00306874061662582,-0.0142217841995531,-0.00200454755666074,-0.00400771301541238
-0.00761840167399119,-0.0161850727115539,-0.00411257751956643,-0.00194765002812339
-0.00176741715825332,-0.0124845261084415,0.00533679348869766,-0.000488269573931336
-0.00472340717723728,-0.0161383242662384,0.0103800341826796,7.97227967389673e-05
-0.0155759271256121,-0.033382607793923,-0.00138570214667821,-0.000366095626360663
-0.0168643939686831,-0.0439000362647496,-0.0111211003039214,-0.00150748975152928
-0.00900560927289074,-0.0305901016311647,-0.00613740975755453,-0.00211310963189577
-0.0139271595911805,-0.00910866734998968,-0.0042443145632838,-0.000654550593925573
-0.0346442104259467,0.00138635777252887,-0.00781872584263936,0.00356641020416288
-0.0409513793149709,0.00443983416665359,0.000136783585111161,0.0089176322919061
-0.0230132915408287,0.0148504643676411,0.0119081651480639,0.0120156915506215
-0.00180177620728259,0.0315674591017473,0.0121620048798127,0.0105990997199629
0.0145662929451468,0.0328602509886654,0.00148827096257912,0.00502923013685735
0.0236593300522426,0.0125330711274279,-0.0125789776740041,-0.00186137189959579
0.0202026359708984,-0.00409233573703585,-0.0235207610007978,-0.00630405059915503
0.01149987165993,0.000306225472444521,-0.0269834436750968,-0.00708897085412965
0.00538290293562233,0.00766337808681703,-0.0220469261733633,-0.00617866853119363
0.00539177799729364,0.00318831056461756,-0.0187765113856694,-0.00522315922932868
0.0108867081868402,-0.0055437774948152,-0.0219958081091252,-0.00394788193343155
0.0120835447702031,-0.010390065356294,-0.0225484801456114,-0.00204002538145619
0.00546010496514967,-0.0102203490969432,-0.0166025575386756,-0.000502852728964816
-0.00278383470917033,-0.00812980075642089,-0.00887863784201369,6.36392111138247e-05
-0.0079533178636053,-0.00411375257087268,-0.00141902928792761,0.000366018248420161
-0.00551280738453493,-0.00125564338086994,0.0022606910305842,0.000958193996696604
0.000668019744941466,-0.00265070849671345,-0.00122924386899638,0.00160673109410278
-0.0021882258338755,-0.00435849576105037,-0.00446019742690659,0.00171624794289863
-0.0142447879356483,-0.00365374876065887,-0.00319784344562882,0.00140465782355164
-0.0234284165650728,-0.00200593312703913,-0.00247972852201737,0.00182554072994695
-0.0228911402035588,-0.00234491241247872,-0.00248709714262223,0.00318144479542105
-0.0156965864013518,-0.00220036284587824,-0.000671945029294361,0.00415044586165038
-0.00805378582324744,0.0021040467493289,0.00153050369295764,0.00392802891677123
-0.00478243788597777,0.00641051452419283,-0.00278724409291978,0.00292337233100193
-0.00794494866537866,0.00609233458738148,-0.0139399779165248,0.00183898698925597
-0.0306172681556345,0.00388562530570825,-0.0211384612516243,0.000828587396794196
-0.0724844135237308,0.00565559131920585,-0.0197915968191799,-0.000208950920891331
-0.0919486078736119,0.0114065146279075,-0.0139065951795469,-0.00128816169051935
-0.0731421144902513,0.0180830756430362,-0.00896100118221435,-0.00263238620594224
-0.0464175222988204,0.0241644053197415,-0.00457208310022513,-0.00387087185108848
-0.0200189249401132,0.0300054210842774,0.00241798596122289,-0.00425330341605758
0.0243612351156184,0.0363339746427479,0.00716994691294214,-0.00382815829987311
0.0775494472861415,0.0277701107349991,0.00313022685209853,-0.00320652472163405
0.0951137995038606,-0.0012705974089304,-0.00509579982981035,-0.00253652353068372
0.0574210026267111,-0.0217227836581003,-0.00593694108178986,-0.00126741273288311
0.00103840488752897,-0.016959382977187,0.00162665925298212,0.000674340456061146
-0.0327429987230635,-0.000218261718274526,0.0125934203430066,0.00233836707077835
-0.0361599558151356,0.0130596295664147,0.0223915058773214,0.00308792425495176
-0.0181188550347966,0.01399927687526,0.0177444034056767,0.00363974540967784
0.00497731199629788,0.00164506893163285,-0.000845580922293605,0.00432594412794836
0.0117374866575994,-0.0136615623815246,-0.0115706750783496,0.00406643638883328
0.0105737821240317,-0.0217143822716535,-0.00744225274599806,0.00209101363106753
0.0238852799495512,-0.0249799059836562,0.00249917651440978,-0.000943594004812288
0.0280705879059626,-0.0260862132268707,0.0148236235941805,-0.00361458465607921
-0.000749379816141663,-0.0222625867372533,0.0244785117643981,-0.00488568483479788
-0.0312999254467825,-0.0214470470385174,0.0208395468171264,-0.00479230116188105
-0.0353600140416054,-0.0266867780179341,0.00914830314235254,-0.00392183588758093
-0.0270631948068292,-0.0247390410064344,0.0047286435191047,-0.00245109535157781
-0.0184138547755673,-0.0108246513945048,0.00661073028464638,-0.000760200796686429
0.00216849612483473,0.00519381851183552,0.00789661129666913,0.000455259114371712
0.0303683800436863,0.00800423166345179,0.00525942601325956,0.000824263214424604
0.0409696747363434,-0.00313759724940882,-0.00106741182050822,0.0001896791237485
0.0322987237707887,-0.0149619421025651,-0.00877012751716125,-0.00120217246915198
0.0196050528643098,-0.0241091043311098,-0.0175165300278452,-0.0025160498001354
0.00697276241964039,-0.0291962061532805,-0.0217618942912985,-0.00279532572018865
-0.00147183232502937,-0.0239202518401878,-0.0172091976157668,-0.00217468615918592
-0.00331383126273673,-0.0119781276988536,-0.00783864910987914,-0.00163433501606443
-0.00203767092692614,0.00504850792003461,0.00669608639483146,-0.0011764566529771
0.00500944571803539,0.0280728487909387,0.0280134292935402,-0.000324274550927594
0.0200780407293235,0.0311856269641997,0.034674488918121,0.000690623567674765
0.0318962405935305,-0.00572526341338019,0.0112661532399123,0.00200608148604524
0.0323306356535688,-0.0535740434658198,-0.0161750101173758,0.00417722262670641
0.0304370317158547,-0.0739707843371302,-0.0207850697923554,0.00654988200847694
0.0305601221445128,-0.0587969051463363,-0.00369841359838935,0.00769008557151907
0.0252635996747885,-0.0304741612266941,0.019595821255602,0.00651959623708365
0.0131674402176955,-0.0243841943797952,0.0285047617310183,0.00287130934555848
0.00510029346389798,-0.0412113089324747,0.0179178199347,-0.00144735544997581
0.00867409054916681,-0.0490126181222502,0.00347765700573877,-0.00424386952715038
0.0179927459318789,-0.0355110150715061,-0.00259343455590114,-0.00535092766868251
0.0269017625793914,-0.0139376648820001,-0.000514260117395957,-0.00582850308854265
0.0332123625891174,0.00165330657269623,0.00488130450311741,-0.00604148526721883
0.0330542372290886,0.0117370728839208,0.0123938031941424,-0.00511138447458205
0.0294526209845104,0.0266439915008906,0.0137882671433157,-0.00247941421720885
0.0315337186268189,0.0423017277850563,-0.00475411795576248,0.00129897855197176
0.0334615939903885,0.0453000235181137,-0.0339220060144335,0.00555134142814935
0.0271839827114889,0.0361885792150617,-0.049544213157249,0.00924907277044752
0.0258345441898769,0.0242179152314689,-0.0383153187053668,0.0108489575410397
0.0282791588111824,0.00818296592544941,-0.0117115347365462,0.00948886896574021
0.0179317406378083,-0.0135885132173817,0.00110328052847931,0.00572716684164886
0.00170731857654371,-0.0275205146397313,-0.00658973112921292,0.0011071954498043
-0.0156602602569202,-0.033511233620725,-0.0177033494763424,-0.00265489806056693
-0.0318730529917596,-0.0416927135482323,-0.0255686463294633,-0.00424604816038388
-0.032613438294138,-0.0455579813172201,-0.0279559992408675,-0.0039735388940878
-0.0149911792954484,-0.0385645886633975,-0.0214013139114425,-0.00348020566246458
0.0117254843779246,-0.0207387898090648,-0.0109830269737017,-0.00357401326666965
0.025883283236555,0.00211787846228309,0.00789845623024753,-0.00362624117847862
0.0258412927065703,0.0162177961703469,0.0351589132029307,-0.00304426993600068
0.0327853164794837,0.0159543236217926,0.043046294593887,-0.00188407078276314
0.0400612390541982,0.00637310344907914,0.0148309824335309,-0.000365371692207976
0.0337718263393383,-0.013467628502152,-0.0255032791519429,0.00126401526239254
0.0218586124548197,-0.0379877550374076,-0.0425078678204718,0.00316221250703452
0.0109926458734704,-0.0461929928765381,-0.0311754167870029,0.00515301068021688
0.00106810679694903,-0.0304968359502193,-0.0107407498356307,0.00605269962850303
-0.00960789766751093,-0.00291163696996463,0.00693050081965619,0.00518244701236889
-0.021517247932121,0.0232676287749761,0.0193538197155982,0.0032271715860461
-0.0289269996495086,0.0506830273116692,0.0247065694034483,0.00111749900405725
-0.0295520710059731,0.0867385368286874,0.0225532247824033,-0.000752404110886633
-0.0263435062303421,0.117853043387487,0.0153137769786364,-0.0019586759427965
-0.0217567998772156,0.125072495642647,0.00622246542678535,-0.00200858206440964
-0.0139629461036809,0.112190836012791,-0.00170145231960887,-0.0012525123356396
0.00268964075276198,0.0893481366931639,-0.00586036248275102,-0.000584778111132738
0.0226203865721074,0.0534474572069832,-0.00599322748054714,-0.000293614241682347
0.0280712501072804,0.0121952257607555,-0.00283941996722563,-0.000187102520139085
0.0172277853912732,-0.0212148815169859,0.000413535706627031,-0.000264573476429778
0.00425424848460405,-0.0461686474444856,0.00289636554556,-0.00100925012992696
-0.00665619622550847,-0.0589961907466517,0.00399260148526384,-0.0027975558167065
-0.0165212948286751,-0.0558391799701319,-0.000400327610293863,-0.0043872813070177
-0.0214761808536738,-0.0418496234797887,-0.00848155132939427,-0.00393201021717112
-0.0232989342714296,-0.0265250379892406,-0.0131472828022054,-0.00180420892373993
-0.0289844869287288,-0.0167635668032052,-0.00783790603915045,6.80473675639722e-05
-0.0381171740264348,-0.00894641042107257,0.00586419863233162,0.000407895835222979
-0.0424533487946181,0.00129367443971836,0.0182460268705944,-0.000991708979258616
-0.0417058612087728,0.00939885768446703,0.018836555697274,-0.00320758322067272
-0.0406199194786363,0.0139279375020909,0.0104697977072959,-0.00455103827949703
-0.0341618400466476,0.0216158193358982,0.00791685024125369,-0.00339608277943063
-0.020305523499881,0.0280520927686862,0.0120075305897167,0.000385275772273853
-0.00437637297687474,0.0230808408031858,0.0111316555642791,0.00481323166294057
0.00787688612424401,0.017871339617395,0.0050395104094606,0.00780003530536224
0.011282126862651,0.0216538557593782,0.0015437283102792,0.00871523678908453
0.00934896381466727,0.0264743386703282,0.00119506534330991,0.00777889316124025
0.00764822829267941,0.0270431062092588,0.00192186407306418,0.00540341096451398
0.00621443385108728,0.0232212214691957,0.0032648927538885,0.00221625266843635
0.00608924900392747,0.0149341457386522,0.0060201545840354,-0.00105871462186204
0.00637482736950782,0.00820185548974452,0.0133520517303228,-0.00371441360950352
0.00325963381542579,0.0149181143061328,0.0232898941202307,-0.0054564280175555
-0.013859435767098,0.0315671487230347,0.0293625912253942,-0.0066457146876641
-0.0554642599300107,0.0388744035165264,0.0278219633359202,-0.00770914139563156
-0.100807257693553,0.0326931702987281,0.015996213541509,-0.00800625306628364
-0.119309941262517,0.0232273408172472,0.00212837163900037,-0.00633197891053568
-0.116600427503416,0.0112080999875753,-0.00290118246320015,-0.00283912418625622
-0.100939656721613,-0.0051291884507678,-0.00398793203130005,0.000756616081457308
-0.0554894834756072,-0.0188426054079164,-0.00504139192280201,0.00241275205443336
0.0193525474647664,-0.0212630890357379,-0.00293231152406816,0.00202395867813443
0.0879142318143147,-0.016596191945833,-0.000749298091996981,0.00175156094118392
0.106432048618474,-0.0141439524185877,-0.00184123262118031,0.003131411602887
0.0763103120920118,-0.0119376769069374,-0.00408667496276114,0.00542244401626232
0.0355152242224133,-0.0070993877832847,-0.00787973701672375,0.00666301225321082
0.00318891532464501,-0.000863875117611154,-0.012350658362429,0.0060629666187747
-0.0126615240438024,0.00487939608579552,-0.0143661266687937,0.00459453135597787
-0.0162952662292937,0.0100145738715882,-0.011862432767152,0.0031721411209046
-0.0248546251885377,0.0174013248514162,-0.00149447025647771,0.00186606083392429
-0.0391139566612602,0.0232135836487994,0.0104419046679779,0.000301313246339648
-0.0431757342619722,0.0216472190191637,0.0133561105941166,-0.00164129704952378
-0.031155644384514,0.0128050954170386,0.00902977081107828,-0.00342099551965927
-0.00832364827324558,-0.00120988407931596,0.00038907290831891,-0.00454699164004977
0.0141546785356393,-0.0149970166436575,-0.00964434950413249,-0.00464709084111117
0.0190039387713808,-0.0223033768885646,-0.0111913206713421,-0.00334344247971739
0.00468832238913312,-0.021292623823698,0.00141730148842304,-0.00105663478562701
-0.0235738359888584,-0.0201994408050397,0.0211202013067115,0.00135963887586184
-0.0537286629861355,-0.027623002378002,0.030596583257002,0.00324314826028091
-0.0587907879802365,-0.0317592850732949,0.0225539532286072,0.00372654912992874
-0.0356279108357103,-0.02123304643498,0.00579202950958818,0.00225047720791073
-0.0128865211092643,-0.00858321756287326,-0.0102045146910987,-0.000362356665819246
0.00313811986404378,-0.00598006841424385,-0.0186387382416731,-0.00214242260480653
0.0259950495478352,-0.00555913860138384,-0.0160731646194022,-0.00191985322707886
0.038231620467895,0.00466853154270336,-0.00622567423881103,-9.40411071188472e-05
0.0273186419733848,0.0160758075239545,0.00275036590765756,0.0022597280004384
0.017081252971397,0.0133646593704342,0.0049476844942102,0.00366339343468591
0.0224788594934366,5.7536235446594e-05,-5.94268295190333e-05,0.00342852363765123
0.0332033687150581,-0.0132542243734898,-0.00775672777361838,0.00248187839463555
0.0402594315911947,-0.0189801377767342,-0.00957517911628521,0.00191704050499558
0.0409694759162723,-0.0177926407761095,-0.00413714373218208,0.00173261290251554
0.0287615819003143,-0.0196643847508171,-0.00498697572801056,0.0012145036101442
0.00905220274448592,-0.0236136666578084,-0.0149714462671588,0.000331733577214875
-0.00374621035018698,-0.0198369115842246,-0.0188542055140942,-0.000411345350843884
-0.0130775584230485,-0.0145516972575466,-0.0139936265033735,-0.000857769570296711
-0.0265452038546936,-0.0201474329471488,-0.00835509257102499,-0.000806961470334392
-0.0511893008015401,-0.0350569914002084,-0.00775359688857491,-0.000213039708950466
-0.0885357469660143,-0.0539592160185853,-0.0187176916043064,0.000703103687879426
-0.102364450690458,-0.0658088320998225,-0.032471591920437,0.00194275647270035
-0.0727504289494778,-0.0577194751415707,-0.0305082890957736,0.00314424864970499
-0.0282073405697027,-0.036861277126921,-0.0146114813477877,0.00332232671500899
0.00975545188559597,-0.0177356359598913,-0.00016715324351526,0.00163993513677937
0.0315631918605334,-0.00653986893184398,0.00650394361315894,-0.00182546817516261
0.0561500553354932,-0.00617570747698929,0.00798533387727307,-0.00545152056288729
0.0854968746839758,-0.0118155724860433,0.00979679184639603,-0.00728901059602297
0.0712801062941439,-0.0152791615448708,0.0138366755487568,-0.00681169480181828
0.03536625336217,-0.018117239112735,0.0129338835921331,-0.00467726778063769
0.0222539918354417,-0.0216949843087515,0.00437272351321701,-0.00190524054504263
0.00506027202448419,-0.0213045106911134,-0.00203045217355004,0.000518478656908068
-0.0210934714450711,-0.0147451755369616,-0.000222337828848222,0.00210829459287202
-0.0283853428061884,-0.00398260774024961,0.00470913814727566,0.0030684268519113
-0.024252510327518,0.00152935575196154,0.0059128108012835,0.00344049010880441
-0.024461685661763,-0.00558543509629931,0.00235640209824738,0.00299902140032005
-0.0206239879827392,-0.0152800811144778,-0.000478264500891251,0.00158332461494859
0.000153607075407363,-0.0171340336294371,-0.000807529472634613,-0.000648263669008252
0.0264905912779522,-0.0127246112637701,-0.00268588132670186,-0.00258682785516461
0.0290668206467806,-0.00350119904451672,-0.00346925600802978,-0.00311755696653189
0.0111487260481412,0.00632457390410292,0.000711355123675806,-0.00238748313319219
0.00120977060943196,0.0067971506162549,0.00628748166176643,-0.00145915776057747
0.00921204992630627,-0.00165257702420854,0.0097377686695613,-0.000953593576848514
0.0252288365216954,-0.00828476134537398,0.00928898366317037,-0.000816031915562839
0.0329942624778886,-0.0128693875860341,0.00289987914407024,-0.00104416251897628
0.0302001507234205,-0.023094909835588,-0.00469909869118196,-0.00148729452663561
0.0248408025438234,-0.0342379875040583,-0.00415859265086918,-0.00168474576955578
0.0173083374923626,-0.0358805986065348,0.00298712539275533,-0.00152532828511421
0.00882536119870171,-0.0294024870437853,0.00672175154516853,-0.00146755836366548
0.00734960697622174,-0.0207012310261709,0.0038187438109362,-0.00160237736198583
0.0145622107278939,-0.0110803267753518,0.000313615122142875,-0.00150193971666826
0.0205531291123388,-0.000210455204699617,0.00102346334528392,-0.00102423853253711
0.022565266505491,0.00832680229826212,0.0056803074432126,-0.000383907859561888
0.0241786420690833,0.0145491469304058,0.0104122262510772,3.11381807259395e-05
0.0238312935806793,0.0282841798676138,0.0129876965246216,3.75551114380522e-05
0.0238839450927406,0.0464399842617004,0.0165435202194601,-0.000152630994500726
0.0290503281078615,0.0559522691014753,0.0204392648046488,-0.000468238058273849
0.0383672001245856,0.0504661817245109,0.0229022358387902,-0.000749299742146326
0.048763103919797,0.026042137078447,0.0227967170675866,-0.000599800105779921
0.0557519027956514,-0.0139966550903064,0.019825008378755,-0.000118237789651394
0.0542119605088575,-0.0533940072487655,0.0175525148896638,0.00015730600810443
0.0456451235182595,-0.0723041894234987,0.0131945532509149,1.57852148144427e-05
0.0354089467694052,-0.0679559552257735,0.00139746060156741,1.59481569644866e-05
0.030167162618058,-0.049001508091236,-0.0100101834302641,0.000829209076564189
0.0301535546946686,-0.0257595842686237,-0.00957368710869367,0.00206974211120813
0.0246641849703217,-0.00354013997391974,-0.00250553116520964,0.00264395230951394
0.0114061467520352,0.0227713530963543,-0.00073972258065045,0.00237883984707874
-0.000248900631999937,0.0475484638003373,-0.00570498313789293,0.00216732202167297
-0.00504305392494808,0.0631779750816525,-0.010225690118518,0.00262843364139197
-0.00490656237077543,0.069219046382178,-0.00780881232456148,0.0032803070781652
-0.000705228567526407,0.0629469028232738,-0.000711620355626734,0.00308664799039492
0.00718481732581289,0.0494909927752775,0.00557026003254379,0.00209287799960277
0.0156398974519355,0.0416574294346704,0.00844093497892946,0.00142936168928879
0.02621884294143,0.043657024547958,0.00490368579403623,0.00147053850861462
0.0417443396084205,0.0422378055478532,-0.00655188424737672,0.00168186343829484
0.05416657227625,0.0254456875993466,-0.0199921539691913,0.00171240015640292
0.0486332015063138,0.00352681784330773,-0.0253341263155059,0.00165951692753095
0.0284677642239744,-0.0065194881878726,-0.0186429278971551,0.0017514927532744
0.0132062748712734,-0.00743933788865354,-0.00173653199904822,0.00170130888004353
0.00339640582075167,-0.0122471692254983,0.0179074809915176,0.000505993503844582
-0.00966069495028596,-0.0193662851097226,0.0232369421251497,-0.00250794111833179
-0.0167951940146444,-0.0206029387580469,0.00184623603029652,-0.00662648452174981
-0.0124392868149068,-0.0149020286256895,-0.0319256839261127,-0.010223823795072
-0.00628081144573366,-0.0101318289813237,-0.0472689256982341,-0.0116829757468774
-0.0049066565499305,-0.00481526670011285,-0.0296108007540224,-0.00943510496132544
-0.00822437093645656,0.0179823281311207,0.0111080267733223,-0.00238829146300599
-0.0127919961827788,0.0404647454513162,0.04258475759836,0.00779267644123722
-0.00964470828651547,0.0258945902386067,0.0341207833934188,0.0164148858976012
0.00499530089336355,-0.00973443031009496,-0.00401190854690904,0.0193846089813193
0.0146247460006172,-0.0291969686017911,-0.0378718439088361,0.0160247701952608
0.00810495886423407,-0.0348155980997667,-0.0462616275821526,0.00869899549595162
-0.00585510396230739,-0.0496617267791696,-0.0359733468627187,0.000145738416049621
-0.0242867961197026,-0.0707316028521622,-0.0231031806066047,-0.00762224076802265
-0.0467703484821872,-0.0635494058399309,-0.00222796414634941,-0.0121031871489681
-0.0690033430943254,-0.0262311674145519,0.0243081417161872,-0.0111154377332399
-0.0753236805734034,0.00421054480703845,0.0281827619979322,-0.00538556428680122
-0.048432043538854,0.0221984432109554,0.00245042683290615,0.000926470814207712
-0.0101267246152556,0.0408485689839463,-0.0215495352388343,0.0035641357936401
0.00800298542261013,0.0612577931843842,-0.017025799147639,0.00173638682062103
0.00552305846285796,0.074537937358038,0.00766747086035248,-0.00203163890326825
-0.00411808490198943,0.0745890726596931,0.0238529845920198,-0.00446243147661023
-0.0057246745517436,0.0644090428686892,0.0176639896076394,-0.00419507153048009
0.00642965211003396,0.0445146444440262,0.0025528242831215,-0.00227335487830552
0.0170889985975523,0.025823627139679,-0.00383955014623589,-0.000404014506538248
0.0135085564840929,0.012307089402981,-0.000539091115762846,0.000610575279935714
-0.000649128155937932,-0.00519781466594116,0.00475125340098702,0.000660370106069765
-0.0147687471677866,-0.0252015989668527,0.00720845676957627,-3.71892896587042e-05
-0.0169809110351181,-0.0430444962214898,0.0059944588941167,-0.00081953262329609
-0.0134062958082901,-0.0540760166383021,0.00219170245366106,-0.00118695635436058
-0.0230730584121648,-0.0548874559808297,-0.0040904293596854,-0.000807170143545533
-0.0458458374862629,-0.0510786968558978,-0.0101284798418288,0.000440187344990214
-0.0622816672258313,-0.044207421716162,-0.00968542567355403,0.00168611300985716
-0.0644627095263086,-0.0270391525849588,-0.00295679874511504,0.00182522958088335
-0.0645870464843283,-0.00548602942566061,0.0048514613618113,0.000843687133474759
-0.0632562946699496,0.00202084865908736,0.00983461950406112,-0.000464322127272418
-0.0481702781446136,-0.00156583903701264,0.0116695730770348,-0.00134712619383955
-0.0322642706467519,0.00382391141382813,0.0117548945160568,-0.00197568052444856
-0.0347169076927787,0.013357507694126,0.00322591775268211,-0.00308644173820398
-0.0414955564602428,0.0185163037516723,-0.00910626197756398,-0.00409526208743796
-0.0298979915271519,0.0292842149524808,-0.00674959962802245,-0.00351530987524693
-0.00481021454957457,0.0415128123397972,0.00576297769724723,-0.00113561681845116
0.00914888900057126,0.0445060299716769,0.009685174337498,0.00157187328441688
0.0145432447813271,0.0448150026395852,0.00339389953727925,0.00265896283847297
0.0367980001632828,0.0500913897460704,0.00075217615017435,0.00136600768110658
0.0606801563324042,0.0566301112427899,0.0113347789613031,-0.00108779079864979
0.052258115282146,0.0627119478642195,0.0306759681298241,-0.00252057008603181
0.0252170020473638,0.0680903456269742,0.0445872563947401,-0.00209068572667341
0.0098058420071078,0.0634198838657174,0.0401397037299076,-0.000859854411127378
0.0042377031732848,0.0490882752619174,0.0193860435464734,-0.000286498030350634
0.000580877077542577,0.0371565978049662,-0.00435638287098883,-0.00103701628344656
0.000543533084159352,0.0282176822017845,-0.021725868194383,-0.00184459504521801
0.000770053561478988,0.0199637858234331,-0.0292787559829725,-0.000762411758147974
-0.000313591198136773,0.0193401562527133,-0.024829148733253,0.00163406621864546
0.00183940415554809,0.026675088727627,-0.00988157248792269,0.002909476896772
0.00708118365804792,0.0304462714992742,0.00473560425463695,0.00198887603088491
0.00334340557759303,0.0229624867530134,0.0109981220637493,-4.32335678099177e-05
-0.0155956136746138,0.00894118491428489,0.00948359416424508,-0.00170693292829971
-0.0334830983988409,-0.00490415082496512,0.00169771269423682,-0.00243975551437369
-0.0296996573510375,-0.0195906242710508,-0.00765332974503477,-0.00245191720884439
-0.00826907766158665,-0.0305084349936684,-0.0117058531390173,-0.00221919428335607
0.00782881972857505,-0.027973558170966,-0.00591905557421127,-0.00202506693592941
0.00996986038195257,-0.0150503775234149,0.00723655900385132,-0.00197338804406118
0.0102033031083968,-0.00202621632162561,0.0209105725825608,-0.00208809017627383
0.015832542593161,0.00651712507904331,0.0276311087854109,-0.00216561557226859
0.0187722044099953,0.00782345190790295,0.0244195073582791,-0.00204682887653893
0.0170396457355566,0.00160105477222693,0.0160263113644654,-0.00188326997949221
0.0183313875096544,-0.00194648844033773,0.00349792630459845,-0.00155317663335699
0.0237682120638476,0.00398479716857901,-0.00567703211170545,-0.000987181806351291
0.027542440170601,0.0162467126567566,0.0044765272584326,-0.000496315077867045
0.0303456567944104,0.0274555469283778,0.022254171341617,0.000405665519160379
0.0298547579146887,0.0218714570938723,0.0205560587452952,0.00235454484404881
0.0128919974914456,-0.000379427514850586,-0.00242236878421325,0.00469078460632571
-0.00928569657860534,-0.0166119513643386,-0.0280612130358646,0.00617483713117559
-0.0129855565304976,-0.0231531751430067,-0.0409951189131504,0.00614876697843213
-0.00361433253408169,-0.0355418606469923,-0.041701037616666,0.00484494305765007
0.0010973651051719,-0.0480207944739903,-0.0336640981484637,0.0027235091784109
-0.0125857245181588,-0.0400949871836534,-0.012554161252033,0.00044141692449507
-0.0454578948768761,-0.0167768249068303,0.0160993785852154,-0.0010968254751619
-0.0651579416997924,-0.0012634840069779,0.0314089166365901,-0.0020958825035419
-0.0492768076237601,-0.00595339043068129,0.02039632221513,-0.00312611007703418
-0.0198577412549809,-0.027207424512161,-0.00644101491163505,-0.00360566012893283
0.00262832636273271,-0.0494678120726946,-0.0278841204780118,-0.0033155868499337
0.0199807859766453,-0.0601429382695101,-0.0349380001720521,-0.00324371689501519
0.0392535671176091,-0.0499711589932745,-0.0210040267889687,-0.00384302570297852
0.0513935355745087,-0.023444890022973,0.0150400679349622,-0.00406170882712533
0.0402824134735126,-0.0117445673724053,0.0470748754045339,-0.00234911826544647
0.0147793941630253,-0.0292321963388159,0.0477518905633297,0.00144101896200469
-0.00690215693038192,-0.0484495751662357,0.0228749623520445,0.00567973898969531
-0.0192808794250249,-0.0468507338474323,0.00134946102850509,0.00897018233010803
-0.0182676483953996,-0.0357277456168483,-0.00886982381243908,0.0111197083282667
-0.00986652756264037,-0.0303793132831455,-0.0178091544212234,0.0120729049778675
-0.0141518295020151,-0.0349567228023147,-0.0229343352005236,0.0112201808801931
-0.0296433073728888,-0.0398442821922755,-0.0189998383128255,0.00812499542013168
-0.043289220383464,-0.0305405005920856,-0.00689933268123102,0.00350459601324173
-0.0549336261905987,-0.0126116502462955,0.00428494397793836,-0.00132486252280576
-0.0509792068555572,0.00114654296626811,0.00355546975038874,-0.00513880552634652
-0.0248755894092072,0.00993831920586262,-0.00515481854695375,-0.00697720360317952
-0.0031041800621255,0.0223437622870644,-0.00943073329468953,-0.00673667395420946
-2.30794010700232e-05,0.0385464684014956,-0.00773023534510215,-0.00490899588314913
0.000152140824184841,0.0459270223606369,-0.0069112690838767,-0.00236519704248566
0.00799792657252686,0.0420055321134602,-0.00733803368796807,-0.000222935555720749
0.0130011362447933,0.0287407992334201,-0.00504676901959844,0.0010821409321713
0.00849332261980777,0.00261018947659024,-0.00125397963176214,0.00167384170437546
0.00282452194413386,-0.0301466823340391,0.00131673261134969,0.00190756484202297
0.00203115040147753,-0.0555863779340893,0.00528191410390201,0.00216731849549638
0.00489908102066578,-0.0669865186902088,0.0109200930892126,0.0021614258621566
0.0110597724774762,-0.0663643875581333,0.0116580038416567,0.00163545896404733
0.0166936332350475,-0.0565527565706682,0.00506459830735954,0.0012229991687729
0.0202460112393156,-0.0397258818088546,-0.00134501252165883,0.00137411356932185
0.026298288220785,-0.0189768092835977,-0.00166704508739079,0.00150004892615599
0.0280915768937988,0.00181392520625803,0.000480507864001099,0.00120630366527611
0.0219577938696603,0.01527811670186,-0.000823974209349402,0.000740816809641087
0.0161835481724688,0.0178799801635401,-0.0057793455779966,0.00013089552150276
0.014722181142306,0.0175479949725368,-0.010695276845272,-0.000289963316892954
0.0192397122657311,0.0190316947742637,-0.0148761096921017,-0.000131885644620226
0.0185066816615151,0.0219185010557869,-0.015880473952425,-0.000108086611936652
-0.0084503328824534,0.0313721019158066,-0.0107896332459713,-0.00124321221456815
-0.0514690598386097,0.0504258179600151,-0.00225385331771263,-0.00323041008555415
-0.0747175926627978,0.0696348282976881,0.00712448294648592,-0.00459460622297907
-0.0682481717916354,0.0695939870833514,0.0108245644039788,-0.00439202480677534
-0.0515249862028193,0.0472256511847818,0.00539329697056172,-0.00262456679905932
-0.0397022711036941,0.0187824979424328,-0.000536764143906727,-0.000149366864681693
-0.0216882238880113,-0.00355987243925299,-0.00247769045535764,0.0013906591196082
0.020753834904017,-0.0136248158355543,-0.00236414087185862,0.00118855822310605
0.0652472358435049,-0.00966021020332023,0.00191976962706076,-0.000196529558843153
0.0746744406311022,0.00128867266367282,0.0106472093605017,-0.00206350545712185
0.056589032770002,0.0066692616198562,0.0175909071083939,-0.00395890151093756
0.0305078793018249,0.00550101622897907,0.0196355424988434,-0.00530470567260218
0.00473582346053191,0.00320542838069949,0.0185943836680887,-0.00535800361228793
-0.00669680557977236,0.000546022320582422,0.0150654225675446,-0.00395029574825791
-0.010570796660672,0.000193297670962198,0.00887336074798235,-0.00164533361145073
-0.0189341396116979,0.00106994009950599,0.00190115029780487,0.000755552482407128
-0.019215837831765,0.00298232403145241,-0.00181315860209408,0.00221916612258787
-0.00627448431974168,0.0104316733601964,-0.00247974855800838,0.00194929487379081
0.00501531136250953,0.0189417921424165,-0.00605708445540597,0.00017205500563168
0.00930879616152971,0.0217847749377464,-0.0124151832729898,-0.00186601287526768
0.0138164961172006,0.0210231157709306,-0.0165377728407545,-0.00295238513216697
0.0170429664079844,0.0193301938861656,-0.0158770923457473,-0.00275547201399416
0.0121348696211055,0.0156684882373885,-0.0125333844286089,-0.00201851459449423
0.00138123053031903,0.00876974931463382,-0.0105292438971044,-0.00149411744012104
-0.00843440516413547,0.00387367943734523,-0.00806338689147261,-0.000815213922688808
-0.0132366078337453,0.00426261264167656,-0.00445962727488647,0.000184940957459186
-0.00887864267770423,0.00166273360220588,-0.0018249038979518,0.000657293153160069
0.00422403376374266,-0.00416783242601933,0.00496902813536029,8.44298903300995e-05
0.0161481804293251,-0.00752240074776436,0.0174043920650102,-0.00105545484844108
0.0169986873805346,-0.00970524925318896,0.0261411419354239,-0.00206830823911647
0.00421402688704393,-0.00970713870217316,0.0268655274281357,-0.00261610611824313
-0.0138794818872239,-0.00810366430299608,0.021122683202163,-0.00271762835016618
-0.0214091331205911,-0.00195574451895486,0.0107841639332935,-0.00251478792459264
-0.0159934176209276,0.0110391046276753,-0.0017456703997019,-0.00191244399568976
-0.00787694008042789,0.0210959662312853,-0.00704081860728349,-7.20280547079192e-05
0.000186632925990179,0.0285694498092606,0.00848144202970396,0.00326117199176889
0.00753579301763593,0.0311466951300832,0.0359103552946033,0.00587896043418696
0.0115231801162867,0.0170398195045014,0.0504467192855031,0.00528712775344621
0.0219262585954107,-0.0010578251557528,0.0420705681837912,0.00147042021216321
0.0391131111865869,-0.00800964235222476,0.0180125528069636,-0.00300828957816215
0.0437642250349512,-0.0150265405457907,-0.00734642452898868,-0.00514223479535368
0.0346962739287195,-0.0267213004647236,-0.0249861699423645,-0.00402716337751441
0.0257446506176541,-0.0258449134977717,-0.032438950905882,-0.000710979708773828
0.0220550660087393,-0.0132943281975894,-0.0296142518135838,0.00297257939898763
0.0201191454701516,-0.0135508422230052,-0.028267061840026,0.00539821293167904
0.0139103164645994,-0.0276848976486433,-0.0333097573305249,0.00604198808761543
0.000956238676001253,-0.0375881093454347,-0.0281290115072422,0.00523266262927092
-0.0147181007283735,-0.0411708380544932,-0.0100415892605861,0.00319067453507724
-0.0224429693911944,-0.0415480135512165,0.000953204455659058,0.00037893423805751
-0.0164658733867102,-0.0348520629340077,-0.00134213605269643,-0.00199291512706063
-0.00148918301061881,-0.0169524749177427,-0.00174651368287207,-0.00305571241722467
0.0118751759037208,0.00843515985102425,0.00744546870305897,-0.00297491036347223
0.0130684449043745,0.0268759471501706,0.0176321016041396,-0.00244727516963515
0.00914748389888122,0.0285434292477305,0.0215362820178929,-0.00165975940615042
-0.00704228304896994,0.0198995039338269,0.0198921723959801,-0.000345030845405745
-0.0515728534840838,0.0105997347684033,0.0154189716084755,0.00132655507898613
-0.0877011230943636,0.00438521671044034,0.00973039588990876,0.00289882036049647
-0.0904480453460737,0.00476648178552351,0.00578044661532732,0.00398324470400541
-0.0791207291104972,0.00890235003207039,0.00433100579450417,0.00439896717440534
-0.0588544051738365,0.0108074848285304,0.0022014561068804,0.00424907874724644
-0.0111416874124954,0.0109798204394772,-0.00101405417443154,0.00368160979697347
0.0787089031519453,0.0102060291690294,-0.00468173724218729,0.00269656289395591
0.138860018968313,0.00966779088440491,-0.00760589865626728,0.0012009862906547
0.0968261211002014,0.0115029360340847,-0.00782447711671948,-4.41764632472153e-05
0.0265359712156075,0.0130426987768303,-0.00817668800379449,9.92657813388442e-05
0.00231621405058463,0.0137335305029017,-0.00850362732248314,0.00112031847462362
0.00379023250567043,0.016242769967739,-0.00496122363016258,0.00184789223907365
0.00587867995920011,0.0156918756779315,-0.00232374155321558,0.00213053607582859
-0.000517410990437811,0.00606913241041818,-0.00496390517130716,0.00230038190100282
-0.0205820378381208,-0.00971452457761522,-0.00925254001353701,0.00257716593998346
-0.049640282186571,-0.02097928370288,-0.0073431238941768,0.00298500035395325
-0.0687811755019289,-0.0170348759698835,0.00277056120990115,0.0035548993142342
-0.0570756735736332,-0.00379967004427532,0.00741945532404052,0.00401331673615062
-0.0221251016433436,0.000668477681015483,-0.000235504146448204,0.00355780424980274
0.0143782494784374,-0.00473737569684445,-0.00890121213497283,0.00181749119685549
0.0431225387581688,-0.00578874497605921,-0.0119101938106037,-0.00100932436740195
0.0558139001191713,0.00470765078622001,-0.00639551315304068,-0.00432124634267387
0.048826327409273,0.0181101753047162,0.00794327397762396,-0.00664707990213741
0.0324330760302756,0.0199262662672437,0.0155049665830619,-0.00619060008221281
0.0188467110835632,0.0119444843913926,0.00620335260900425,-0.00245064402224266
0.0130710417449863,0.00613464107694653,-0.00906112898641035,0.00226559860862955
0.015481142931401,0.00503556139583886,-0.0203830836659721,0.00489949030668817
0.0200139467710212,0.00372098781601744,-0.0254717393508995,0.00510389451740584
0.0197773742831046,0.00313324409435659,-0.018093721516087,0.00427515786329716
0.0115856314820566,0.0066701081624313,0.000728004649706921,0.00304547243541051
-0.00830269650843373,0.00885255504805164,0.013987134703322,0.00116377474170454
-0.0317494361894754,0.00755156336301442,0.011313064766695,-0.000997995509597896
-0.0381446329972298,0.00850764865908419,0.00336281767878452,-0.00193532225931011
-0.0268154285156033,0.0106971731771072,0.00209396640916587,-0.000581786803297189
-0.0127460195119158,0.00411931162085784,-0.00255585243589989,0.00259411657898388
0.00177601760631133,-0.0105260047588699,-0.0182064723428639,0.00567651043416604
0.0164913104932454,-0.0196943299584521,-0.0279521505936423,0.00656962101571356
0.0308949562114586,-0.0215391094415328,-0.0226929855833709,0.00527331255557631
0.041411655698393,-0.0235065786273831,-0.010755366522851,0.00319250513652592
0.0420741513262325,-0.0270170080489378,-0.000204537485750358,0.000954006173384919
0.0463066529062359,-0.0287774912320412,0.00269348037875126,-0.00116624219792878
0.061360129490673,-0.0252362891912123,-0.000905059601356095,-0.00301788394324397
0.0680261639325026,-0.0239635067402484,-0.00376795474499683,-0.00485360557541701
0.0520678233386906,-0.0325594050382406,-0.00561778923691877,-0.00606094196809999
0.0285241421955134,-0.0318603359342531,-0.0062355308179228,-0.00558147636464808
0.0148688744553855,-0.00886399446293409,-0.00289903396029425,-0.00399237849956215
0.00377850710659818,0.00985853485066963,-0.00219261852772854,-0.00252751381178575
-0.00629096831700351,0.00260965217249987,-0.0136486186119751,-0.00122494430246018
-0.0096631300718494,-0.0183700537419762,-0.0280390041613188,0.000264812309884606
-0.0145817754165616,-0.0334130689810233,-0.0272361819307897,0.00166058943816506
-0.0247395780579461,-0.0331566101932136,-0.0175519477658568,0.00242428660566483
-0.0315169574718338,-0.0250812058452422,-0.0150865134350416,0.00254105892309733
-0.0320804044571608,-0.016716684759867,-0.0158147565453173,0.0023031596488383
-0.0257830854175655,-0.00344207237195617,-0.0126172332789609,0.00180223903459198
-0.00791342370580176,0.00572555365089127,-0.011968088661629,0.00131040655460827
0.010597886764162,-0.00266806418467352,-0.0168722106675516,0.000998978322376271
0.0133237308763277,-0.0207136746275321,-0.0203218571929611,0.000730477085296676
0.00836587384692584,-0.0310375265463951,-0.0118861814234436,0.000726545501489761
0.0108448387318658,-0.0337840891752583,0.00893641566075247,0.000727253323388514
0.0166234717536961,-0.0405693453809102,0.0247369626497701,-0.000198579598743149
0.0142738410523461,-0.0422981208780248,0.0262176274910882,-0.00193242911385495
0.000767551415726439,-0.0314067832081873,0.020465600951105,-0.00343550191256639
-0.00962608882426016,-0.0223693906739719,0.0107294362116753,-0.00408206818124012
-0.0026067849126917,-0.0184722857838164,-0.00324023818317996,-0.00384586332353309
0.0119096952774119,-0.00680617820383726,-0.0118820891625295,-0.00291474716681657
0.0209758615598279,0.0179071471082206,-0.00725848913567639,-0.00177235711068147
0.022411671210807,0.042508324387021,-0.000547400336682569,-0.0011128432765526
0.0139353267606311,0.0483441139148246,-0.0023263274036962,-0.000963831767492254
0.000226556556956591,0.0356633458545707,-0.00484256330170411,-0.000966858421464289
-0.0102265137853698,0.014085409397121,-0.000844556735519034,-0.00116098371884245
-0.0245429400027648,-0.00722766942405487,0.00490749956836402,-0.00164309377484441
-0.048022271697243,-0.0132098031574701,0.00953089616586131,-0.00251780192754555
-0.0664752393338785,-0.00305465421465509,0.013218870003341,-0.00361629536230352
-0.0708738559135683,0.00756113102604728,0.0139070622169772,-0.0039760029605539
-0.0583528483208494,0.00960159523604184,0.0111591316941393,-0.00284091428260881
-0.0339564592108162,0.00473628945240943,0.00770206426548274,-0.000789148963788713
-0.00345877525368785,-0.00591954543460891,0.00402598237289765,0.00105083440788683
0.0321297442928834,-0.0199978230906243,-0.00139857621504522,0.00211487360080929
0.0424292023688361,-0.025677926096736,-0.00480398081980682,0.00221494570075456
0.0150253921958127,-0.0171729443173138,-0.00388174264525458,0.00146402943582769
-0.014523590894244,-0.0010657602156079,-0.00168692438875051,0.000403218883031529
-0.0239351574967823,0.0192352183304768,0.000599978311721597,-0.000644729328852438
-0.017904649035877,0.0403374341334196,0.00580765483831516,-0.00173650424659499
-0.00628810747034815,0.053380565352173,0.0144371517598885,-0.00290215987825582
0.00551251894028528,0.0530338465270555,0.0207841784551639,-0.00378840407344504
0.0123852099680565,0.0439076496811463,0.0217564751407627,-0.00386328033194178
0.00445102496500739,0.0344479269508954,0.0192248311704781,-0.00299909126427419
-0.0154966124861394,0.0294832830512596,0.0140821117147829,-0.00146110093086615
-0.0294149751840832,0.0312365605878628,0.0105022185176493,0.000173868893475934
-0.0260847540118045,0.0358424624447305,0.011587753400518,0.00108195678605864
-0.0100619096444926,0.0402036273731452,0.0101496395250188,0.000642223857597078
0.00284519743611068,0.0479627445659304,0.00213943791519075,-0.000616116836375009
0.00012258446491022,0.0529629926691288,-0.00643671855835802,-0.00152377593284272
-0.0118215444716241,0.0415538293566497,-0.0130470208745927,-0.0019432706064462
-0.0187281995062246,0.0174632494804012,-0.0182802313767627,-0.00238072837872751
-0.0168656940333164,-0.00401900603914233,-0.0195235287963159,-0.00336395443076372
-0.0111661840354198,-0.0188652323603165,-0.0158769847248747,-0.00547534237990521
-0.00215378196546465,-0.0277814457011551,-0.00819853270081502,-0.00787423950608727
0.0101308237655275,-0.0285471671385283,0.00335069612903039,-0.00803697208319378
0.0143999673937944,-0.0278502323132983,0.0120516953183127,-0.00466682046558523
0.00915470490805808,-0.0304636232648486,0.0101957990526572,0.000460437723791557
0.00649892135989767,-0.0316041735023128,0.00482222326665334,0.00445074977845437
0.00533788020650017,-0.0299474672788921,0.004236940991203,0.00588798541383663
0.000652405426272122,-0.0191497093527089,0.00289121663866365,0.00540972409337333
-0.00311334240173784,0.00140867463245767,-0.00336777777779091,0.00429249269103761
-0.00574267018012355,0.0147644992516246,-0.00554269924220437,0.00304920314286799
-0.0147005726059559,0.0221727492465941,0.00336424465238995,0.00165155231069689
-0.0325969688900159,0.0438526478901645,0.0159689765592318,-7.9465015737943e-05
-0.0510565638743025,0.0701019161146546,0.0202185526792086,-0.00189318494926655
-0.0571987507887874,0.073980312292972,0.0143372708605811,-0.00274179326816516
-0.0386196961609899,0.0545762274187861,0.00640267900756474,-0.00207440292715383
0.00471995197569397,0.0296923616189797,0.00287500276790455,-0.000894358976045209
0.0457947062471921,0.0107290479596675,0.00173529969337347,-0.000888422765775289
0.061244068840814,-0.00449556411491214,0.000411162347313438,-0.00239280952987495
0.0582811406528843,-0.015084599058213,0.00201752889240013,-0.00373872926382253
0.0447596174241815,-0.0182887780948932,0.00231620176913985,-0.0032294333496701
0.0202551608343798,-0.0195703568995362,0.00037954579939577,-0.00101920034035806
-0.00483901220883387,-0.0218358623372495,0.00266284974759058,0.00131451933932427
-0.0178477557541471,-0.0206438551164241,0.0039262177482865,0.00256409281257865
-0.0195618902561941,-0.0157200055136089,0.0023206225096333,0.00230552632975807
-0.0175613846999049,-0.014761042378412,0.000337077204484381,0.000746960696430844
-0.00995819348011661,-0.0178746231443368,-0.00374607425057223,-0.000887714249743757
0.00295747475216694,-0.0164246331102124,-0.00354058076765178,-0.00151232712393657
0.00806260715731919,-0.0125073306091114,0.00257873325651909,-0.00106223932229721
0.00377252463445473,-0.0138137702828032,0.00519216893020658,0.000172705803836247
0.00206596780045535,-0.0182046699185269,0.00208914267866131,0.00176588437483327
0.0075581952692758,-0.0243607045898075,-0.00252607901141196,0.00268506156612549
0.0128676692708958,-0.0350447069165647,-0.00913890859115338,0.00202398826073678
0.0157045849184473,-0.0468507578346248,-0.017471944796635,0.000377434401417428
0.0184670408458723,-0.0494228392576942,-0.0212892274007703,-0.000765287884006267
0.015034962123001,-0.0388288464526876,-0.0137982140957746,-0.000478176235637571
0.00357880377799899,-0.0260506236736594,0.00233467175915109,0.000688993081520324
-0.00629368756204424,-0.0131913859066383,0.0189767206393285,0.000690547496470613
-0.00905279491256262,0.00312015065307926,0.0350108602721024,-0.00154150809690289
-0.0156538031235995,0.0043093407978485,0.0434656965090675,-0.00359072964791198
-0.0324727162142365,-0.0199334681802388,0.0300112921577062,-0.00191378942901173
-0.0408779679794992,-0.0418525258505577,0.00420560816661831,0.0038229448242629
-0.0305205881507587,-0.0390218306300876,-0.0156533001851308,0.0108488145709041
-0.0175777345159054,-0.0260674587419263,-0.0313253644311562,0.0157575642761959
-0.00571745730598346,-0.0129501339707189,-0.0398999923153378,0.0160894759909684
0.014498423494047,0.0130249502985945,-0.0281511095905246,0.0118067143543404
0.0367782762244676,0.052869115538694,0.000460244416630402,0.00479128981584928
0.0439753978858906,0.0703113473060065,0.0214352364458169,-0.00291840764765518
0.0275118290182456,0.0383477894282852,0.015900655696065,-0.00931628885194986
0.00104046345529533,-0.0120135116688108,-0.0091601068187498,-0.0124305966517935
-0.0181322809307468,-0.0497298117459343,-0.0274128607649011,-0.0115208300785129
-0.0245178529747907,-0.0738785006824797,-0.0208269990852821,-0.00784825965663584
-0.0132288978691764,-0.0804081787059665,-0.000495662391091523,-0.00379581242913505
0.0135142513086893,-0.0657418624282656,0.0120137229333421,-0.00143470961612212
0.0378287284240469,-0.0428030777294788,0.0137094117684009,-0.00118558197973164
0.0411905458413366,-0.0283296237616801,0.0100738055661937,-0.00140328623794292
0.0242737564083359,-0.0196596530850982,0.000263079859579962,-0.000192053379499161
0.00332539727287664,-0.00685205889663093,-0.00853624901979326,0.00246324963894275
-0.0054623930206638,0.00533305332194838,-0.00754484305088496,0.00526226511762936
0.000717424601512914,0.00934549701356576,-0.00206738899312646,0.00715363154281903
0.00934641978921007,0.0120688164648616,1.12615931361377e-05,0.0074991489223659
0.0107248460811893,0.0292294991247878,0.000584102669466352,0.00626534924761866
0.00242935066748562,0.0611203815478621,0.00256126861568128,0.00396554191501815
-0.012275688926695,0.0855585780052433,-0.00185726705509057,0.00119017868323409
-0.0202665240486572,0.0832709162398304,-0.0189190800517736,-0.00117346539470488
-0.0164705709304097,0.053905632450558,-0.0387333246824036,-0.0021757102345472
-0.0114474123144502,0.0124851366985677,-0.0438727690110368,-0.0016758012058817
-0.0080261737816313,-0.0179535528584491,-0.0259804772070794,-0.000911560407954963
-0.0052129993274117,-0.024093210158683,0.00422751775987317,-0.00138078322662523
-0.00959394842323638,-0.0137728184100258,0.0265109373431405,-0.00278857078471952
-0.0209209326748678,-0.00182824480156012,0.0334157804350531,-0.00341588100675234
-0.0319824628778696,0.00436575116316227,0.0284749326899008,-0.00242480955528127
-0.035643582265202,0.00934135842222381,0.0153095337350804,-0.00076651424933267
-0.0298146692837428,0.0193948565841821,0.00128236588381588,0.000539376814416801
-0.0292831240873032,0.0262367564070409,-0.00554398830775831,0.00191252145066226
-0.0428498958909688,0.0270522393515825,-0.00283402589336101,0.00382878708624677
-0.0429512058928849,0.0329136429169454,0.00615945846444775,0.00491486934540236
-0.0137578870005604,0.0386880123003477,0.0165151899411328,0.00343544536168419
0.0218664088092465,0.0333896886410699,0.0228257191938436,-2.74388940916803e-05
0.0303259519594171,0.0228127916949346,0.0184537691962616,-0.00333094011896761
-0.00656462195291198,0.0146814344895435,0.00598945304754946,-0.00479916499962755
-0.0605564429735372,0.0111480031025148,-0.00440865300788837,-0.00390589894285902
-0.0909251255189765,0.0120271684926389,-0.010521860309112,-0.00127019456880783
-0.0906951062183954,0.0115890682992012,-0.0126515513337222,0.00175293927192729
-0.0649128181329659,0.00434571652141939,-0.0109981077264782,0.00405438218276418
-0.00518009448617757,-0.00559119398949409,-0.00981176073946294,0.00502575242211815
0.0757819355015874,-0.0153881648695528,-0.00872201474891045,0.00408380465748655
0.117412790606529,-0.0214607319717505,-0.00442425301346635,0.00135026816898117
0.0867822882109602,-0.0157964595970325,-0.00466795002130702,-0.00199372514548131
0.0263073167645991,-0.00560270682053554,-0.0137185018430023,-0.00408965637766543
