-0.0260633789894991,-0.0167104570814545,0.000357757886748915,0.00437018318379248
-0.027575172634696,-0.0131627644991841,0.00417888096787492,0.0071886628102173
-0.0267041275274354,-0.00965403536830046,0.00347712731754234,0.00732916278144873
-0.0219122895413447,-0.0138670381494652,-0.0033985830552177,0.00526805695390235
-0.0141065884368444,-0.021408303196455,-0.00900253378853368,0.00186474901974407
-0.00392691476427558,-0.0207978694326553,-0.00617023407276173,-0.00148687002373508
0.00636920972138058,-0.00989485687603849,0.00240967990417712,-0.00363027203919401
0.0145121495165793,0.00124977480427683,0.00686391872760504,-0.00422176381697258
0.0191172856240073,0.00366427431778872,0.00529430210289464,-0.00380550225436313
0.0189771304770901,-0.00347352359349329,0.00277676587061807,-0.00372036131978683
0.0112264870032566,-0.0130940657697977,0.000910736197067448,-0.00477956130905919
-0.00428909623845087,-0.0173263135541552,0.000295516659201033,-0.00578858732090521
-0.0209994011852999,-0.018500425301741,0.00138461360306583,-0.0048207500191024
-0.0338524313529372,-0.0205661716174002,0.00344732986739227,-0.00182207454005416
-0.040669524960107,-0.0165393963292651,0.00358612874554258,0.00153637110542957
-0.0406110573698341,-0.00788605530329443,0.00105375196970239,0.00397084322220735
-0.0357946716948291,-0.0106290104671186,-0.00101629845507306,0.00512743167933997
-0.0264525319322471,-0.0244922908009603,-0.000545659084773686,0.00486891174956011
-0.0152466087194967,-0.033094987859129,0.00158019572970688,0.00337714830901951
-0.00595044271333699,-0.0294042171302015,0.00331695766905212,0.00135456083030771
0.00457016655028724,-0.0191368736398646,0.00406692876017394,-0.000255743246146916
0.0144849143054713,-0.0138134514358337,0.00429916798382514,-0.00101374020546228
0.017461885255381,-0.0186687032079347,0.00438382384823861,-0.00135924523439926
0.0160736805298718,-0.0142646319111202,0.00348244698729992,-0.00185220263557361
0.01749959858949,0.0192966463404535,0.0032770008709407,-0.00249801901098851
0.0203222728557782,0.0528944164790034,0.00454584184484512,-0.00294388999750165
0.0164278132216987,0.0491233362853294,0.00408405456404985,-0.00314234371503691
0.00793940952492348,0.0209612701043011,0.00186632203285904,-0.00336439402296531
0.0010007903723521,-0.00116419518353442,-0.001139999805973,-0.00379630771307362
-0.00319865120798449,-0.00769041623770055,-0.00409619614419398,-0.00429608106707239
-0.00232734732206796,-0.00663801015011527,-0.00402309339237649,-0.00393398427761011
0.000786316310474496,-0.00780136210902245,-0.00246949287196722,-0.00174098210035609
-0.00155514558697564,-0.0107493211552272,-0.00235527255649156,0.00155894714676316
-0.00824406855311851,-0.0106811367936879,-0.00362002235073203,0.0038582692801651
-0.011059227659879,-0.00812373560533196,-0.00724296412077022,0.00400005351614361
-0.00798295465285483,-0.00486988920721763,-0.00889497797705989,0.00268211943303221
-0.00287063585265142,-0.00254624687796206,-0.00487504629424123,0.00129201705399461
0.00139182688650861,-0.00416105979071336,-0.00101758260645132,0.00062032677632849
0.00606077802617265,-0.00793276314216201,-0.000559477551851319,0.000364870797895321
0.0144401032930327,-0.00602378107410065,-0.000883388293555384,-7.75967209263812e-05
0.0256461654389024,0.00359257698333637,-0.00261315242034725,-0.000720461813347287
0.0371920082641619,0.0122567905003749,-0.00659987771048545,-0.00135320127767429
0.0441449198496526,0.0100185927806254,-0.0115121438041705,-0.00180510710803287
0.0423287564295596,-0.00272274920734938,-0.0159417823521736,-0.00131909856373657
0.0340378916369391,-0.0194040426408875,-0.0170260724610252,-8.52195770834808e-05
0.0205585635284842,-0.0381833309163407,-0.0146537085712523,-0.000253712199089175
0.00540261461073335,-0.056827015949555,-0.0116510313316473,-0.00216388817088612
-0.00457889051313077,-0.0689664167273182,-0.00858618160814318,-0.00280464612334727
-0.00865364344352749,-0.0783179132817441,-0.00533586445431055,0.000165581347499927
-0.0146429369451592,-0.0924047962927865,-0.00577513821918494,0.00460659070689353
-0.0266138737439072,-0.0990899973262454,-0.0122368920688362,0.00606050753785324
-0.0380135936504222,-0.0765191192321999,-0.0158900200386728,0.00389965197062804
-0.0491575224669085,-0.021419930999879,-0.00862398638832096,0.00143051405162469
-0.0567232406453208,0.0352728759317862,0.00389287417532465,0.000554276624821314
-0.0438631598534755,0.068940517837841,0.0119754707829725,0.00055367978142029
-0.0199454560554092,0.0981868910585042,0.0132348255431881,0.000806308526457749
-0.00345283415125479,0.134704990485518,0.0114018956932919,0.00167573574601838
0.0129897188749703,0.152778093385593,0.0109290948963762,0.00322187053058719
0.0336170105485805,0.130616689094387,0.0110248575847812,0.00427826801168702
0.0496291010541981,0.0832029068643188,0.00800245648150753,0.00367073038023003
0.0569074517747775,0.0338990281320607,0.00356354911707965,0.00186146625934893
0.0605425334711244,-0.0158598384682167,-0.000536530029919904,8.48070907597323e-06
0.0545435255639149,-0.0601735158671214,-0.00376342921816444,-0.00158416598186354
0.0253560000245994,-0.0782612843475832,-0.00453197410827081,-0.0028030102696978
-0.00943877276332827,-0.0692789319441528,-0.00401569371493938,-0.00303797446979285
-0.0232807417542533,-0.0570211242411742,-0.00431756611908788,-0.00225469565911042
-0.0221294989060226,-0.0519912818903983,-0.0062912913531823,-0.00166442055259958
-0.0197543678740707,-0.044944838009067,-0.00702927570988272,-0.00186804030084688
-0.0165743847649067,-0.0327506886769896,-0.00378534067490445,-0.00142989457756405
-0.0123648495672977,-0.0208195933128313,0.000258961979060415,0.000779988157436907
-0.0108220469786099,-0.0100044909004349,0.00230756859078864,0.00348968114728948
-0.0122684937902297,0.00358102093692735,0.00203794079020427,0.00459109344311071
-0.0128745360954153,0.02045599296717,0.00224636813705405,0.00370008720745351
-0.0102644479541441,0.0345765821180038,0.00517144775071698,0.00257104571137147
-0.00678623844906755,0.043649027969242,0.0069118031186733,0.0025999972891196
-0.00689437008488689,0.0502260451726358,0.00702499540504822,0.00303785555415956
-0.013894641086338,0.0533306832185503,0.0102434788889751,0.00269706137525964
-0.0248758521155353,0.0541470640414535,0.0175034242934812,0.00132618403707406
-0.0260217453118935,0.0550649546063914,0.0251197390338302,-3.9895096979603e-05
-0.0139433622010795,0.0538381472604306,0.0271193547445201,7.07498526941086e-05
0.000816540638229675,0.0525646265569848,0.0215337529488431,0.000864622950713586
0.0149750730634303,0.0551413111903407,0.0135575503170672,0.000178827580005586
0.0260073292049116,0.0566983006397557,0.00881613915878418,-0.00188669685841523
0.0305988410565752,0.0504502904998426,0.00753617113596773,-0.00335245347209472
0.0316687034344137,0.0410067912381344,0.00622353497228725,-0.00314459679550988
0.0296127191220253,0.0364588103583562,0.00443975239338659,-0.00168276985968889
0.0225848377485258,0.0348135496539808,0.00482318560501141,-0.000287132229250352
0.0158822849248331,0.0298104710811357,0.00537568692470209,-0.000405751296070302
0.0124868598978461,0.0179619144759541,0.00407877003508225,-0.00209229822036908
0.0086933700515161,0.00369200442926992,0.00374310996622276,-0.00368996999062835
0.00483633957339025,-0.0067664637864267,0.00423392065899744,-0.00393474534775566
0.00363543546707497,-0.01214140997358,0.00368414110689576,-0.00329865792231344
0.00364156983050868,-0.0117730587824015,0.00161931814946217,-0.00273248382035224
0.00206871210630743,-0.00979938264368076,-0.000824636664194661,-0.00243944575011387
-0.00211872089622578,-0.011994080300618,-0.00133120574748533,-0.00224521368204943
-0.00812538944679074,-0.0132663008779977,0.000451609237554289,-0.00152894723448219
-0.00945323219833902,-0.00945647140147962,0.0013810748502491,0.00033488087560289
-0.00434404966645669,-0.0047732014335245,0.00082972463189032,0.00231439479319287
0.00101516748296718,-0.000565757548810181,-0.000311921894596424,0.00279847296047992
0.00701489055728793,0.0029736621283163,-0.00246079722538163,0.00161920921408067
0.0132633543483935,0.0026381577111303,-0.0043233563774667,-0.000163332601305461
0.014652800146234,-0.00167389439952918,-0.00503640331409776,-0.00162029678400216
0.0128922056608277,-0.00606148577438868,-0.0033484159071159,-0.00251503642724517
0.0112296884956135,-0.00295129512687121,0.000751535961960496,-0.002746067941759
0.00996134849625493,0.00787760094404306,0.00365804664190741,-0.00246997508665417
0.00655784165957587,0.00972490745509932,0.00320632957675884,-0.00196857769009978
0.00251233274053893,-0.00584262109127626,0.000436741919489776,-0.00143699108504397
0.00289539647912497,-0.0222000086969747,-0.00137968798761232,-0.00109373208309547
0.00433399339941379,-0.025207823664764,-8.74746499395878e-05,-0.000962888004556265
0.00088639347893547,-0.0210323045281853,0.00142929462746863,-0.000971939215435678
-0.00594018943892923,-0.0195755366359672,0.00110595365575168,-0.00100510094477169
-0.00944255500914375,-0.0207806325939442,0.000238728188797313,-0.000981901873375405
-0.00761730064834215,-0.017058883597715,-0.000558746178247902,-0.000927332424407524
-0.00335544308235293,-0.00752157510328649,-0.00104913308002424,-0.000778227467262899
0.0025225291531787,0.000727328016722116,-0.00038465862193825,-0.000384707749661296
0.00700678795583147,0.00288066730735187,0.000217245243877367,0.000281566960273187
0.00347820068054316,0.00113987736613328,-0.00152043488016395,0.00106395864060022
-0.00767374489565991,-0.00266741665526856,-0.00397055320707542,0.00143976742759805
-0.01533040513591,-0.00816278219267905,-0.00187399250642618,0.00133372501816949
-0.0114950427262249,-0.0108616222736906,0.00370745319690499,0.00181757319794743
-0.00449194352260417,-0.0112766517309277,0.00597026368341203,0.00323193300888269
-0.00154518225155436,-0.0127891173074564,0.00305282236151268,0.00402706122873312
-2.47161209249534e-05,-0.013491463789964,0.000413564499802956,0.00259731109635854
0.000203599685393791,-0.0144978555696725,-1.48472567142646e-05,-0.000686270726691571
-0.000165074614986348,-0.0162510092630305,-0.00151990320989073,-0.00382311838339952
0.00120989622377555,-0.0141591665856803,-0.00197500325029955,-0.00536472580822103
0.00192719021501235,-0.00833966831021066,0.000162939263671387,-0.00514322311742346
0.000592167791146537,-0.0028614476278699,0.000668779500782334,-0.00323723030261008
-0.00139889453745049,0.000960526189233964,-8.80652727371499e-05,5.17355174245344e-05
-0.00347294631991786,0.00403899497942316,0.000871810947557291,0.00369264956629824
-0.00444428154814196,0.00810730128608989,0.00257985681945101,0.00605575276587017
-0.00420988866495532,0.0132974805484728,0.00524749687547758,0.00609301101683607
-0.00346496844061201,0.0142386125782578,0.00637024806875922,0.00438696697739673
-0.00370428334664205,0.00956036690689372,0.00336443522952962,0.00195133938497364
-0.00538383218686489,0.00382418766689072,-0.00250666085139975,-0.000536468085834874
-0.00700532301475978,-0.00150833269512343,-0.00854843686434629,-0.00187022233154961
-0.00754042537226027,-0.00597066312365181,-0.0112277526380266,-0.00159742628279797
-0.0062147335275155,-0.00830433112723375,-0.00953844129351749,-0.000851825451274448
-0.00415406868258716,-0.00948548423186013,-0.00517325102356722,-7.74962445892866e-05
-0.00335133836203665,-0.0113152787415075,-0.000853982817361798,0.00110728133804277
-0.00335974584471206,-0.0151233978486545,0.000856164572534394,0.00211826874503432
-0.00526362293723861,-0.0179221627492112,0.000357229981453096,0.00168773746586591
-0.0101672584996918,-0.0155354428134084,0.00165660121409299,-9.84862443544133e-05
-0.0125189438552171,-0.00830420429257342,0.00480229254313542,-0.00139323616622319
-0.0075863836144041,0.00115383321301098,0.00601438947752066,-0.00110003691911276
-0.00115593414546431,0.00682602148295031,0.00320747474803307,-0.000170776257804109
-0.00143479375674631,0.00405320584068044,-0.0036275769703797,0.000264839492621701
-0.00530726318190156,-0.00142018645545399,-0.00853370068269859,0.000159977319650757
-0.00548688428921163,-0.00377660922217794,-0.00562276844216333,-0.000382298459707136
-0.00310185163779277,-0.00432306366810841,0.000284913331494464,-0.00110028812819802
-0.00211837295381509,-0.0031002322568387,0.00147877287913038,-0.00106252969097769
-0.0037894409492403,-0.00531531342649243,-0.00154724786968966,0.000230409760122003
-0.00576983708867909,-0.0144217897494797,-0.00380236194814138,0.0019243329966214
-0.00834306167214277,-0.0235575024560197,-0.0057551285275377,0.00270070641328042
-0.0160228567189119,-0.0310995111719308,-0.00916425957294267,0.00201052431716949
-0.0242485948583063,-0.0367368638349045,-0.01151534076529,0.000160105273481143
-0.0281726674156294,-0.0348617973392458,-0.0113903043233319,-0.00211499773541961
-0.0301247032341127,-0.030640398164024,-0.0105968624488413,-0.00392667326286649
-0.0267554785808961,-0.0281572350216685,-0.0105329758790449,-0.00437831986063255
-0.0140218611935474,-0.0148527482108047,-0.00840923055160471,-0.00326941478398656
0.00415616421808471,0.00235526025766351,-0.00396485067803677,-0.000956851895633439
0.0206432707176826,0.00179766052393613,-0.00298349566736868,0.00178148771646791
0.026623488332496,0.000249030437607043,-0.0057420571801653,0.00275241617160229
0.0199079690172629,0.0162764577885332,-0.00741339977941939,0.000217558697488357
0.0135651720625732,0.0316964580470275,-0.00638865158284921,-0.0045419395831158
0.0132014673329724,0.0317323496809539,-0.00309860732542376,-0.00850689137177929
0.0084661963774311,0.00766675402766831,-2.86046482426694e-05,-0.00922868238526455
-0.00379100479915319,-0.0315899183017146,0.00106011109781369,-0.00493233352939546
-0.0150314155622244,-0.0498421068786455,0.00145263702402866,0.00406233203905766
-0.0155852853740594,-0.0393005523744551,0.000373908620122467,0.0136050327118816
-0.00861388226933523,-0.0211511257929415,-0.00214267306455902,0.0182704524732486
-0.00616124591639674,-0.00657197901173149,-0.002801750657438,0.015462760647044
-0.00881353139819782,-0.00479707317558955,-0.00151877182475397,0.00756270266416368
-0.0145407114242151,-0.0174727204083727,-0.000512691975295534,-0.000651821245440162
-0.0255743978818989,-0.0244045493339488,-0.000114602967459096,-0.00607334525399245
-0.0339817005199601,-0.00799901143111008,0.00249732580647288,-0.00801297842331554
-0.0295554821890451,0.0172736872108502,0.00646511140440817,-0.00725203447795814
-0.0148449968000903,0.0168391870147256,0.00742872203210976,-0.00503922868501992
0.00141017068418904,-0.0153021824404534,0.00525988280735581,-0.00243906623066402
0.013599470569391,-0.0503373511465642,0.00285816181401394,-0.000154589424974421
0.0201180581757947,-0.0686875386045331,0.00113313131600146,0.00173012197195115
0.0221857503797964,-0.0696047518243482,-0.000996615242226117,0.00336797823563815
0.0225519438474703,-0.0547536456491778,-0.000745815957705271,0.00431723189168019
0.0161294129117881,-0.0342091380821039,0.00254296020456325,0.0039329960649285
-0.00136829810209483,-0.0180933476713296,0.00377462399959092,0.00235477184834254
-0.0199667709179997,-0.00902247197936468,0.00136046783890576,0.000568441124394879
-0.0299891839433737,-0.00592239884299708,-0.00144805383885875,-0.000722001451141966
-0.0265755085530061,0.0119261231052081,-0.00199023132257097,-0.00149355325411825
-0.0117022870027092,0.0645116320496159,0.00246938676722043,-0.00171214167474297
0.00350784620762317,0.118706373988354,0.010770783546152,-0.000846440317630797
0.0128010511660977,0.123195906054193,0.0167795744510831,0.00162492789303013
0.0185399294046679,0.081214927140453,0.0168907886033448,0.00449543754989008
0.0232123701774873,0.0361282163970244,0.013845607943226,0.00519501195076269
0.0300919233994679,0.0122408815668297,0.0112437883881942,0.00351184411058064
0.0368482483800632,-0.00345021163122572,0.00929831516590979,0.00208762997732388
0.037421093722853,-0.02344692035394,0.0084450739500616,0.00296045022893267
0.0339578827693984,-0.0360466244578718,0.00886109268861113,0.0057048737330068
0.0253587306045424,-0.0296028517172318,0.00957705381281985,0.00753489922206398
0.0106885836271361,-0.0131387378631285,0.0105516449326075,0.00633260269187825
-0.000450309302764094,-0.00128394522966701,0.011451324071739,0.00305090225665992
-0.00403519693686489,0.00278891118222086,0.0107216179160345,-0.000729373002810462
-0.00445735313825002,0.00193433446146198,0.00802253010144012,-0.00416359752423875
-0.00212132435462857,0.000357708809867702,0.00452006335629851,-0.0062039000853318
0.0017226546865279,0.00258707128875302,0.00347733528500489,-0.00656619738323374
0.00472276470003178,0.00633522061172733,0.00506312812516511,-0.00590522079506198
0.00655029556449025,0.00836305467979111,0.00598480034666082,-0.00467323701517301
0.00675259474585768,0.0115206278640131,0.00606550099117457,-0.00334179636277796
0.00730242623046792,0.0160456254168335,0.0065718136978359,-0.00248116262306688
0.01070133876489,0.0193941196055133,0.00689495807041075,-0.0021352137097528
0.014949268752545,0.0186843982931711,0.00587962557656946,-0.00197608153338294
0.0157010271499981,0.0102853940193035,0.00441023049920731,-0.00147124282471323
0.0135764024299568,5.70249133855644e-06,0.00440392089023205,0.000257090939751414
0.011126030123779,-0.00291645186202939,0.00476553706251683,0.00308148857121022
0.0094300620783194,-0.000583360396759647,0.00388808308668922,0.00559860129680899
0.0109289652956586,0.001294500823142,0.00196203980643746,0.00654992988464095
0.014316009932027,0.0018640464987123,-0.00015880605828868,0.00512007230560056
0.0134091492573031,0.00513696641159304,-0.00112436080681828,0.00147227467835481
0.0105276877392866,0.0136564174548006,-0.000586951857830977,-0.00273876914219393
0.0123480353467524,0.0249171084218901,0.000893612569934822,-0.0054656280450855
0.0143104919512371,0.0365239346300065,0.00224765069282093,-0.00568516736457245
0.0140198624282396,0.0435633335981177,0.00248864984251757,-0.00390254212203673
0.0142629647671782,0.0420546173388541,0.00213468612991863,-0.00190589566497066
0.0118876719690716,0.0326762449794839,0.00270628631824653,-0.00120034714358375
0.00779580923288647,0.0174781713108705,0.00311398508946475,-0.00173670656898699
0.00646840571976237,0.00608468294286935,0.00185509588887095,-0.00281141440941576
0.00881779255860767,0.00368896250405576,-0.000769150154918693,-0.00373266460784957
0.0120071407136254,0.000259985494258964,-0.00334081300085065,-0.0037936511518239
0.0132537358570344,-0.00860063824069931,-0.00355646100516462,-0.0027545412365875
0.012664362280607,-0.0151940038663369,-0.000769686243828027,-0.00109584134331941
0.00737267780453434,-0.0149645000906836,0.00126126309622952,0.000350630700284546
-0.0031348393524126,-0.0093831571377182,-0.000870434076915328,0.000684049512322823
-0.0110062139822027,-0.00676423272151868,-0.0064768255313088,-0.000275756519869064
-0.0148003011093741,-0.0144612562139357,-0.012315338515622,-0.00149220487360484
-0.0186278709779765,-0.0282148044895786,-0.0137586464717227,-0.00203488691863315
-0.0248274092273364,-0.0385997632866333,-0.00922847930410306,-0.00190850866853273
-0.0361018945736263,-0.0385976764896307,-0.00332762125479675,-0.00121382314797127
-0.0404896532635436,-0.0303794822929075,-0.00278190484555288,-6.65660184942451e-05
-0.0287333115105635,-0.0208048067734316,-0.00544904527196514,0.000798198277148516
-0.0155751086988776,-0.0140492246532334,-0.00452460198971906,0.000939454452496009
-0.0160450083304851,-0.00794404247463086,-0.00238204316178279,0.000594120344298862
-0.029763745678907,0.0017987889076927,-0.00440283933221806,-0.000395639839116448
-0.0418919432247313,0.00962820622481012,-0.00909943061978958,-0.00193764928557192
-0.0384957332201845,0.0248780698350504,-0.0125967624884812,-0.00283103712681277
-0.021448944140031,0.0635080231421357,-0.0117122458868424,-0.00219934977169756
-0.00192637319361723,0.0878034263405003,-0.00687755785086941,-0.000328986033199307
0.00901394616276378,0.0637735721918452,-0.0027108504925154,0.00182333904079354
0.0102709227551752,0.0289018462074262,-0.00367300881829858,0.00298164558693576
0.0106478590448549,0.020399661543841,-0.00921288723482666,0.00237523139099493
0.0166375334429776,0.0317769231338027,-0.0135098797755012,-5.88544281342179e-05
0.0290638574083693,0.040031252104281,-0.01351209813086,-0.00352013829116166
0.0398480611588391,0.028686125482938,-0.0103113392233152,-0.00613363828067981
0.0377436706436338,0.00340282758431029,-0.00672904094582717,-0.00616414295827868
0.0244990731334937,-0.0232307686531934,-0.00514550139649588,-0.00312051000293002
0.0113712078596799,-0.0360929084590294,-0.00433634868268663,0.001568167657433
0.00326230807297422,-0.0169829417831742,-0.00145921837079271,0.00532033340499161
-0.00224189090840993,0.0154374098736422,0.00195445051951815,0.00704912460351761
-0.00375274815162538,0.0194526011986492,0.00202881621827768,0.00774236460569653
-0.00586525667610546,-0.0161654628558102,-0.000427521256039719,0.00813604537098167
-0.0160018237182103,-0.0655857699324963,-0.00248462364944021,0.00778860473646924
-0.0238390370557187,-0.0919981188808383,-0.00428121856538499,0.00593989840014262
-0.0191396500451314,-0.0883234426724356,-0.00805186854389468,0.00197214255574295
-0.00773453407496958,-0.0786195868244162,-0.0114592839634952,-0.00350311401205206
-0.000131531856672026,-0.0792781902760382,-0.00868133300924073,-0.00786020855893074
0.0059750418530519,-0.0725708255105084,-0.00355156726039329,-0.00904001296365984
0.0154591718996609,-0.0307561896756848,-0.000760382583727118,-0.00759442761107439
0.0180440061934893,0.0285021021239787,0.000226990778496897,-0.00512351881691717
0.0158214205520845,0.062493065176544,-0.00233818339497429,-0.0029043443916744
0.0219517028924452,0.0701225864044542,-0.00559170273181791,-0.00122783364261378
0.033292779542476,0.0905211240811002,-0.00595335571743612,0.000646429213199342
0.0383905869549368,0.120243237199906,-0.00553639071824966,0.00337720730930004
0.0285860831977237,0.110402188539686,-0.00566402805007497,0.00645385767043433
0.00804000857510283,0.0604649350720007,-0.00640755044763549,0.00814355877952944
-0.00943547053043883,0.00924481136942142,-0.00495476135131379,0.00744200658274279
-0.0151302211683203,-0.0238604112401518,0.000285915615960939,0.00530464650548229
-0.00672393332558778,-0.0392667011872514,0.0029360076846234,0.00294962490312065
0.00742693433644006,-0.0439832661389316,0.00322428988570696,0.000754924013073197
0.0147333271511616,-0.0455940379525483,0.00497271371116729,-0.000961888573315597
0.0126582826538085,-0.0455356067996581,0.00599912609650386,-0.00167168105957289
0.00806168019341297,-0.0409258020232836,0.00599798169065623,-0.00118811423521202
0.00853851919910965,-0.0295122057110237,0.00875695886277109,0.000182846003010328
0.0121843024855211,-0.0155593083599202,0.0126708637433873,0.00222759074909242
0.0139934150656477,-0.00851054515009929,0.0103025427693338,0.00402941619097746
0.0141013776825534,-0.00976904188339929,0.00152188866722292,0.00375616022169782
0.0129102798447248,-0.0133372566698603,-0.00535379667463134,0.00132412941287906
0.0108608489010361,-0.0140200896978413,-0.00518366214401463,-0.00134712133619789
0.00886238531053765,-0.0106240601206609,-0.00236570328009885,-0.0029084287416328
0.00512346202770511,-0.00467112116894514,-0.000113021349268595,-0.00340462195727587
-5.47196425832578e-05,0.00145593677554628,0.00235118735365741,-0.00324887806169096
-0.00246228263844084,0.00735292170367335,0.00355488914797668,-0.00283689477668541
-0.00439993619660996,0.0125615317599221,0.00226103766803265,-0.00260040821618847
-0.0106118884112646,0.0155480763358474,-0.000468001390109121,-0.00280829598900651
-0.0169401493475924,0.0186856114098114,-0.00300363225389074,-0.00350179496819402
-0.0174026548834827,0.0227810853727667,-0.00312064433940193,-0.00390986576092968
-0.0120363867454235,0.0251159482058115,-0.000736179106331793,-0.00317445351004505
-0.00706293870597598,0.0252054552867064,0.00119802346057208,-0.00153739354094467
-0.00984753545067023,0.0257103103144402,0.00200440600333111,0.000437580074697859
-0.0190728799164775,0.027251449876289,0.00205571035848109,0.00228701825637357
-0.023762627290307,0.0264756445993197,0.000299895272952213,0.00320376624078707
-0.0203293602279915,0.0226793846625744,-0.000688774297218344,0.00252331277685164
-0.0167708289662268,0.0191500507785747,0.00343971037608837,0.00132913992952063
-0.0160325858850618,0.0179473301777393,0.00826143040772776,0.00208472296305524
-0.0158183739692407,0.0150407350135651,0.00717380210078065,0.00443216905834197
-0.0139496750299058,0.00857813542405706,0.00311554869596589,0.00436251908967799
-0.00950798568254129,0.0021803603658973,-0.000625871639403983,-0.000312650847571355
-0.00414865766004289,-0.00336764847276323,-0.00415640027222508,-0.00651726724048839
0.000335749553106013,-0.00708320952649113,-0.00575379771104796,-0.00894090835940001
0.000339154576154983,-0.0089263834356587,-0.00662330597761112,-0.00507923187419291
-0.0049281235336974,-0.0137685337424909,-0.0110452148294132,0.00224201312945434
-0.00993377525330945,-0.0189869367300673,-0.0175552836544242,0.00689483639917393
-0.00848279172388766,-0.0141790581267337,-0.0181520579382725,0.00528096050926536
-0.000748329817222088,-0.000427875862311029,-0.0100760996839334,-0.000672546103727847
0.0029272337249257,0.0119302245838302,-0.00203763297375056,-0.00633181448146649
-0.00286077532530445,0.0169710556625658,-0.00135802412520631,-0.00893385888900892
-0.0135579399659782,0.0136401368068214,-0.00312874396742769,-0.00859961375200741
-0.0224749987526009,0.00555885929205185,-0.00314204975199605,-0.00624325669198304
-0.0254459780580541,-0.00293301908743844,-0.00436085382912449,-0.00287600484020717
-0.0260818407604636,-0.0120307101151449,-0.00648668341039168,0.000307843429491761
-0.0295526313362363,-0.0221508740255064,-0.00611040946389779,0.00252805217337039
-0.0333074097909412,-0.0322025710349684,-0.00348958817928781,0.00353477534498113
-0.0312441200104194,-0.0370104628969535,0.000946055333842384,0.00334062035912854
-0.0243708549713456,-0.0345136597621807,0.00524527389728335,0.00230577991758012
-0.0162511006597643,-0.0331847422701446,0.00528929296310799,0.00102455418744387
-0.0081279243695723,-0.0357813934094257,0.00096483858554644,9.6046471651879e-05
-0.000201735851157063,-0.0249818664667524,-0.00517286552642863,0.000212067679255179
0.0114561008911551,0.016617797808237,-0.00837134486407416,0.00168204729214793
0.0260118986525696,0.0648647184718577,-0.0053033097880155,0.0034175248016016
0.0333493190160071,0.0750158172467044,-0.00128649519876535,0.00357455230458923
0.0294824847856031,0.0443239891097312,-0.00139300773941325,0.00175232021361743
0.0196363369342867,0.00532327549210929,-0.00329636967364343,-0.000498461754130034
0.00922251506250326,-0.0173500693671905,-0.00461578286349347,-0.00159005168855334
-0.000784341959746332,-0.0243189818893239,-0.00375729585516456,-0.00134834791513961
-0.0112743390826793,-0.0270393295567768,-0.00242613046014529,-0.000423628954434734
-0.0204725796994796,-0.026942137154495,-0.00214719295491287,0.000671354997271308
-0.0257662957261553,-0.0234028235544735,-0.00121402268257212,0.00148164891636576
-0.0258789545153868,-0.0191300675476813,-0.0010554366114649,0.00154335073651345
-0.020811768064741,-0.0173640353663705,-0.00181756698710331,0.000969188816292577
-0.0125769728550039,-0.0218936199931542,-1.87335152077609e-05,0.000443284520710073
-0.00555279220206313,-0.025380699130677,0.00411218910516204,0.000614049232364633
-0.00140124570878501,-0.0179993698449309,0.00706091654127621,0.00159150986548487
0.003395823322705,-0.00705535124876897,0.00693274709695931,0.00271548613643989
0.00972344242666357,-0.00222188146445048,0.00313726808170706,0.00318279658284387
0.0142926171017865,-0.00239925113160788,-0.00269633426011842,0.00237380329678827
0.0166108066512139,-0.00151013691099491,-0.00487703480007473,6.36702344050436e-05
0.0173819882787533,0.00339412238866649,-0.00272735134173445,-0.00287845893753873
0.0153402794661977,0.0088248193250503,-0.000376439571721152,-0.00512706445283784
0.0102239865941069,0.0122599091226419,0.00172036122408581,-0.00552100799996854
0.00581503459745565,0.02297642429518,0.00382996467299959,-0.00279435515171701
0.00790274610675895,0.0467118689340397,0.00591700559312949,0.0024548653281873
0.0151178729163046,0.0628149926124486,0.00727745300306503,0.00656571146553985
0.0190533796625361,0.0543069417267091,0.00696871625684138,0.00678238269743977
0.0151635940636028,0.0299883231447688,0.00555870212888492,0.00423587015843893
0.00346117883730287,0.00431199387803902,0.00243912163310426,0.0014695199477576
-0.0112992257092388,-0.0124424054978078,-0.00181899273658232,-0.00047509212572475
-0.0222189862679724,-0.0208847833236479,-0.00344508935291533,-0.00158463417212081
-0.0257105576931641,-0.0275480037667364,-0.00203164555191739,-0.00208135292930022
-0.0212122749592373,-0.0303970651615715,-0.00109279770944668,-0.00250270727373696
-0.0147107566735018,-0.027982846265207,-0.00268183909547107,-0.00276944773639945
-0.00995607910777353,-0.0221358112991035,-0.00423945402896128,-0.00234755412735164
-0.00278901292338674,-0.014925978814732,-0.0030416732488462,-0.00137512402196314
0.00787508135941779,-0.00853372429122137,-0.000665172075529054,-0.000210984804253543
0.01878764729793,-0.00269383792770814,0.00123039636965651,0.000948583108962468
0.029755545808956,0.00374302759455025,0.00348715599000083,0.00165833839943585
0.0371320355112288,0.0111644551789129,0.00392684695092324,0.00169836595447629
0.0336543075293805,0.0170632550996111,0.000525861362306405,0.00167581486642877
0.0240805402847786,0.0195642118588805,-0.00314667088979083,0.00231965907462313
0.0143589976160001,0.0180334287066248,-0.0042430507048665,0.0032015651298922
0.00356912236851684,0.0125866551542303,-0.00408590200342485,0.00351727955943283
-0.00491967644731301,0.00481141713507716,-0.00491194999285599,0.00334949059300969
-0.0092979252768158,-0.00260893986661019,-0.00738198518388889,0.0026811716224921
-0.0122548872617618,-0.00484295764658967,-0.00857566223991805,0.00120415876823868
-0.0123754258994429,0.00171610136100497,-0.00618620323663684,-0.000999028591202609
-0.00795162981015551,0.0124812006589185,-0.00356247005009705,-0.00332324293068989
-0.00410854526596181,0.0171435972222767,-0.00208048310912163,-0.00483906831850221
-0.00489099137655382,0.0132688714939925,-0.000909378186954668,-0.00503782525848391
-0.00697437099933132,0.00775224758123245,-0.000738243216253743,-0.00415146556953893
-0.00787564316882437,0.00266989498939186,-0.00157294130846475,-0.00290729936983063
-0.0106213042736355,-0.0040062001256004,-0.00416142198018172,-0.00212813749605576
-0.0150793795461403,-0.00942641902224848,-0.00816068959775133,-0.00215986811045325
-0.014217158268751,-0.0113352792302972,-0.0101307832785951,-0.00210210206818044
-0.00617010181083321,-0.0105451193236934,-0.00926594844165539,-0.00101304978933128
0.00179193697785948,-0.00789765682172169,-0.00790687584653566,0.000543724431544559
0.00618343917019732,-0.00421573067031988,-0.00634591079229225,0.00149565532036751
0.00981393537692516,-0.00245099407592448,-0.00496473674045924,0.00159591490393287
0.012311712156835,-0.00454336416778274,-0.00452629637989541,0.00148659873230709
0.0110095658302381,-0.0071210869507226,-0.00432643581591956,0.0016790762069619
0.00571823749527132,-0.00844126817619418,-0.005747056390147,0.00212941592036205
-0.000935806952081784,-0.0067616700698847,-0.00836601814611774,0.00256144458359235
-0.00662980409324055,-0.00298933894314307,-0.00960989901783731,0.00274604280118887
-0.0121383908740703,-0.00333679734255695,-0.0104780326820556,0.00310960643527888
-0.0152851492354641,-0.00650250195612114,-0.0121104522048182,0.00384567068056415
-0.0134828662777622,-0.00676361178757341,-0.0136118198292809,0.00386353913685294
-0.00892516675434889,0.000282767767240667,-0.0127937493656887,0.00195477947218904
-0.00849314420458287,0.0144025495582655,-0.00839749773056401,-0.00160804604025556
-0.0136405248553384,0.0252358364576797,-0.00388234623215127,-0.00409168659260424
-0.0150229945376212,0.0227203798392253,-0.0063710826459977,-0.00344655373990068
-0.0119685043704108,0.00517265278903042,-0.0144570576105162,-0.00193036825944635
-0.0109705495450775,-0.0208407933645159,-0.0196741474255653,-0.0026236425373742
-0.0134227086777232,-0.0412662908176488,-0.0198389317068419,-0.00528451288160053
-0.0155692849108526,-0.0527080513905507,-0.0180886751883071,-0.00712915918381437
-0.0148717786891947,-0.0625013535662385,-0.0147371197852046,-0.00624134854076647
-0.0141459829025651,-0.0692598073861747,-0.00755241965591612,-0.0034404484631401
-0.0139055154183625,-0.0639829723442049,0.00117455925512486,1.52798780028197e-06
-0.0110936023529036,-0.0451516556371862,0.00634238321991601,0.00377212380799625
-0.00206548851619382,-0.0224297148862996,0.00394962012200424,0.00665813779698585
0.0102308342570982,0.00417147460244921,-0.00138614087921011,0.00663264338481735
0.0164584575724198,0.0348910567139466,-0.00494252885757267,0.00365834058468477
0.0146554396036804,0.0562051048863888,-0.00571067739852441,-6.44356426169985e-05
0.0130942500156012,0.0586431282294778,-0.00309624265284615,-0.00224865655995298
0.0158883708436918,0.0390737112315048,-0.00316349588655833,-0.00203564904195873
0.0207487431941339,0.00365616879578681,-0.00691688804623256,-0.000847362291256795
0.0232866374227927,-0.0261722402050383,-0.00948125168439348,-0.00108973104779048
0.0114738345520665,-0.0328988078927966,-0.00938251281815841,-0.00300964664408906
-0.0138144304167619,-0.0178748342562542,-0.00630591350047004,-0.00414402433409669
-0.0307774417802957,-0.00365704109174498,-0.0025078346507661,-0.00274326154000963
-0.0313022770660672,-0.0124183767490942,-0.00143908588956786,0.000222305773622434
-0.0246341261504109,-0.0314200872917108,-0.000132459351866499,0.00317592893562695
-0.0160067401067567,-0.0369247905687197,0.00383108685751665,0.00547208812525277
-0.00550808014327703,-0.0297918202921283,0.00794134444113545,0.00687880042314273
0.00406957364624097,-0.0237030359141249,0.0104449478800258,0.00701651507393006
0.00591039503920044,-0.0270438756518435,0.0091873152635501,0.00544210656652483
0.00293510202369285,-0.0254028090801941,0.00444870642891438,0.00264092408643867
0.00492218705631384,0.00526305453185805,0.0010863422203136,-0.000389564508730244
0.0121550058040966,0.0437933813512292,0.00122186452497972,-0.00297316097028485
0.01819534132406,0.0480642879016202,0.00326922380640024,-0.00441454395231951
0.0201807334204748,0.0324973667086561,0.00663113702002849,-0.00494025818502103
0.0209863693502753,0.0320104681253512,0.00752676514391083,-0.00559265381896066
0.0202188914965046,0.0339488381798629,0.00243381216216147,-0.00620824939076893
0.0157540999986626,0.0180655637646027,-0.0031507127969245,-0.00560688299088719
0.012531672048548,-0.000868569711148175,-0.00311104593702901,-0.00322996659961745
0.013088938657399,-0.00415646976669887,0.00159873439005717,0.000390202343018251
0.014610352249774,0.00682077894772828,0.00695805860079519,0.00390533155984388
0.0161640296122507,0.0200894587269979,0.0109038455020971,0.00588255786992916
0.0165135958806352,0.0255311703798054,0.0133527997454477,0.00611705510868156
0.0162810611709208,0.0232269437696314,0.0147740548122782,0.00565220642292328
0.0157476754737549,0.019770796114365,0.0139860173051148,0.00503276285447646
0.0133162040843447,0.018554288354516,0.0112371148600792,0.00376993632842899
0.0104076554921013,0.0165245402931625,0.00988203748731711,0.00151137220154048
0.0068858511258811,0.00984625455146268,0.00890142542190919,-0.00114052302397856
0.00404965855211423,-7.41604106901557e-05,0.0073948598427365,-0.00287964994686166
0.00517398842651362,-0.00521906720227724,0.00870863344901246,-0.00286165061036997
0.00774541966388037,-0.00274953143533161,0.0113797726697684,-0.0015948015562591
0.00782044353792006,0.000226351092135948,0.0116029392000723,-0.000121804729759946
0.00548212727279822,0.000322822895943618,0.010468127668946,0.000896061806933103
0.00285167016973983,0.000210130289999277,0.00851679539492951,0.00109934141213316
0.0010447146027379,0.00309303284782328,0.00456979407446418,0.000402980759100822
0.00080486266987719,0.00654156515347006,-0.000410889963818179,-0.000802213159902139
0.0022905084866671,0.0111734458141944,-0.00436868785364685,-0.00173541432551445
0.00558635369907371,0.0334957954776534,-0.00626509018749426,-0.00223734335834103
0.00962032174914567,0.0714546460915854,-0.00530129158857864,-0.00299492721253566
0.0109783283904443,0.0856613507263567,-0.00209986276709003,-0.00400819196265552
0.0072711472353134,0.0596176789903504,-0.00118796322299297,-0.00472940736541776
-1.63154390365322e-05,0.0217893380282517,-0.00201517548671696,-0.00480298472011676
-0.00538077152257963,-0.00138642222685916,0.000673586483879333,-0.003618914359385
-0.00607566397840092,-0.00773539561541156,0.00503294348708596,-0.00122533408932765
-0.00622255451543287,-0.00717077686992775,0.00665899874749652,0.00130325278541549
-0.00855147886325033,-0.00725762720372558,0.00533832212505936,0.00251802706959806
-0.00883930348762817,-0.0105324409098013,0.00311888034519823,0.00148040420139975
-0.00525172018094832,-0.0178578377809935,0.0017758517272088,-0.000439284936067028
-0.0029563146209055,-0.0256182038958784,0.00224101647789438,0.00015449563254954
-0.00564599983864655,-0.0271859391854677,0.00404470251862887,0.00490293170504695
-0.0101651892462188,-0.0241205822982768,0.00401686315430837,0.0101971603182402
-0.0112033487332749,-0.0174636783989894,0.00136746736266224,0.0101242845603031
-0.00885632558692986,-0.00670620852285629,-0.00228198146995384,0.00390022929943535
-0.00531528919082342,-0.000713698742391418,-0.00606737794522672,-0.00386795050396557
-0.00187971745430162,-0.00290207934477183,-0.00795098236128244,-0.00866515375994486
-0.00262525412701298,-0.00727468941618168,-0.00608361807048603,-0.00798065955723935
-0.00865397349661646,-0.00686723664370928,-0.00367133232717337,-0.00281304106352292
-0.0111029737124487,0.00655190318913657,-0.00694408516531668,0.00145117797050954
-0.00707987055054031,0.0250097240362084,-0.0135593976831346,0.000360452361837514
-0.00553536475505129,0.0231086136043393,-0.0161190794183341,-0.00441465123211054
-0.00660510664446104,5.48112700438242e-05,-0.0138583623395157,-0.00771119334971656
-0.00409917052999624,-0.0190987065711528,-0.010366778209558,-0.00680951258339033
-0.000500344060542076,-0.0243549821221555,-0.00722067171507821,-0.00313382719667089
-0.00133107687270278,-0.0210308948838697,-0.00368708975037952,0.000836512814156834
-0.00569280592040527,-0.00616558823920324,-3.6653087388332e-05,0.00383670280918384
-0.00756303445767592,0.0154499507284974,0.00341907880354141,0.00553888562807762
-0.00155368828116619,0.0228387056776865,0.00749419350189821,0.00595688054963368
0.00944367074581349,0.0166968706367271,0.0110998252743628,0.00498967210276011
0.015421207680135,0.0198392561769598,0.0130820255766085,0.00292069068498566
0.00932578825767445,0.0315517383275683,0.0136205955375137,0.000662798182467202
-0.00109684305137695,0.0279142402361402,0.0112823539943627,-0.00100776306449289
-9.30302643480495e-05,0.00721136696538949,0.00656768895034587,-0.00148505971835465
0.00910017801347504,-0.00905077838090688,0.00294908073831587,-0.000191917393546213
0.0116759055406026,-0.0114387444543811,0.00219738166211357,0.00245359086160601
0.00850867023679325,-0.00830884819061468,0.0026220368503946,0.00494305281055271
0.00618739678199677,-0.00908366630662134,0.000857480803547462,0.00593263251969508
-0.00444253956316623,-0.0160811311485625,-0.00225706182946643,0.00483700527741783
-0.0282683095359336,-0.0253391212010018,-0.00438669140739867,0.00192698158909811
-0.0445077824051829,-0.0266589438849567,-0.00504587475512535,-0.00192526927635205
-0.0380848374854021,-0.0143007994034126,-0.00511158546459187,-0.00547385587954437
-0.0200278626739257,0.00629919701019773,-0.00614456464687354,-0.0074756745211253
-0.00491782065697133,0.0280612288653756,-0.00677759869311619,-0.00740786404521991
-0.000347122526781766,0.0456598087509558,-0.0044244547168939,-0.00529156482809647
-0.00683153247004415,0.053448841368347,-9.74096447754554e-05,-0.00155368154639078
-0.0163561084845721,0.0512918790713079,0.00273400059371789,0.00230144175367254
-0.0175607500187935,0.0515558849969637,0.00402416445892276,0.0045262638435243
-0.00980631218875685,0.0542874808551191,0.00452642450260169,0.00477727665462821
-0.00673225794719049,0.0444335003397074,0.00545687463826865,0.00368647951039508
-0.0141687599780419,0.0233271398757967,0.00868556286959832,0.00225421493169516
-0.0201770633908791,-0.0045362653631254,0.0122355302924801,0.0014872192494905
-0.0162337155903921,-0.0387588180929771,0.0120260883657585,0.0014858453356857
-0.00951183258700298,-0.0670683890269649,0.00871730959479847,0.00131710289951697
-0.00516887517573567,-0.0766509038130643,0.0059098276568354,0.000245567381954934
-0.000523058790375196,-0.0662903262680273,0.00517111864810128,-0.001185295122031
0.00851867204771568,-0.0463185243847815,0.00572070394270745,-0.00212220882501385
0.0205954366686815,-0.0298859179382649,0.00477095512844768,-0.00254835898894972
0.0302717448888605,-0.022022239924239,0.00322268390733171,-0.00285113619350954
0.0356790486858622,-0.0153983961032029,0.00366921662656318,-0.00282815414276954
0.0326767448889273,0.00172579843096553,0.00542274385639493,-0.00191594540339438
0.0213144901552736,0.0172422154247682,0.00701921796760995,-0.00022717587156389
0.00756769008305875,0.0145984247397309,0.007238882430751,0.00150439395920808
-0.00429911955053684,0.0140086859946962,0.00571534275296625,0.00252550615344983
-0.0111548327206557,0.0359723777299768,0.00419676774105898,0.00232411172475005
-0.014108154270918,0.0631876917686831,0.00370147756711083,0.00107686858539806
-0.0151429010847935,0.0631229956531646,0.00365669490877982,-0.000348555146479772
-0.0168842745730799,0.0271011931285143,0.00341020419606979,-0.00108783754535212
-0.0210501782193249,-0.0167342448371847,0.00339754159068866,-0.000876154661555944
-0.0226252855779175,-0.0372965371094182,0.00573218585446352,-0.00025919324257047
-0.0172082311257894,-0.0396131966654647,0.00864768500398448,0.000301723286149108
-0.00947182748468085,-0.0449783857710691,0.00881609846932232,0.00079932942869659
-0.00409491607399649,-0.0529777570978892,0.00694364995581726,0.000902036990102675
0.00269580521578336,-0.0513665107010189,0.00418841548924161,0.000269913059934198
0.00977850285970322,-0.0415370856065734,0.00222791112814,-0.000914241772578404
0.0105011703377287,-0.0340168362963761,0.00104348793449387,-0.00207853421077446
0.00917829667732756,-0.0303495531485552,-0.000333030892330212,-0.00299349514560831
0.014103374166368,-0.027413130254836,-0.000343717718233221,-0.00395440561830722
0.0192037264153267,-0.022847371246843,0.00230327067212947,-0.00459597404400243
0.017724447175935,-0.0155128698105812,0.00565248749142618,-0.00412415761391133
0.0138273165467728,-0.00612891437697338,0.00832310270811925,-0.00247625625269956
0.00981665785583641,0.00248621381455378,0.00969326553979864,-1.17304899220931e-05
0.00479096632306527,0.0021449811862843,0.00765496299019397,0.00291303771324646
-0.000328937741467001,-0.00783663746524549,0.00389211892624158,0.0055883410016829
-0.00118304192417722,-0.0169333678185926,0.000902308330436415,0.00703370174828829
0.0017983965592296,-0.0183400624515035,0.000415509879187224,0.00667829309909752
0.00173494138211052,-0.0138950838787138,0.0045772807520438,0.00518794260097555
0.000234213181610064,-0.0103146665575249,0.00949256732841467,0.00381743648421563
1.51088104854615e-05,-0.0109368363417693,0.011140233591191,0.00243165261425401
-0.00151361901049881,-0.0106845334377803,0.0101888439908639,0.000464122071687045
-0.00305458535273025,-0.00472449294223095,0.00816136159442854,-0.00146052449368472
-0.0031790345428968,0.0049540896381491,0.00851177419439008,-0.00267023695145463
-0.000630753950589416,0.0128284411009477,0.00952638600329926,-0.00296636062960065
0.00304100123945039,0.0130542297908834,0.00685636715746192,-0.00229967691686055
0.00342642946795046,0.00579368460876338,0.00208850914531423,-0.000572686845435732
0.00312654121573476,-0.00145705220603115,-0.00139982928096359,0.0018223823684796
0.00493864304880511,-0.00602262194217386,-0.00465031659790224,0.00299377804567126
0.00561389190808988,-0.00810702626692214,-0.00972024798186225,0.000958989284369831
0.00250071921873232,-0.00598084075569938,-0.0124324817540091,-0.00361219977509522
-0.00303145705397725,-0.00452364177120149,-0.00903252657269463,-0.00738741404617101
-0.00707206621758918,-0.00936721995484981,-0.00405213576601531,-0.0077497850655501
-0.00830537349687319,-0.0165808323607354,-0.00123423169837211,-0.00505564849556896
-0.00736328441014993,-0.0182778453870964,0.00107314236781697,-0.00146792931857046
-0.00273774136374689,-0.0113431328446653,0.00106474814002445,0.00107391058830293
0.00326160578913952,0.00142944062077987,0.000450551728254915,0.00193976802725166
0.00319393164471479,0.0110190134896998,0.00302019920739572,0.00228101501285986
-0.00213317440756106,0.00963332368435224,0.00311194305545021,0.00355574242713709
-0.0061784561972472,0.00163936009796859,-4.80171822266218e-05,0.00514249372590791
-0.00937506206481999,-0.00195066301559826,-0.000908974376160542,0.00570639279459866
-0.0120480840374617,0.00290495957463231,0.00112248508437131,0.00544035764985585
-0.0102832178486399,0.00354658421800472,0.00359177957493954,0.00547110701645451
-0.00698803264121804,-0.0107682993853063,0.00227909659121827,0.00586120240503234
-0.00974117772917396,-0.0259965881877674,-0.00237829016296382,0.00502201783100501
-0.0182285812041014,-0.0283625474783752,-0.00422881314264877,0.00227043897453339
-0.0245008168005219,-0.0258591444312577,-0.00489356992865395,-0.00137305779119156
-0.0216867056557583,-0.0229171501552682,-0.00787688650099767,-0.0047659571236767
-0.00973768779128743,-0.015632800403404,-0.00749204296795814,-0.00675017901619332
0.00503171486122148,-0.00882822637028765,-0.00297988141812818,-0.00675371756904306
0.0149982876365563,-0.00764138613917845,-0.00224083601241887,-0.0054961677991643
0.0191296141093096,-0.0136284459661953,-0.00888280414784088,-0.00400993132488989
0.0204708723141673,-0.0232821910441191,-0.0173151392001102,-0.00295203312137589
0.0178236624942651,-0.0256990718006963,-0.0208556986241061,-0.00238326595580049
0.0127412143527022,-0.00762375586875564,-0.0174811758657168,-0.00189284976795791
0.0126617924543757,0.0232410282138063,-0.010054699707016,-0.00113556677774426
0.016542179672044,0.0340442317390117,-0.00175488926952835,0.00034691996255985
0.0167945927580159,0.0209283228226415,0.00695636081435883,0.00228476491698784
0.0114499098282733,0.00610659435463556,0.0107755234506149,0.00311776030180706
0.000593074195188354,-0.0129707312974435,0.00600179948526364,0.00231970704524723
-0.0129421954894615,-0.0429203044219382,-0.00195854158860692,0.0011630285273578
-0.0220407285412675,-0.0632583772229399,-0.00592927118668881,0.00066063245108626
-0.020882955777114,-0.045164590961918,-0.00377726052896024,0.000542729363529943
-0.010481195310412,-0.00219686144707605,0.00120594306125922,0.00026248094244174
0.00109831528352732,0.0138482328902576,0.00102297305407485,-0.000118445402458765
0.00904217512897381,-0.00124866075173677,-0.00553279307456125,-0.000576281987470626
0.0119171056683788,-0.0111767316255287,-0.00880802880643852,-0.00126319477363646
0.00905314257345172,-0.00362485753600774,-0.00669937923363343,-0.00181110322976248
0.00496344548730301,0.0131767915595443,-0.00438149539702302,-0.00163969742174596
0.00283432263166385,0.0269119256858445,-0.0042563405009506,-0.00084396806614049
0.00149092849002967,0.0346064435470154,-0.0045136884829063,-0.000124829142755158
0.00192343491474069,0.0442695050025291,-0.00273956305056635,-4.83710591619409e-05
0.00494828504375611,0.0466124413415084,-0.000442870733457161,-0.000485883401424931
0.00803349862519869,0.0202269988816048,0.00162137900663905,-0.00083967713067895
0.0100547765357973,-0.0197501266393572,0.00392656662310864,-0.000632427947223712
0.00858438712925136,-0.0411889261073081,0.00474034793250619,-4.30925963893852e-05
0.0025831972459204,-0.0441417247338109,0.00292919468005907,4.43459019270918e-05
-0.00388656932517846,-0.0405735417139248,0.00193594275862789,-0.00100779948896865
-0.00663395157022991,-0.0265924061899336,0.00482522040919385,-0.00303101780314662
0.00156103057487659,0.0145458891103818,0.0101183351600733,-0.00500203398916888
0.0178782715281303,0.0772419915656199,0.0150758201420708,-0.0054550435621442
0.0232670248758592,0.113624412127267,0.0163134200598724,-0.00324388775988506
0.012326804927122,0.0957446790110691,0.0139058736247969,0.00272387380431893
0.00116379770875369,0.055841400287868,0.012623307797367,0.0114902553767388
-0.000961535717437364,0.0348026750428752,0.0117651104500428,0.0172468263935769
0.00232381530819725,0.0327893351553056,0.00484707087978023,0.0144291923219641
0.00704712980527498,0.0299615050167953,-0.00512495980273965,0.00469148019829481
0.0129858449686137,0.0234670339258094,-0.007274932895469,-0.00529098610226515
0.0183255477023579,0.0207844535308865,-0.000812245559219439,-0.0108034595554457
0.0157149079957445,0.0215835260147038,0.00542501168048386,-0.011726973960495
0.00284806391344243,0.0197666463474557,0.00810489679487592,-0.0102276124261677
-0.0126641424641477,0.0126651118468215,0.00830519438482966,-0.00829831883313713
-0.0217912930851823,0.000838443170866766,0.00477116169959782,-0.00656299863683959
-0.0209785551782471,-0.0113412882576321,0.000392299312364449,-0.00435903471945514
-0.0148164127613981,-0.0145119192807812,0.00187989312001459,-0.00130424114919175
-0.0114732911700864,-0.00797016196282291,0.00676794450557875,0.00239941107698009
-0.0111305435689035,0.000896529922865638,0.0056164107613555,0.00588808341448682
-0.00891163118529338,0.0112532668834081,0.000140361887087299,0.00731703528285069
-0.00572117132199995,0.0246313850939976,-0.00203623160461576,0.00593957835933604
-0.00496254988087396,0.0386652027965627,-0.00276145369441292,0.00330637613184151
-0.00138742115887546,0.0505794138810741,-0.00407351424373613,0.00164551062312374
0.00903656013279066,0.0587646374413349,-0.00151221786131561,0.00219339484870641
0.0156006761867228,0.0601274955067922,0.003483208585969,0.00466740033192609
0.0111863694302843,0.0558862764215268,0.00587700646392508,0.00746048684843146
0.00534071380395349,0.0547801540272687,0.00589824770688941,0.00823175238702266
0.00507551775137861,0.0568254302136253,0.00441726270347172,0.00543549799354937
0.00742710350546325,0.0480080845139488,0.00354615607989242,0.000172590962127676
0.0097487471091525,0.0277243056831437,0.00485581445626768,-0.0047452308334221
0.00691544167806515,0.0115501291791288,0.00458591698221703,-0.00756191890108491
-0.000235039902425856,0.00052090473920522,0.00209708002125439,-0.00822427924506734
-0.00042774585021128,-0.0144658443068223,0.000272461085304609,-0.00742536504460993
0.0034481156985828,-0.0282839511113562,-0.00087939410141117,-0.00616845943388306
-0.00138095044183357,-0.033048836070267,0.000107325424057821,-0.0048397069522351
-0.0142091816235133,-0.0337781320331913,0.00330474193620737,-0.00270247817070111
-0.0257194554090462,-0.0359807128551105,0.00343940545030185,0.000293834233886387
-0.0269323949176455,-0.0391707108817353,-0.00122609284119751,0.00278832324519014
-0.0192031143708457,-0.0335435483882241,-0.00409061099749213,0.0035899548185735
-0.0109557471479327,-0.0120396177304091,-0.00027611118879621,0.00310605210915478
-0.00204770476749027,0.00971582043714579,0.00608751635680984,0.00276108930530381
0.00645217870235703,0.0152520592990696,0.00846200459427288,0.00301556116757498
0.0085999963953964,0.0120732688182367,0.00592452868953623,0.00316707637150756
0.00754508306228697,0.0190742693109469,0.00398403010042793,0.00275560084251769
0.0103312434127422,0.0343955654209561,0.00588244455124533,0.00232271441417883
0.0163709833390913,0.029676692336237,0.00585788380703924,0.00213465287245528
0.0208175511007004,0.0016274819495095,-0.000180919591449294,0.00126975694653926
0.0191949666747357,-0.0185234176233044,-0.00666015638573826,-0.000682849986753136
0.0127975437517717,-0.0217033283011308,-0.00816938368386028,-0.00288904068238141
0.0088521791717708,-0.0211671504737126,-0.00635553310227216,-0.0042285900706961
0.00710303846372833,-0.0205207173044964,-0.00331945209163139,-0.00422328236582215
0.00585265639383793,-0.0171703797507696,0.000644069665565351,-0.0032926231831259
0.00769855378900947,-0.0105626530498592,0.00451452437051349,-0.00195845056130783
0.00685359588968838,-0.00610827478216541,0.00670887889196817,-0.00051541473798857
0.000338452089699636,-0.0104049837818277,0.00629947929861532,0.000659881543869663
-0.000509944081171918,-0.014322673700872,0.00740536135984653,0.00115265313113604
0.00859941406108162,-0.00922855347347375,0.013156593235866,0.000890947878175731
0.0135333109772039,-0.00651019917283119,0.0185265225152248,0.000655997777511367
0.00774258030254251,-0.0140408294130349,0.0166010513717966,0.00121821254578792
0.00185741094227818,-0.0236359437642848,0.00827100297861838,0.00176447809197472
0.00262004334254784,-0.0272835597953022,0.00147731630624644,0.00118696419835404
0.00427317184946407,-0.0261903344754259,0.00144369567725401,-0.000121529233191147
0.000894700519696773,-0.0218412095455933,0.00512139420638852,-0.00118598535345924
-0.00468131110496934,-0.0143808460162166,0.00797988373392855,-0.00142212098180107
-0.00760485942079291,-0.00892718181457565,0.0098082511743945,-0.00094988581001322
-0.00550177750098542,-0.00778816311822455,0.0111926453597611,-0.000407119184813417
0.00153283282026217,-0.00791017808457412,0.0113657992661396,-5.8502346872823e-05
0.00829839908599026,-0.00575578619010478,0.00940261167527706,-3.15114030212389e-05
0.00771749121889646,-0.000697865306258788,0.00704794249071173,-0.000394979050442183
0.00422204745441021,0.00229339786070196,0.00555983362468697,-0.000893660516398878
0.0108543009512572,-0.000928770042029426,0.00325496309148939,-0.00164941758398813
0.0245956966595272,-0.00745955781053779,0.00154348612527824,-0.00306503377141992
0.0293708218099379,-0.0114340464246335,0.00198159522363988,-0.00501168772737499
0.0229617803070972,-0.0141517077422026,0.00275456992457383,-0.00610463736411002
0.013584620229679,-0.0208351177761579,0.00285484972750192,-0.00453631643885918
0.00683328768793076,-0.0268473966076903,0.00140418324659073,0.000239591255346183
0.00791907886459015,-0.028371312967748,0.000126959264102223,0.00717488522279175
0.0101419794437592,-0.0294476236254096,-0.000597441629942885,0.0131948605315175
-0.00318802740479673,-0.0291929213332441,-0.000712344575740014,0.0144570686981532
-0.0311576097027102,-0.0333436598871427,0.00222313388735643,0.0104539170844132
-0.0523597196783541,-0.0461865486806576,0.00381453283254385,0.00444008116381133
-0.051968021321227,-0.0551064039672662,-0.000991821533932388,-0.000924139797145344
-0.0413319170418841,-0.0533734947948104,-0.00890523706896363,-0.00496968651112751
-0.0383862028484228,-0.0423573543191722,-0.0127637000335373,-0.00739898246703708
-0.0388535130719643,-0.0236985358053402,-0.00953658425703197,-0.00796688526890124
-0.0321945230492487,-0.00130277601197804,-0.00165143157620439,-0.00668813501587659
-0.0253546529216692,0.0169745566183511,0.00404239769594175,-0.00374903979869206
-0.0247181251016583,0.0169153085158941,0.000979178665950205,-0.000663291610071305
-0.0207349726095487,0.00566193332970532,-0.00529878961677817,-0.000543671287708799
-0.0057076112030313,0.00932165410351309,-0.00664805161549051,-0.00369432532827632
0.0108282000978185,0.0187965198207348,-0.00309088772409026,-0.00619156195772081
0.0179899004785524,0.00115067928435116,-0.00075077518120375,-0.00515729565766475
0.0154162835661809,-0.0363523391279481,-0.00339972163239522,-0.00120908213214801
0.0105884500730156,-0.060293781728828,-0.00542163322331692,0.00340124129525166
0.0127943166222254,-0.0633620907519006,-0.00465315422571251,0.00633898381067585
0.0196813681081876,-0.0523867134413478,-0.00505991692268029,0.00662767497022693
0.0227812618936455,-0.02920316067134,-0.00681440729604765,0.00535210728174779
0.0194780251594627,-0.0018285499204127,-0.00743190248383589,0.00391747041054881
0.0132220752116239,0.0139044137612277,-0.00611924666104338,0.00243515483987139
0.00652723026268237,0.00458766097415679,-0.00348977260789815,0.000499872759347033
-0.00254210041184091,-0.0171880707672982,-8.18140638984967e-05,-0.00155763777791362
-0.0142746323424579,-0.0202928523234192,0.00494501801219741,-0.00231715406226759
-0.021966856527349,-0.00551102540551576,0.00779707432347943,-0.000388731948780626
-0.0222916956055188,-0.00258495789379975,0.00419966355593076,0.00338122441204758
-0.0235713003999834,-0.0175646169276329,-0.00166315674011613,0.00603831897284939
-0.0294603194212402,-0.0151702584692718,-0.00332657656464516,0.00546989957648541
-0.0262217118991474,0.021356275042634,-0.000598644143638465,0.00235853167236061
-0.00316060193588361,0.0517507976343126,0.0017243980947275,-0.00147163386033093
0.0197569093601574,0.0458727815206895,0.00044327218932933,-0.0047610069622883
0.0190639125024523,0.0219127899260717,-0.00142504313957825,-0.00660617886799912
0.00413904227252416,0.0108052877164148,-0.00142362957103849,-0.00671659106070311
-0.00197062030211343,0.0268591212322323,-0.000783681290281704,-0.00532981320727674
0.00768091850931991,0.0575942964409138,0.00110825382800374,-0.0028177846923013
0.0196021617365252,0.0766783831930082,0.00261610051522163,-6.44773739441598e-05
0.0228384676225001,0.0652296855751972,0.00274811873384394,0.00157268917609848
0.0215078291541957,0.0332411479152603,0.00285054850893398,0.00188934739348648
0.0227127953049417,0.010080196741595,0.00324489671309211,0.00181468403135969
0.0267580939878974,0.00393981176730707,0.00407114748458478,0.00164288548099321
0.0272939293051428,0.00128579161184659,0.00566486708395185,0.00126963396596863
0.0224606759530716,-0.00376152584744884,0.00677138093331879,0.000937482619160853
0.0187389981648245,-0.00799414112185073,0.00458847700341821,0.000826890425050253
0.0179954242718077,-0.00658479793647588,0.00278452479443214,0.000539627294846973
0.0144182347382596,0.00660259345172277,0.00447471616776209,-0.000170960640403002
0.00851759922600102,0.0280342926817998,0.00712435534574156,-0.00092485157158504
0.00632460249714551,0.0471373259114784,0.0110698978608231,-0.00133883460822612
0.00726946870556309,0.0551748396101653,0.0148582035790758,-0.000867672283362412
0.00720341209019205,0.0518353946059764,0.0144933615528673,0.000684785465266501
0.00699103086252653,0.0440577065950071,0.0084315379224352,0.00213249279521011
0.00889488470862978,0.0375446763142637,0.002921825728105,0.00204247486404886
0.0116936673615562,0.0340294906326565,0.00327376675549399,0.000850201909050752
0.0115772679133651,0.0326781057097217,0.00629492064603378,0.000310202962062474
0.00542708222451881,0.0315125623223685,0.00823013237466017,0.00152369541638775
-0.004110316483684,0.0261684071864037,0.00676564376765069,0.0044307062084993
-0.0103286206974887,0.016845118242761,0.00344581514294737,0.0072407599131086
-0.00896008600281171,0.0097565106173477,0.00155332589250504,0.00707664583763346
-0.00076072208593693,0.00860157417286595,0.00248796228436918,0.00274721118627823
0.00541882788318008,0.0118103481395192,0.0059206309072267,-0.00363086604138128
0.00295516384242644,0.0166050994617938,0.00950980709533955,-0.00796620974883022
-0.000595839500147472,0.0198426547949504,0.0117305214720719,-0.00772703597787287
0.00169399579113226,0.0188510621454872,0.0111048003426597,-0.00425523379026455
0.00680341101052502,0.0135376153279355,0.00551881353371167,-0.00148239824849305
0.0109603642215724,0.00614529489289455,-0.00134024683439583,-0.0018483033388827
0.0117212262749797,0.00211263645672664,-0.00330316562216,-0.00435581798183037
0.00801580436233525,0.00392299654839416,-0.00101577787157929,-0.00650823671661796
0.00351191682932362,0.00645899123704365,0.00213968473994133,-0.00551535290301414
0.00101484798847572,0.0069432982726871,0.00670900105016058,0.00049545874979268
-0.000641834383693266,0.00568744692523702,0.0101996283918642,0.0091119561343002
-0.00232744137978641,0.000564568119048186,0.00816505303455762,0.0137406549554046
-0.00246405391898221,-0.00844374310260745,0.00167955122222164,0.0107375102878968
-0.00231296975214149,-0.0153874943237774,-0.00335937249220783,0.0034492925537492
-0.00456698868339625,-0.0165392462486889,-0.00393029376922753,-0.00228095232529634
-0.00743629782354784,-0.016327340381731,-0.00363670758273105,-0.00358923485813819
-0.0101453766119554,-0.0170321799087935,-0.00468033998448706,-0.00207506992102856
-0.0120211320782695,-0.0175564369728316,-0.0065400203109232,-0.000957766095869181
-0.0102671053560698,-0.0164990039507628,-0.00744549630269608,-0.00166990409614503
-0.00609646977102026,-0.0121466251780079,-0.00608168948172938,-0.00344239178051866
-0.00328933769607414,-0.00684378139367588,-0.00469792417133635,-0.00478277531573819
-0.003074263697324,-0.00304143570737347,-0.00546776211735008,-0.00503270909237559
-0.00320370376598938,0.00230737589742634,-0.00773732750704558,-0.00428618001917477
-0.00220713253420986,0.00865254166365914,-0.0093467631183958,-0.00236028098879915
-0.00343146740349546,0.0117324965143256,-0.00899840976561761,0.00084467905938738
-0.00426554166287769,0.00805602785599605,-0.00916636777950151,0.00447076883796104
-0.000102148315795952,-0.00346883117154998,-0.0096940581980456,0.006510229758698
0.00328962096805226,-0.010808580082053,-0.00688397347137669,0.00538138824308851
0.00274227465618914,-0.00622581049791808,-0.00245326241221518,0.00237575993929473
0.00187294475133778,-0.000846806277575914,-0.0017143802296307,0.000116352987455049
0.00064451299713358,-0.000535456777850601,-0.00301073394171516,-0.000809639525525484
-0.00212142343530431,-0.000680050654057632,-0.00362329056146153,-0.00133472850304126
-0.00441954196841596,-0.000795897382132174,-0.00363312292085901,-0.00213420677683297
-0.00298576174614944,-0.00546511319022506,-0.0018594718250005,-0.00295908604008299
0.000700202061014768,-0.0127674354317678,-0.000601650419336607,-0.00304988279813037
0.000626915428311225,-0.0169739620958181,-0.00256222376436551,-0.00224444821810942
-0.00387941299769605,-0.0203759464509323,-0.00934603096295986,-0.00116068373880992
-0.00599172724399586,-0.0241372758127679,-0.016257933911644,-0.000642878659642611
-0.0030551460759572,-0.0256532690905314,-0.0148366909893349,-0.000853643180687035
0.000133628772846036,-0.0243662843535563,-0.00957803116481668,-0.000967574916894102
0.000425219517184258,-0.0219054047622438,-0.00642187777605674,-0.000305706935505311
-0.00326690130662832,-0.0210691357468351,-0.00268238281387059,0.00112396802591255
-0.00805370896629438,-0.023737138851875,-0.00229212365690305,0.00323596996769771
-0.00785886055252271,-0.023427006256399,-0.00802981311083787,0.00499589390058846
-0.000983865741722267,-0.00430518046261187,-0.0128708923461689,0.00441326825355342
0.00654454218643382,0.0305496177043357,-0.012036883098741,0.00114757646082328
0.00716776759120414,0.045759138218864,-0.00947790700244669,-0.0025939293859655
0.000793861727994095,0.0246226062254274,-0.00921958210924047,-0.00438262325462749
-0.00351990421792576,-0.00360494567501678,-0.00940845751572622,-0.00386186487872819
-0.00454157178633107,-0.0137543800748116,-0.00755329258312636,-0.00223992336789903
-0.0110318885735704,-0.0132933858641664,-0.00484864586501736,-0.000407253733779998
-0.0162836131226816,-0.0138238096841868,-0.00441932945756503,0.00123550198844385
-0.00771824741384247,-0.0155943737573317,-0.00453415655597472,0.00217592554995411
0.0022315433458163,-0.0224229672966136,-0.00100161489378772,0.00242685354600226
-0.00333691074394702,-0.0438046408584966,0.000735103914492944,0.00244551270649664
-0.0124384037136658,-0.0660028153923645,-0.00318270401166134,0.00204955976640014
-0.00960502082406802,-0.0637474796486068,-0.0063988357528563,0.000847775029641254
-0.00151269613542105,-0.0491852416871979,-0.00750105544657634,-0.000570141506963061
-0.00181372407774895,-0.0481466211606942,-0.00819394609545928,-0.0014281707812955
-0.0132815677546065,-0.0537604563347739,-0.00809266146385023,-0.0019787430624857
-0.0263406090598341,-0.0477380222792906,-0.005894146191002,-0.00281386967799557
-0.0306433843356283,-0.0301799035984991,-0.00319902838836914,-0.00386676881051609
-0.023978313123826,0.00268166937860181,0.000790020012363555,-0.00444561265226909
-0.0124749229330783,0.0449614269340132,0.00688274440473208,-0.00284308276727291
-0.00555148252445114,0.0644733298758854,0.00802668665904423,0.00249978219012477
-0.00523457913274975,0.0553322128439912,0.00399089477247822,0.00949549794556599
-0.00521770957085018,0.0421982079936959,0.000679197695726773,0.0131955437741995
-0.00112553744554478,0.0363581354241633,-0.000248411058685058,0.010731151018927
0.00671772817789316,0.0300018540849234,0.00170096586449557,0.00405079483739773
0.015019505200811,0.0165245991597033,0.00314511839472597,-0.00256162221419116
0.0163371951170832,-0.00134872952784047,0.000839533198438615,-0.00661891748818992
0.00936353009377005,-0.0236087452367301,-0.00308884992834495,-0.00800260169928408
0.00138229386222095,-0.0419113293805661,-0.00433735894505852,-0.00759888351024316
-0.00474857905653838,-0.0422916549080596,-0.00269898174249488,-0.00631896424563944
-0.0103988118798091,-0.0313611798317038,-0.00139789412131785,-0.00451439159502066
-0.0138103124911754,-0.025418058387965,-0.000744583237185203,-0.00236606268096487
-0.0142950450590836,-0.0306824465771206,-0.00164428843499188,-8.93687934293702e-05
-0.0149169459397241,-0.0373730878180584,-0.00378390593911734,0.00220734756838575
-0.0161479330306667,-0.035897428148746,-0.0040061262696112,0.00388131732626825
-0.0142439487566866,-0.0283839446832725,-0.0029817114604209,0.0042311598970723
-0.00825276328058705,-0.0176015968124278,-0.00283853994675534,0.00326836040417156
-0.00399702064847303,-0.00648295917485237,-0.00232658221788088,0.00152909399112746
-0.00497157202316362,0.000359220917959681,-0.00128082000260845,1.54195244471723e-05
-0.00819102308959343,0.00678078570223026,0.00057475068113522,-0.000448319383724047
-0.00992099341151904,0.019868679453201,0.00247689250510901,6.93018319040696e-05
-0.0104457804166891,0.0394285126497261,0.00393516489066386,0.000935229425616808
-0.0103938132636543,0.0631379433673204,0.00545667750381174,0.00175022822319763
-0.00783190026787053,0.0774818521604858,0.00474205026210166,0.00236374517082805
-0.00280879668997184,0.0594372344124138,0.00160818994132982,0.00254883941021435
0.00249162816090544,0.0204750358024785,-2.09390998842686e-05,0.00200533740716964
0.00768969961927147,-0.00625151147043505,0.000776037128803189,0.000665234045373991
0.0113766553303537,-0.013272824266782,0.00135548794031954,-0.00101866680649696
0.0149348438055,-0.0099202475093814,-8.75297023315455e-05,-0.00245836411607466
0.0203764957872271,-0.00109486602495657,-0.00152176587092185,-0.0034215016159737
0.022478041664592,0.00772989127317255,-0.00173287100125135,-0.00416764654968292
0.0192887297314353,0.0091164063983174,-0.00335203266322162,-0.00512140685380187
0.00873411591449399,0.00859324442708926,-0.00480633568147917,-0.0059903319364265
-0.0125668087353137,0.0155407283891313,-0.00268642239415599,-0.00567910020688757
-0.0311587365399663,0.0264258013686471,0.00233204504974377,-0.00371610909169897
-0.0329743684054084,0.0278971221146154,0.00686849584706706,-0.000838119070977192
-0.0243966941432718,0.0153752304228423,0.00716171594617714,0.00184721018262533
-0.0162064254223169,0.00191956231209016,0.00352604928936198,0.00337397966795359
-0.0144550834079366,-0.00477365501460033,0.000577395072352376,0.00336139217440941
-0.0179827991570471,-0.0141835487227091,-0.00211659013268621,0.00232959925596668
-0.0148230477806443,-0.0225707557900984,-0.00690327933303262,0.00089174195489702
-0.00120774000037239,-0.0183938769386519,-0.0105913855322783,-0.000829429534900298
0.0151199134378312,-0.00430893951264972,-0.00601215576680883,-0.00235530153150672
0.0257772604071713,0.0147826932802046,0.00732587201196113,-0.00199545550266938
0.0224270818014426,0.0252896249116472,0.0152885298074603,0.00159009424414035
0.0122003080320218,0.0147572640033072,0.00746410306180187,0.006426321288899
0.00582061183161802,-0.000343415169834781,-0.00484141441802758,0.00801452526373227
0.000796805181639648,-0.00392715722288779,-0.00767173495959125,0.0042934774885633
-0.00423013454291768,-0.00458405381147616,-0.00415341920555514,-0.00136562221305477
-0.00689364195297118,-0.00596930555099393,-0.00360062367650811,-0.00431178362819626
-0.00404995375545291,-0.00244135356221362,-0.00543698925495801,-0.00409551988594172
0.00221025040135422,0.00158430592916546,-0.00516045655745448,-0.00288856997754285
0.00108690042771524,-0.00208238775826836,-0.00430131291148809,-0.00225239568866614
-0.00782213885909635,-0.0122881716462935,-0.00482718237911428,-0.00289132615440904
-0.0111600357488698,-0.0235925351291721,-0.00566730302858033,-0.00420577213156095
-0.00739255701119743,-0.0345543381089868,-0.00589048517767633,-0.00456946994278707
-0.00761313608388935,-0.0444338374669427,-0.00502144532393998,-0.00332479931197424
-0.0148464509807119,-0.0439942013088685,-0.00119415156996167,-0.00110318368824661
-0.0227754491381871,-0.0237528397634905,0.00285867970360893,0.00144373269881893
-0.0230361062663423,0.0085392013310463,0.00363192169075957,0.00398096247092389
-0.0147872461562981,0.0285370518512512,0.00116661394208727,0.00593222532064758
-0.0059116955794491,0.0279876675602298,-0.00214959342023398,0.0059722344838199
0.00651646712090708,0.0337637708917547,-0.000979275961164487,0.00338418901327022
0.0301263581112914,0.0589044181088577,0.00396520924252365,-0.000148361867152422
0.0540358500903415,0.0746753112242993,0.00757741901459372,-0.0021429246114406
0.0630142311469486,0.0531124575813862,0.00895105635762365,-0.00174967755439076
0.0594473519514503,0.00257644145565736,0.00803545460904687,0.000233203863185434
0.0537362193127129,-0.043393027607642,0.00676316828841477,0.00219672026596302
0.0472252084941708,-0.0652620868038851,0.00588834074250043,0.00305930761292528
0.0351402966242698,-0.064775199937238,0.0024979719217452,0.00298843887179957
0.0229083101483111,-0.0492470359593168,-0.00291298628048247,0.00241259981769926
0.0130524806337549,-0.033261945970582,-0.0067970545433525,0.00134420362603596
-0.00696613945976061,-0.0291512740276104,-0.00704639144933492,7.12647319448499e-05
-0.0351285567132297,-0.031049023933762,-0.00557860345457156,-0.000618106132658543
-0.0494587544404256,-0.0233526374074366,-0.00328896416578447,-0.000528775801665593
-0.0391248576995214,-0.00523934683192718,-0.000790827388150033,-0.000252211791883397
-0.0165417219684832,0.00788725845573208,-0.00092812806680773,-0.000450766619410592
0.000990584563782912,0.0098190249619113,-0.00256528669459519,-0.00138406179945717
0.00972900874661415,0.00622653209752084,-0.00271145850913777,-0.00250219462442989
0.0124081625819882,0.00180432528273025,-0.00168834172187955,-0.00282459079109671
0.00889002556351586,0.00239022477797569,-0.000116656240208251,-0.0019956638211855
0.00646723982399509,0.00728319441308363,0.0029550956329447,-0.000384156887191845
0.0132264922745716,0.012945347117477,0.00609237005740537,0.00153707448851293
0.0217938823734505,0.0187071232296194,0.00695598085747205,0.0032469864033537
0.0244801935294915,0.0196234708863984,0.00571289299556338,0.00434712206515481
0.0262004012357974,0.0139119184814301,0.00352982726567438,0.00453537449789073
0.0276816219322952,-0.00373149210961976,0.000775291675082837,0.00331479058438948
0.0230384942185283,-0.0301823208182224,-0.00315924308533994,0.000843531898181271
0.0155991251530703,-0.0407359112848727,-0.00442115957523822,-0.00180334448675624
0.0127170897428583,-0.0295917132838865,-0.00178027338501024,-0.00342336839121276
0.0139519029856272,-0.0159299534973521,-0.000539983138419499,-0.00318453621443347
0.0128219336457101,-0.00739511518052068,-0.00232218076540804,-0.0014375838078553
0.00694052405354184,0.00642386508186279,-0.00484489344167898,0.000156593962431202
0.00193104006920777,0.0203739957841423,-0.00569843389939959,-0.000180165882913719
0.00155202465763547,0.0154516353243287,-0.00677783160325385,-0.00295354181885215
0.00351977060441917,-0.00396847372981157,-0.00934388388852921,-0.00646592748271568
0.00230723423254848,-0.0238940411552544,-0.00968121504915671,-0.00783345006758293
-0.00568876833586352,-0.0290968037033873,-0.00901128782890679,-0.00559747428180646
-0.0166294131244007,-0.017804084998126,-0.0091726161436101,-0.000358712567715485
-0.0265251426629609,-0.0192779692231248,-0.00751140113538033,0.00656164967164133
-0.0341663251673229,-0.04335002625231,-0.00478351925914752,0.0125832200447484
-0.0364337661448756,-0.0609681759733974,-0.00339632832484254,0.0135857848666726
-0.0343435157323491,-0.0464978065703794,-0.00139390552410823,0.00780471926235393
-0.0280723179897482,-0.000988568961851982,0.0028441487959474,-0.00145247594723381
-0.0147821561487832,0.0431256625398932,0.00647553919474523,-0.00876800644139952
-0.00286975753015078,0.0489613865162358,0.00911262600762642,-0.011123757232382
0.00173613932595174,0.0375539763116455,0.0110030420492207,-0.00894989980416706
0.00491549409297676,0.0488232391410092,0.0116152657878285,-0.00450290250694436
0.00830809539364051,0.061708610389826,0.0128745636211517,-0.000150418220713456
0.00824770818537027,0.0425904322716686,0.0122523075393582,0.00254740489472665
-0.000292384304921081,-0.00141598501052,0.00534409509001577,0.00320693801892154
-0.0143273547346391,-0.037970708926643,-0.00508557055894376,0.00268091921278083
-0.0213752085065653,-0.0436358523562705,-0.0134099058382857,0.00202383955425383
-0.0198391987904909,-0.0288932846607065,-0.0157535508709958,0.00142479265666508
-0.0202289593241791,-0.0189772151066596,-0.0122053985410502,0.000489485468999291
-0.0244937942301891,-0.0195014394555228,-0.00757107969392114,-0.00025750087726216
-0.0242847845050548,-0.0158413079494762,-0.00522185723624364,4.04523752633599e-05
-0.0170128236218225,-0.000822310467077906,-0.00387691074232464,0.000964046044516912
-0.00624993509445739,0.0152746934225162,-0.000848882041455993,0.00176188054859129
0.0039048575306065,0.0235282743483631,0.00343992692464419,0.00208461356296129
0.0125267338482752,0.0293333658109094,0.00639963484046006,0.00163005026647643
0.020475521100617,0.0342607692624293,0.0068312340371425,0.000264185995019742
0.0242329797234195,0.0255638384294499,0.00544390400362134,-0.00122152818222188
0.0215261887602686,0.00469231181548189,0.00562478942428246,-0.00112472558559176
0.0142471981224853,-0.00834194660026434,0.00613827151843783,0.00132280980927096
0.00312982738030977,-0.00642224808967612,0.00293399094117558,0.00420294554775297
-0.00827368245510769,0.00138501738752633,0.000464754744440613,0.00455518514005249
-0.0118914588114022,0.00774323715898454,0.00271616852926725,0.00216068744380352
-0.00621447084559649,0.014040428894429,0.0064184984537462,-0.000628261824642149
0.00229781835214062,0.0199557247433061,0.00839102240498762,-0.00207338740560919
0.0059454761902861,0.0224178333334194,0.00933828885369427,-0.00239711426033717
0.00259295811807382,0.0305566248857903,0.0102689751698956,-0.00257451904904852
-0.00388316159162728,0.0496394436502492,0.00949340082705731,-0.00264500910329704
-0.00869010653865875,0.0644726771851937,0.0061130271567542,-0.00193391221995786
-0.00726127919068896,0.0661289255515135,0.00326027961927662,-9.30778570416759e-05
-0.000259164883349444,0.0576448329528136,0.0018999548974229,0.00239319191846248
0.00476744017530514,0.038578651283721,0.000277435157696153,0.00442599140181908
0.00500100808162912,0.0156168443297786,-0.000417824164789113,0.00506698284965003
0.00890011742032798,0.000539695580742433,0.000174507437179855,0.00423664294484439
0.0189196209248429,-0.0040195850334553,-0.000563129372337669,0.002617427066754
0.02313214920119,-0.00291474728135215,-0.00134510767493038,0.000823980580345743
0.0151877962596831,-0.00156041453027725,5.77793109902281e-05,-0.000680391028343844
0.00508011846412864,-0.00173511724412892,0.000646105963334364,-0.00168685800665997
0.00249244502072128,-0.00363344582843085,-0.0009675465979449,-0.00259328108357849
0.00309644464422987,-0.00461465644398989,-0.00215258042023844,-0.00354297820484401
0.00310586197297661,-0.00114706093933168,-0.000332616323105411,-0.00382429733475371
0.00410149363597354,0.00357130559091282,0.00221754406777916,-0.00279797196789358
0.0048046893678441,0.00500764759891462,0.00238784194736692,-0.00130539205429291
0.00653315451978205,0.00569481893503328,0.00285764225889954,-0.00071102108862823
0.00837577817599459,0.00873613873060203,0.00328782024523259,-0.000929168996200622
0.0065454453553371,0.00892636297058605,0.000197121633938591,-0.00111429824739227
0.00544903404598026,0.00348772242849156,-0.00297429731127718,-0.000932595394937115
0.0083834528987677,5.90382939603513e-05,-0.00469936611665854,-0.000811390991937382
0.0101600320431934,0.00326859012668115,-0.0057885837275791,-0.00137053689399878
0.00930769859455671,0.00780379401271454,-0.00383002767123557,-0.00226729883267383
0.0105615060084792,0.0094557082936891,-0.000806915580675747,-0.00161314248063624
0.0138622010423408,0.00851882742617224,-0.000544295259841051,0.00218239037038782
0.014945676972799,0.0072693080373753,-0.00259032129217642,0.00754850632308879
0.0130019048119219,0.00778516952984123,-0.00356719235572389,0.0102289751115966
0.00800538433725208,0.00703101169234647,-0.0026769962517543,0.00759552341438972
0.000530000998134482,0.00449863492236448,-0.00149445546915451,0.00141802572681875
-0.00332924439718813,0.00419365091566869,-0.00123329507692935,-0.00468876318454643
-0.00156210986308735,0.00566695096204369,-0.00169891057954773,-0.00848612819895428
-0.0023295626890069,0.00704523259531691,-0.000365426595904049,-0.00956312167320223
-0.00568996670693758,0.00627187771437278,0.000816108546946068,-0.00845019798494186
-0.00680794489510365,0.000745857080353116,-0.00141406730884422,-0.00642031354013848
-0.00748502361742452,-0.00374715866683551,-0.00194230662307795,-0.00471805837431928
-0.00703313839983736,-0.00355076581314384,8.86660292152542e-05,-0.00284231579547473
-0.00412328544483423,-0.0032279302485489,-0.000788755537966626,0.000237151638102002
0.00083370015404553,-0.00508518456847031,-0.00354790878350371,0.00397667801619071
0.00557385239759321,-0.00794264346915299,-0.00479405685282435,0.00692746353693301
0.00684987737330489,-0.00919459937988816,-0.0051174080171858,0.00797226994378757
0.00509374313287535,-0.00819383900652059,-0.00512340715952453,0.00669229289485208
0.00255736253533777,-0.00747555463649902,-0.00530670579168422,0.00363416447602306
-0.000395572529726041,-0.00684740765842763,-0.00565115097998319,0.000151469354471383
-0.00247600139414776,-0.00348946463573529,-0.00401282675928898,-0.00221312399557958
-0.0032569128613659,0.00127824145121485,-0.00187263486269,-0.0029126936031313
-0.00493626979740255,0.00525010138255405,-7.48427394684035e-06,-0.00296807336030209
-0.00653676326768014,0.00706683542985547,0.00125779693839199,-0.00344042845896631
-0.00664590057767542,0.00670218360894117,0.000681058030481452,-0.00439201664781927
-0.00563908236577038,0.00758912233404205,0.00152327018600084,-0.00493960532591368
-0.00541108347313377,0.00994711106347731,0.00306826873162208,-0.00367055318110226
-0.0094074102212313,0.0100067671433624,0.000950047055845664,-0.000634657624140672
-0.0164598496710299,0.00712953955829649,-0.00329037942203717,0.00253687273784567
-0.019788819036872,0.00228093520349242,-0.00657565030391418,0.00503006299101736
-0.0170739601589365,8.90797812437907e-06,-0.00748551184475047,0.00702487139745858
-0.0120667482455348,0.00178388027827308,-0.0082729789116556,0.00801645588503843
-0.00773853661144879,0.00227005751412187,-0.0107147462767096,0.00687312428011832
-0.00558108210191851,0.00076666181316499,-0.0114482338497617,0.00334394233948545
-0.00529047280049324,-0.00112295171838598,-0.0081858191210388,-0.00126460603542693
-0.00635674355977677,-0.00566198780643029,-0.00526698347390726,-0.00500634580928722
-0.0101685559956633,-0.0136478681150882,-0.00638424636027782,-0.00710745256697118
-0.0135817728361967,-0.0206345652522859,-0.00738845581479791,-0.00782486878423991
-0.00678235914964736,-0.0214848028494211,-0.00537431380112996,-0.00724150492437574
0.00947144850407134,-0.0172432599318126,-0.00251908458126176,-0.00544409926339458
0.0170886127505574,-0.0105163384890436,0.000116033748346142,-0.00252966500211797
0.0104994065709839,-0.00591811718782979,0.00285459370165892,0.00150995434833521
0.00243824221407273,-0.010418914288414,0.0027338007294711,0.00587579299545117
-0.00236042391124191,-0.0147936861965445,-0.00127387253596242,0.00826128361822636
-0.00532819585433895,-0.00948360781330155,-0.00577542226038672,0.00681615573068165
-0.00577641125675784,-0.00499533946316864,-0.00950474459323317,0.00275244576760451
-0.00715162081283062,-0.0120391250155776,-0.0140344316663399,-0.00128693135048909
-0.0142280134352719,-0.0254509815060155,-0.0184571717895435,-0.00423289345032365
-0.0237551590644053,-0.0299229445780575,-0.0166638613569479,-0.00573358497545517
-0.0261608731858314,-0.018562839355744,-0.00862806156827415,-0.00416738247576025
-0.0208010884978493,-0.00260755124276495,-0.00262879719980239,0.000671249315198157
-0.016458068551601,0.00402210334914904,0.000395493300511281,0.0053632006055287
-0.0151028950743547,0.00276408055487016,0.00266989337328281,0.00685288291173706
-0.0132427626559391,0.00548895850484693,0.00463918956222884,0.00502709022217925
-0.00788440598421892,0.013332241163325,0.00724042922688962,0.0017242268833038
-0.0014965937444797,0.0187055243381266,0.00954203915744828,-0.00111827858410268
0.00206469961388316,0.0255757783728758,0.00986002642247141,-0.00287951949039951
0.00628321181528809,0.0320989693626148,0.00733787594928187,-0.00320496232719451
0.00923653551286744,0.0163793369126334,0.00273114610395767,-0.00196703716817597
0.00532659387046542,-0.0165749519790346,-0.00384077826030754,-0.00043161581055144
-0.00213590448209093,-0.0416648891475805,-0.0127943519364731,-3.66874856300703e-05
-0.00592758509882289,-0.0549154946378808,-0.0193344473154293,-0.000759483455883129
-0.00222452343286168,-0.0594322686217074,-0.0194083844405128,-0.0016106316089534
0.00580691663182488,-0.0590184116212163,-0.0187514355022046,-0.00189234862206719
0.0100804531546515,-0.0591751242749184,-0.0199659716181897,-0.00143698323475618
0.00708840558040947,-0.0603831856697241,-0.017846502877548,-0.000494455311399308
0.00387568449741482,-0.057575689932878,-0.0117891662005491,0.000470291274171714
0.00412846547299099,-0.0470715809452559,-0.00615921220863627,0.00130305691082776
0.00288868484634508,-0.0296808930887448,-0.00410419957926438,0.00216949539632595
-0.00197572623471948,-0.00742727654829335,-0.00320913464096087,0.00309044021058225
-0.00571217432455279,0.0160271180206113,0.0011830315650738,0.0037915050355914
-0.00283304820987926,0.04041073646219,0.00678010022343615,0.00406848306292082
0.00329279606199268,0.068404761550495,0.00836534568847825,0.00347711992843279
0.0066310334081893,0.083603657422541,0.00529315169008351,0.00189092948222259
0.0061383909946843,0.0675954534739326,0.00105352351516068,0.000152840122584997
0.00445684327396011,0.0335593083924266,-0.00338506307555523,-0.00132571525604824
0.0044177314386479,0.00495262490089099,-0.00529065654481036,-0.00261676911942711
0.00531314968262475,-0.00683145645538173,-0.00190092217359537,-0.0033276765745258
0.00463187435878837,-0.00479942643220201,0.00153235534213189,-0.00314823000589679
0.00112684593196787,-0.00385523285889523,0.00185592918326759,-0.00231214553581285
-0.0069855803012114,-0.0136109202579696,0.0011049643131218,-0.00150526247525778
-0.0184830913624091,-0.0290080563828446,0.000690152335577681,-0.0013779796808732
-0.0269970904838799,-0.0414347803802409,-0.0011444426724308,-0.0018937718941689
-0.0291106391688643,-0.0556058246489559,-0.00426159612347358,-0.00235031353392953
-0.0289125811277773,-0.0739017662297048,-0.00592084609470083,-0.0020962394301282
-0.0304935057101199,-0.0813347159512114,-0.00855104866591142,-0.00135935747227634
-0.0290276568283429,-0.0725414243645986,-0.0130037877261479,-0.000749931826460484
-0.019791407398826,-0.0553535845281695,-0.0153420367626889,-0.000232016238111902
-0.00745434320214213,-0.0295828984242586,-0.0145499699830816,0.000628274802087558
0.00269487272386978,0.000786547093726581,-0.0112492937875291,0.00177548471408927
0.018683849460745,0.0275308294565989,-0.0052482950749267,0.00260658099341529
0.0476804925726398,0.0473450503821904,0.00124660857452479,0.00244923039460755
0.0734423031354937,0.0429675715937327,0.00423998597147411,0.0011706231001409
0.0827709283140508,0.0193555633990972,0.00427175864173455,-0.000489085005458407
0.0793228275748102,0.0287842790081694,0.00595412865750366,-0.00149589021366843
0.0637099151104575,0.0812907534234294,0.0101866339760938,-0.00146628405345672
0.0376383806139074,0.10534512458991,0.0132425061145478,-0.000895284396114245
0.00455165092621526,0.0614789933000208,0.0126118629154007,-0.000445092431601738
-0.0323223073887031,-0.00554925815744758,0.00681715385513529,-0.000447210760013016
-0.0575789519537012,-0.0432017915829791,0.000347087946272757,-0.000889170553893457
-0.0657267890633163,-0.0334571707768929,0.00109180328819845,-0.0014707966466376
-0.0796898710747626,0.00278097176539041,0.00651329961727322,-0.00158305090291438
-0.0990783372668724,0.026073987084831,0.00925844975668312,-0.000688383437822417
-0.0840060140237187,0.0271610317691271,0.00902190997116319,0.000777966608106456
-0.0281454783673102,0.0182220270895231,0.0079303443640601,0.00154607395974595
0.0233747531868076,0.00211154999432703,0.00675965041817719,0.00112068820683038
0.0424857388364292,-0.0170657571847963,0.00738323444326608,0.000312870753569969
0.0445382433411339,-0.0291260595734846,0.0094775261382731,-0.000215266281286522
0.0474196321416483,-0.0222730896954864,0.010834133435143,-0.000369790332086089
0.0459675650380353,0.00282528753288668,0.0115724059760292,-0.000155120953717796
0.03422923999933,0.0291032558711092,0.0133548461121355,9.1262542376102e-05
0.0176703918453773,0.0453045442971769,0.0145265136014875,-0.000309045734570619
0.00177389550710515,0.0465050528520631,0.0126194056902757,-0.00178298169475913
-0.00760666976882283,0.0354578213090208,0.00913011814332201,-0.00371780188970667
-0.00785623210501733,0.0249650048815726,0.00630834358888596,-0.00439993989469247
-0.004608605915052,0.0240311614429624,0.00557241296936299,-0.00257174460546561
-0.00294197207643291,0.0324306985193811,0.0067715545456772,0.000801979582865332
-0.00305227344778235,0.0414684609789129,0.00837266667669433,0.00404623251141525
-0.00216519403338266,0.0431758136959099,0.0107165593612715,0.00669270129644467
0.000195534822605585,0.037148147736601,0.0139228293514684,0.00818569727997837
0.00212168685839914,0.0273766366038297,0.0168378560589288,0.00783372506019877
0.00332531443375854,0.0217799581017149,0.0187858205467415,0.00657402457339417
0.00257474959563003,0.0241556045470324,0.0186124539367054,0.00547778859966383
9.95292012513603e-05,0.0306349830738421,0.0163020680527027,0.00378357759232837
-0.000868903813117826,0.0401933043289964,0.0128520747490913,0.00096553247184237
-0.00195496224943636,0.0478764643053433,0.0102433283447711,-0.00207266779381752
-0.00684637148287345,0.0403588898781769,0.00986610306414445,-0.00468853546457488
-0.0132946495057199,0.0189918605648852,0.00947741171721801,-0.00658958253966378
-0.0185447677750172,0.00116818040164003,0.00864006471740726,-0.0068701009377481
-0.0207405334782899,-0.0113497866233366,0.00724473132212166,-0.00490764470744564
-0.0206368728154485,-0.0240392294884313,0.00470840985914858,-0.00169599973020911
-0.0206872250436731,-0.0272842241887689,0.00369729944285145,0.000648813784924053
-0.0202509971331767,-0.0193721658810471,0.00471357365503223,0.000712199936468265
-0.0206080433508168,-0.0132953106726765,0.00599362286412994,-0.00155195685028944
-0.023278833014729,-0.0161673040239862,0.00841455295135316,-0.00459527066776026
-0.0256037644280246,-0.0198485395659026,0.0112053862654395,-0.00518914323448301
-0.0199511252241521,-0.00757866810212087,0.0100529083944002,-0.000918043217350683
-0.00767209160134864,0.00608314554121906,0.00531983041705342,0.00702812634067058
0.000507924999987655,-0.00964545517191861,0.000815785946409373,0.0137776932182794
0.00471456904041117,-0.0318716443391065,-0.00260438636585788,0.0142816691303479
0.00888145208823528,-0.0140088084677223,-0.00385739203160059,0.0079729944975686
0.0154301712441763,0.032559722609598,-0.00140714659811603,-0.000434680365446751
0.0197714252936445,0.0489609031446767,0.00243220446821579,-0.00534440873944439
0.0118583863290813,0.0158796262831215,0.00382136333947709,-0.00562397765682386
-0.00168079540236211,-0.0247798662307429,0.00322002160454057,-0.00473981405880697
-0.00556577188636677,-0.0320221562952948,0.00422113821132636,-0.00573075869853173
-0.000237225999086123,-0.0053941892245624,0.00616748938202832,-0.00767538295030735
0.000992889673962197,0.0283681134901589,0.00821086305950753,-0.00781549228237766
-0.00549057955243076,0.0433224889557142,0.0102773450152852,-0.00485824031985939
-0.00836039669982367,0.0307499417883785,0.00941314740165796,0.000126723892978282
-0.00283668386624177,0.00456508134147904,0.00641331886035187,0.00421126106323725
0.00528110109687308,-0.0160054729878993,0.00252026780096943,0.00517109730680165
0.0117763890909212,-0.0277378637489888,-0.00237135815868429,0.00405860253800591
0.0137466433788181,-0.0334638091165621,-0.00395638159404886,0.00311997544933161
0.0128517112658718,-0.031075059955929,-0.00092771948549969,0.0020119526344071
0.0121740429887368,-0.0235197824464657,0.00137694452967129,-0.000444594594927435
0.0109489496113798,-0.0181712495087302,-0.00184705714632623,-0.00387388908048099
0.0088012424910199,-0.0147341706157875,-0.00891308354863138,-0.0074074539283703
0.00842723003054854,-0.00605572458019642,-0.00991586319654593,-0.00974631516382678
0.0100397332771727,0.00739712567467131,-0.00234217072707876,-0.0079486917677023
0.00999980149319976,0.0144693753622217,0.00172438757307943,-0.000162729091539146
0.0101160697795507,0.0103485106626252,-0.00221439033532686,0.00917935084111121
0.0123783683306048,0.0032258421161762,-0.00537924910502588,0.0132200638680388
0.013590647993322,0.000893148022517555,-0.00377743493363262,0.0105729532898696
0.0135434217684163,0.00331575576086983,-0.00148090335376353,0.00466668149004101
0.0138812157633805,0.00733483050408875,0.000733318599117521,-0.00106283793595848
0.0140814766957863,0.0106990725688526,0.00292058663634714,-0.00479367992013184
0.0120064347913929,0.0112631186993638,0.00239352764375475,-0.00594629844652826
0.00759710843804775,0.010473391280417,0.00196668692247016,-0.00478121152537576
0.00790451775204948,0.0119813745506838,0.00241634872249084,-0.00202441664315711
0.0152361937207525,0.0149341949649313,0.00123147747149027,0.000611946171335918
0.022927318640966,0.0165800357615401,-0.000293860122457837,0.00129909850723091
0.0274505647401566,0.0161361165307293,-0.00201171164158597,0.000103343064437709
0.0264760448735771,0.0160299424518487,-0.00274172994604199,-0.00186103021207524
0.0198010445736785,0.017801996197478,-0.000686178763293618,-0.00336299802253178
0.0125068773959869,0.0191929192705892,0.00145476275951521,-0.00306968653635862
0.00731080257577588,0.0177632630541689,0.000555048499235814,-0.00091016803184703
0.00417723974978376,0.0130058603692522,-0.00255917817343002,0.00172654104560091
0.00439308370304319,0.0058336337419631,-0.005814973883648,0.00329078032327878
0.007044387041012,-0.000549888652544312,-0.00692866849419413,0.00315737358559826
0.00885154941672186,-0.00289560661914842,-0.00456992950900392,0.00219295047834593
0.0105489089026086,-0.00319498137633526,-0.00322433097678915,0.00158524591740179
0.0124611615624473,-0.00445364673318192,-0.0059612693414914,0.00134991229796042
0.0113294620099332,-0.00739582971363174,-0.00937615110277698,0.00109102300454897
0.00663070477219972,-0.0143670982624811,-0.00951604259924892,0.00072636026398833
0.00149252543649906,-0.0268188977198315,-0.00583676858299644,0.000338573793703371
-0.00243221050510967,-0.0399439786048136,-0.00291786589250772,0.000198939062042486
-0.00635940064584352,-0.0450993584191842,-0.00238168152910538,0.000178622403539279
-0.00837100174436682,-0.0418911528508501,-0.00249428151130524,-0.000275568426172165
-0.00783427312738575,-0.0381159227125435,-0.00217859757495738,-0.00131901060338511
-0.00711783844317756,-0.0360001104742192,-0.000406927519546874,-0.00235034023863307
-0.00549945905981411,-0.0371406788634481,0.00120138718787078,-0.00267733126188301
-0.00385083744118198,-0.0417802460337243,0.000866133099821812,-0.00250758316499606
-0.00631402694674669,-0.041624126073106,-0.00132112641429385,-0.00221383939853821
-0.00994269475158524,-0.0309158395508485,-0.00381614161553775,-0.00148137795366013
-0.00563223141070596,-0.00605436174791391,-0.00511519425164159,-1.26394041145921e-05
0.00416635235911159,0.0299704441538203,-0.00332453108432882,0.00167982568694095
0.00855907863732588,0.0613420196503593,-0.000436519096349194,0.00234723237705207
0.00552639047528608,0.0693775905526207,-0.00068615645803589,0.00149439580056044
0.000823212517145342,0.0433709336160736,-0.00223587396485636,0.00016572953920912
-0.00245202586663198,0.00115748764153913,-0.003191696696402,-0.000368533215994873
-0.00210355114627418,-0.0248774724631916,-0.00552270334866867,-3.95424679244782e-05
3.83970244817091e-05,-0.0295623562720364,-0.00815322640724549,0.000236404510288972
-0.00217245893652868,-0.0300133578870574,-0.0072087474465817,2.72397553067597e-05
-0.00553410945876624,-0.034897990792366,-0.00386901950385228,-0.000450709980364644
-0.00626070700644586,-0.0388122434994886,-0.00225730077957255,-0.000910596488262982
-0.00607808909079362,-0.0362054721489576,-0.00275622824064622,-0.0010497693678772
-0.00539768926779598,-0.0287532401632493,-0.00472847201943758,-0.000718232019511851
-0.00651645330276168,-0.0177290089287929,-0.00455563524119742,3.24744507402934e-05
-0.00693647929896967,-0.00606699886819645,-0.000285756137004874,0.00117645411595925
-0.00104092225728866,-0.000399364927127277,0.00327750764105162,0.00231379789706942
0.00673881161696443,-8.66946726922561e-05,0.00453209317813983,0.00253701989258668
0.00883425727557714,-0.00180146035641112,0.00391606839828052,0.00164948796281499
0.00421165335981579,-0.00422563658134774,0.00147649929459151,0.000325615541436072
-0.00279499308565818,-0.00624956847649738,-0.0013247661186678,-0.000641419212562246
-0.00717534878690327,-0.00711641738444014,-0.00411756756152839,-0.000737976822784498
-0.00942368638881226,-0.00686229243951323,-0.00725486356145373,1.0028534774938e-05
-0.0119288366654192,-0.00483852731579823,-0.00802615422933945,0.00111127613033401
-0.0137607081198998,-0.00129094033233244,-0.0069365543210268,0.00190575837879412
-0.014547927858671,0.000515721811240145,-0.00665166127309924,0.00208979208377625
-0.0141569273138412,0.001205770270075,-0.00547767529688796,0.00170197818004069
-0.0124872455610315,0.00438448003958968,-0.00185905912102619,0.000816070798419498
-0.0105660770918099,0.00741881928685387,-0.00131300427847148,-0.000146725450518556
-0.0107943751390322,0.00817537841053728,-0.00788238079913717,-0.000680411146021343
-0.0152155841426387,0.00865085803065125,-0.013678861872249,-0.000755920043251906
-0.0210767059524722,0.00789510921179545,-0.0141914393294877,-0.000542530081800895
-0.0226292888414505,0.00759629606864619,-0.00998316945152646,-0.000197499213322318
-0.0174899456775144,0.0123262058644862,-0.000850875441526004,0.000345313011025185
-0.00713667486946275,0.0172824638050632,0.0054336545453583,0.00122728397881758
0.00336048524320779,0.0152241271059573,0.00303303450215651,0.00204315402350482
0.0102350734506184,0.0104614237347998,-0.00161142257265404,0.00236170345203288
0.0157196308041964,0.00649757103328384,-0.0011742381697691,0.0020810897313141
0.0189316996577551,0.00274903533562154,0.00359141240541414,0.00129961737983043
0.0171763733295162,-0.00119029191036818,0.00671569909012605,0.000630293419819584
0.0115623333005938,-0.0107344658855768,0.00702404254663308,0.000634302217992048
0.00244731829022715,-0.0256823361844068,0.00405261542893772,0.00094908337444794
-0.00636949316081997,-0.0323220649926741,0.000454138987157815,0.000524810884680111
-0.00936646155305531,-0.0245819069221446,0.00342847799121104,-0.000715687222101098
-0.00808080215368356,-0.0149299730551817,0.00721428501149746,-0.00147912042778616
-0.00743988246326879,-0.0141672943402312,0.000811672784420594,-0.00123585545926014
-0.0115951508912567,-0.0176176104509307,-0.0125266015511487,-0.000763804365855023
-0.0154536182556643,-0.0182569947078319,-0.0202669067058633,-0.000782832678670805
-0.0117512509364714,-0.0146992419105592,-0.0156002701071236,-0.00119147786549356
-0.00445059294089952,-0.00910869691255838,-0.00842868105107581,-0.00140000102671013
-0.000670049615576856,-0.00529965582173472,-0.00870073492296007,-0.00120073104191137
-0.00265831996967634,-0.000861645750313257,-0.00990176981011445,-0.000671336683806038
-0.00589062396964085,0.0082266212127277,-0.00383826203490019,9.06704682157506e-05
-0.00509487995080124,0.0136481383473331,0.00353954236674828,0.000638848780194755
-0.00304769201434637,0.0088904696311171,0.00262550118314565,0.000691182833738647
-0.00347694757705808,0.000801935024507375,-0.00114595878998031,0.000651861476086356
-0.00293106583692338,-0.00488645791680856,-0.000870645633751151,0.00100839412126912
0.00261807077223232,-0.00231948968794681,0.0016590511183898,0.00181258301541143
0.00967384453105953,0.00721245041401508,0.00314806862147976,0.00242682495171102
0.0116153932971876,0.010632415427681,0.00452824382829255,0.00188991874324423
0.0122413050346556,0.00531539001371214,0.009356184905212,-7.1530540862797e-05
0.0198107321687404,0.00344137993415697,0.0176019554260372,-0.00262882903268635
0.0289784104895901,0.00628474905067693,0.0242722819033521,-0.00436666573388051
0.0291109320248742,0.00562220694326319,0.0249228164174665,-0.00462255162293965
0.020934072430019,0.00200932280129655,0.0178749000450451,-0.00387910432670201
0.0117947837599269,-4.88712088255426e-05,0.00572646299101352,-0.00286573416578466
0.00469781953549961,0.00117673627410829,-0.00586018042283023,-0.00201440573004613
-0.000423602603843894,0.00575774876223057,-0.0128012170589492,-0.0012172236857047
-0.000822636337751052,0.0117093558506394,-0.0124204355338952,-8.28385029329262e-05
0.000552464337351706,0.0183448581966963,-0.00692810258810342,0.00131107896121706
-0.000809886162742972,0.0235631872584553,-0.00273948398130788,0.00236092103192605
-0.00121818595776347,0.0216045973794233,-0.00132944551021244,0.00255614445756159
0.00284104411303155,0.0158894892884559,-0.00305050693722427,0.00189663423355192
0.00949438970368132,0.0161869821628819,-0.00631087418406415,0.000632802142878149
0.0151449973343685,0.020034841484018,-0.00542279173309605,-0.000771466225319123
0.0170615204340085,0.0144180449156013,-0.00236495421657958,-0.00148330881099472
0.0172718069278875,-0.00339617993379469,0.00128090781915099,-0.000774589790278353
0.0204705410449304,-0.0248057256074331,0.00576605268184989,0.00155337614995741
0.0218078579145302,-0.0425997288378749,0.00654790710909137,0.00483998885476697
0.0161526108652409,-0.0492594172268525,0.00376662432717453,0.00746111412991574
0.00925512007442614,-0.0412158534336462,0.00246774574575252,0.00706521368017358
0.00526518512919508,-0.0301422292153592,0.00463192145353812,0.00262244914360327
0.00343593727916958,-0.0262112539474243,0.00721133607268738,-0.00335446790169778
0.00166780811124934,-0.0260875178009334,0.00690146824617179,-0.0072982106744357
-0.00330617651561698,-0.0184982269062486,0.00692527039276646,-0.00748633054565249
-0.0103706191463283,0.00143897886520769,0.00805915701083715,-0.00431230206527646
-0.0157336163165253,0.0190996284593049,0.00730412769036913,0.00021350509748972
-0.015852996953043,0.020849859377068,0.00543998314299536,0.00423756144064186
-0.0100950092850406,0.0212523306451375,0.00218505121388667,0.00635028625037262
-0.000550741457927367,0.0457339600945694,-0.00178890520818109,0.00534015133264125
0.0113603037777124,0.0847136591894498,-0.000280170485875013,0.00166182907293125
0.0188677297277204,0.0904516809760486,0.00532030307751769,-0.00224524593968368
0.014018137942628,0.0427893273399787,0.00517038443808907,-0.00460354938036365
0.00265670066809779,-0.0169520020561668,-0.00133228918751805,-0.00585397426665364
-0.00451486231809198,-0.0437132468454407,-0.00458807599383412,-0.00625053771917429
-0.00416541798167052,-0.0393260782425482,-0.00200351916725039,-0.00469953825792977
0.00169140434925769,-0.031337863620843,-0.000706999854797726,-0.00113116399024974
0.00658949167011564,-0.0284424574233278,-0.00113188042220545,0.00273439599867228
0.00646236519767211,-0.0245238393532063,0.000333653022151864,0.00528963468242034
0.00409258371068,-0.0202191302999179,0.00206915310039519,0.00584247139785689
0.00265893055109994,-0.0174568202711027,0.00278177012534185,0.00468027923042759
0.00351589655246201,-0.0156342643274277,0.00235765451144946,0.00284318275069032
0.00666525065578828,-0.0136033237392024,0.00102479280934582,0.00121715825104189
0.00913875946027994,-0.0120214476920461,0.000777729024923828,0.000154908921140538
0.0071068530296632,-0.012374033518896,0.00133862972884049,-0.00055009045321377
0.000847821489797309,-0.0112843407935264,0.00265687532620299,-0.00133744191376331
-0.00507175216323879,-0.00873332082053458,0.00313955529679613,-0.00224666131371997
-0.0104835158958423,-0.00730679508962897,0.00159510531536756,-0.00294103291479122
-0.0147015114763943,-0.00482930094125753,0.00156316380039795,-0.0032819642451518
-0.015733773653386,-0.00149572608662643,0.00359688442602915,-0.00338517979700395
-0.0163796936187044,-0.000664983268333347,0.00451084553788554,-0.00324383428542366
-0.0168561355537752,-0.0014223366349077,0.00370342054508592,-0.00281430370733265
-0.0169964562335945,0.0014890727602083,0.00237005266334512,-0.00224242892023812
-0.0175214761341852,0.010840152849743,0.00181343517380274,-0.00165563917195897
-0.0162248191793721,0.0223627710165291,0.00208972944552214,-0.00112717217064428
-0.0142338668676208,0.0296041034426845,0.00228913536364748,-0.000714756468652311
-0.0114922705878338,0.0293364870868215,0.00346818678313386,2.21527003763349e-05
-0.00350072005366987,0.0207987590772284,0.00544338747285251,0.00153484631421614
0.00587619951167945,0.00768101415914743,0.00635899036878482,0.00329894740019796
0.00882111479072158,-0.00416211685104808,0.0041986725269493,0.00404720300723688
0.00654713901431756,-0.0119348101082969,-0.000865984605573356,0.00247280220887543
0.00604530705789374,-0.0154667938905184,-0.00549939408402602,-0.00154815712556412
0.00887763321603524,-0.0131510160148879,-0.00659436221610219,-0.00652041668187568
0.00876127848349223,-0.0063348721156252,-0.0049122694493435,-0.00997916576688783
0.00184297791324074,-0.000251676629285498,-0.00140348118392327,-0.00876591796042586
-0.00871067497470354,0.00514530561103312,0.00420358755775355,-0.00194699201215491
-0.0163342086240157,0.0093983702240104,0.00506497761608654,0.00597849579938133
-0.017666080687733,0.00516780061589461,-0.00281061832217969,0.00918333614824741
-0.0156174155655544,-0.00445915156620682,-0.0103792482179298,0.00668776822337292
-0.0136764917595345,-0.00832661606315977,-0.011874836892776,0.00141320683731566
-0.0113249332248513,-0.00888775445552344,-0.010781350719268,-0.00396148961564973
-0.00753922339905776,-0.0103357094848941,-0.00832350636776816,-0.00768960196954341
-0.00573789294372124,-0.012028048105128,-0.00410345798064015,-0.00821075919123501
-0.00632330909177716,-0.0148670360666289,-0.00200555084577891,-0.00538811939322589
-0.00593693628900976,-0.0137594008965057,-0.00156342455289216,-0.00143147121787912
-0.0049795122977272,-0.00535935633621768,0.000811489815316773,0.00136106136149605
-0.00359651197853594,0.00409075315292588,0.00265259212578426,0.00303962034888441
-0.00143702192049602,0.00882143891211382,0.00398821679442102,0.00463946759373219
-0.000528998461281514,0.0124907740285463,0.00513543359825254,0.00637022735235925
-0.00288147959853524,0.0203290529181283,0.00379779953939151,0.0074255380998724
-0.00656608350231217,0.0249412896444579,0.00195209195076483,0.00618685607462523
-0.00721206244567867,0.0193982995056795,0.00144313798968659,0.00237943275015423
-0.00458372551514181,0.0101210470230513,0.000350954091119498,-0.00176876450608844
-0.000109484427066249,0.00447730846755357,-0.00173524864957022,-0.00385513349536931
0.00323269624152027,0.00304637665910826,-0.00325886458577265,-0.00329608488840537
0.00153079365733717,0.00109113802849799,-0.00510170386517831,-0.0011878467164843
-0.00217056197544747,-0.00974592887071827,-0.00776148835122229,0.00056227542008487
-0.00417640240412859,-0.0296670395558986,-0.00760103283645855,0.000635848735721777
-0.00593351949135648,-0.0472237094487577,-0.00540984181924906,-0.000334192086960377
-0.00664165204773486,-0.0553247223025502,-0.00623937853301991,-0.000797746565013097
-0.00650293819595944,-0.0527504507747626,-0.00807459179663726,-0.000497517559574237
-0.00923286484718185,-0.0428769245402437,-0.0100395856330023,-0.00013426651702599
-0.0140954461930254,-0.0351151252603441,-0.0138719470545825,0.000294156044987092
-0.0197918662010443,-0.0334293655688208,-0.0181042896085008,0.000947374901734906
-0.024024613158799,-0.0302010975931141,-0.0227405248865083,0.00144973449444819
-0.0223079726695327,-0.0161788180066964,-0.024364507958301,0.00170928709979234
-0.0156344442715351,0.00730389025926942,-0.0168154798886734,0.00198543246215582
-0.00880265152788087,0.0324653557860661,-0.00464804765194724,0.00237703733307972
-0.00466102636483172,0.0456050068964824,0.00220935062975091,0.0024191135217051
-0.00356645571060139,0.0374515990066928,0.00315974270110837,0.00166393548238911
-0.0043492797221294,0.0216061604028983,0.0022419115736498,0.000571070467509916
-0.00439542965524443,0.0160523431392594,-0.00174475789695109,-0.000630382277540031
-0.00144054643470476,0.0245725168730177,-0.00843672072921058,-0.00238682743797351
0.00309307155895755,0.0328388063001143,-0.0115015533898463,-0.00406453056167956
0.00530561786174404,0.0239307162831274,-0.0086095917861986,-0.00412900936488092
0.0083442338793434,0.0043680484048009,-0.00116129734516421,-0.0024622453174433
0.0162949777308289,-0.0112106189263084,0.00952539163356148,-0.000288771493797298
0.0249195240568677,-0.0159977550081587,0.0188434510378604,0.00116238870443255
0.0291354090165861,-0.0081054966879533,0.0255490332691101,0.000690668548312881
0.0245602965308554,0.00186759393336896,0.0273578932316826,-0.00110402212576816
0.0106859894966621,0.000946233076256773,0.0190787279891998,-0.00171918994465271
-0.00281515927353916,-0.00894867585730201,0.00652620315804631,-0.000326551464031093
-0.00911502999109474,-0.0173136810116566,-0.00326304817507882,0.00169772900506426
-0.0125130417066556,-0.0208029890230953,-0.00964920538725703,0.00309563746352882
-0.0175908510304094,-0.0200032249613776,-0.0115466171653472,0.00350639980600793
-0.0211718789207519,-0.013858668306756,-0.0103185166953726,0.00314670717553801
-0.0204717649289815,-0.00740718028746308,-0.00928354252920942,0.00232962173275873
-0.019398797112712,-0.00331260075249621,-0.00936656854956201,0.000900450509328275
-0.0168262224121224,0.00403961615746881,-0.010484626199571,-0.00104910069824313
-0.00919111309647509,0.0151566693436361,-0.0106804611315821,-0.00288474092803201
0.000404571105383444,0.0246372097361449,-0.00741124515172248,-0.00387729620256656
0.00984793690589012,0.0311926371706893,-0.00159140799941244,-0.00352330876948709
0.0204251465976694,0.0313513967058059,0.00430538784809044,-0.0022646176522941
0.027191095984612,0.0255598445190276,0.0103095437974987,-0.000865672939062498
0.0265330559318981,0.023398521414027,0.015288561537134,0.000430044229700615
0.0244688127582519,0.025731591679394,0.0169826940924123,0.00116269786867814
0.0223524257039758,0.0254646597834461,0.0154546733557775,0.000721258921446579
0.017315499075189,0.0216752292038261,0.012970672136131,-0.000536898874804707
0.0109568959787455,0.0195292383050304,0.0129820751999925,-0.00145444319267522
0.00545280879565547,0.0197700640293064,0.0133167060138863,-0.000889754773390788
-0.00160768415210728,0.0164989978409168,0.0105836708502098,0.000646354602211719
-0.00977744931831351,0.010402144285497,0.00815255432097085,0.00113835991740924
-0.0119974809009312,0.00816273798380453,0.00771120748290938,0.000141951991484347
-0.00700822665542265,0.00732730193618358,0.0066485801344917,-0.00112617294616643
-0.00156430372322697,0.000275178533815803,0.00445209990466726,-0.00153549999174033
-0.00271677635296979,-0.0100328762802302,0.00359580839213368,7.36045310984923e-05
-0.00433385704582966,-0.0143674504879292,0.00487107548376335,0.00423638582420476
0.00379312003671134,-0.0116573315171051,0.00515871285941714,0.00849532581690466
0.0141069675175693,-0.00653805126578562,0.00297877158455464,0.00858912932830367
0.016741279000933,-0.00141562511577726,0.000372226913404381,0.00418107559751763
0.0144536995857645,0.00151948558067527,-0.00147928325249048,-0.000522670752047068
0.0105106324775999,-0.000440631405164468,-0.00297714037212299,-0.0026523922537375
0.00567707946943912,-0.00367734162374775,-0.00429112288441387,-0.00273032275139195
0.00230226817795541,-0.001725888266428,-0.00418235810543955,-0.00175262727964229
-0.000861503087212783,0.00660726750711804,-0.00271492051063743,0.000106259287635713
-0.00180910222137885,0.0150968049186961,-0.00296655370865219,0.00222218034705197
0.0072371350314357,0.0162636047514325,-0.00518072183473542,0.00322819130734779
0.0214898299447436,0.0119489883743578,-0.00526611810418062,0.00199121963396025
0.0228793165182715,0.0082901725326291,-0.00283150332034762,-0.00138084678671483
0.00731213662538839,0.0046825582369996,-0.00230401522906297,-0.0051589310428133
-0.00946958920098923,-0.000338978907536849,-0.00324548387354389,-0.00743225561781916
-0.0168168703131982,-0.00563405349108031,-0.00495926939813116,-0.00673589965465516
-0.0185378710364489,-0.0118264345773389,-0.00855367467910485,-0.00193880482447851
-0.0226044098927762,-0.0195367835435405,-0.0141098577531958,0.00562661657141381
-0.0279499940054116,-0.0249402993679625,-0.019117815861297,0.0112677971153471
-0.0268184399064882,-0.0255154696606469,-0.0198391889437242,0.0114838000425287
-0.0189185789185103,-0.0234576358715074,-0.0186969359937361,0.00776577958163792
-0.00904378305828309,-0.0214019151227655,-0.0189059261889651,0.00343373325329705
-0.0027366383819511,-0.0232708208422065,-0.020393008675807,-7.44477778693488e-05
-0.00420970116667796,-0.0276845085743811,-0.0201005393619327,-0.00274761365801419
-0.00757024981957988,-0.0281105100623779,-0.018406321975749,-0.00428193569739299
-0.00564899396856871,-0.0225253581735728,-0.0196599694139193,-0.00464462457011747
-0.00201756561006636,-0.0154948256164361,-0.0213222509925211,-0.00509961711593414
-0.00109333431108416,-0.0103084119045731,-0.0163121887065657,-0.00617816535362718
-0.00211238417269512,-0.00155931682107512,-0.00133367109696339,-0.00687592634551135
-0.00318432188548914,0.009713948810566,0.014459875585607,-0.00612025669655004
-0.00224948445877239,0.0116921993539525,0.019166062561374,-0.00302140781082754
0.00064902878083848,0.00805333323758327,0.0171701369787933,0.00140211237613163
0.00442011590488573,0.0101702079198773,0.0143002451200628,0.00360418191874616
0.0116684290882916,0.0143116742402333,0.00838563960654339,0.0018449400719797
0.0226360423074867,0.0143004400905622,0.000923749297032893,-0.000669453473027522
0.0283397814444363,0.00971411417305426,-0.00663793902475722,0.000581212204361289
0.0209123546044488,0.000313762438704117,-0.0175501917533477,0.00471279208789698
0.00719764161660421,-0.00845375225440536,-0.0261604332289991,0.00640754372200057
0.00058692481579916,-0.0071825133896188,-0.0204824792684633,0.00326541728323458
0.0013832107477135,0.00153081194503506,-0.00438287409802557,-0.00239593462080954
0.00248513315900261,0.00801215908345171,0.00649167140702887,-0.00719037842579201
0.00430505400050793,0.00843575424036073,0.00828748308635297,-0.00945849135822169
0.00645763396744622,0.00475748846436242,0.00610159624796003,-0.00882282248916503
0.00554893425626714,0.00173227171666518,0.000822092012567843,-0.00453870333522812
0.004923935404715,-0.00249179285965299,-0.00471500370926111,0.00270595298847814
0.00632386433959425,-0.00895555177538333,-0.00668519224959392,0.00923718123920182
0.00610214459433337,-0.0111637984001426,-0.00572903222729685,0.0108408002159539
0.00277055380393626,-0.00791573947222978,-0.00331083516138424,0.00595172043667978
-0.00258067416407767,-0.00368010643391607,0.000567135782797479,-0.00225909425353028
-0.00597130797320996,0.00139956974324771,0.00466848475112637,-0.00812271875637452
-0.00459232668632092,0.0095432182892888,0.00579396488921274,-0.00909326588162078
-0.00198321193131767,0.0150375917944631,0.00478016284303431,-0.00654402230313976
0.000862018017095955,0.0147106428690163,0.00410339312453761,-0.00257553637569856
0.0074847029407736,0.016180666717032,0.0041688874158892,0.000919087783206101
0.0144469517372651,0.0210419310205804,0.00558708133871868,0.00294292324509574
0.0170872124781227,0.025189458782188,0.00710785408750034,0.00384957139173427
0.0169080826238536,0.0315286610839508,0.00830658682131821,0.00401000374554434
0.0168120746549827,0.0354890114022915,0.00881586796622929,0.00345605378747841
0.0174147894492103,0.0299040748270044,0.0093845611035327,0.00228671618278868
0.0179791210010535,0.0232191373965374,0.0113902761745077,0.000959947312472539
0.0187076210511592,0.021257028344311,0.0104024482054284,8.8020557352889e-05
0.0191809012748008,0.0177791163669945,0.00547758805223673,-0.000215785750275238
0.0173686878689619,0.00998864616152074,0.00261525369799256,1.63623644866705e-05
0.0144001942943949,0.00154040624075127,0.00314912759308786,0.000740230538212302
0.0133212856828453,-0.00659237819163606,0.00308582852145402,0.00161128723567408
0.0116855376670174,-0.0129347196933145,0.00168997144367302,0.00209992556701312
0.00791515257878858,-0.0124899939694532,0.002505772237865,0.00149144978230964
0.0040128212753654,-0.0045931026914857,0.00402892188994644,-0.00011087236911217
0.00074897975529031,0.00450474823409071,0.00216203322373699,-0.00150853827046386
-0.00197281664110327,0.00995833087592034,0.000897418987194391,-0.00174333602642168
-0.00351182715656867,0.0111403751566888,0.00102095838940265,-0.000949709300468608
-0.00124569704242995,0.00807330749911015,-0.00161208151466171,-5.57618957797499e-05
0.00131152925450479,0.00447713590302499,-0.00379595845925866,0.000652795306076556
-0.000601523874586937,0.000993024415588692,-0.00474452297585715,0.00165463075331041
-0.00398453030276571,-0.00535117028095689,-0.00749669078884607,0.00269553366822543
-0.00552450991634438,-0.0122753000294451,-0.0106657848723453,0.00262533713804781
-0.00587265079296365,-0.0167151941343577,-0.0123895561697633,0.00117548107226402
-0.00785032145852715,-0.014080833165831,-0.0105707013388182,-0.000484405280931382
-0.0103618431554755,-0.00247918561726789,-0.00572282329733467,-0.00125222919550995
-0.0103053278191145,0.011041721852079,-0.00148511793056445,-0.000779742232740644
-0.00708758200539209,0.0178482805365916,-8.58670516148217e-05,0.000952169330482127
-0.00190688814031077,0.0162026980403891,0.000461559952257052,0.00315516727331676
0.0024505023595551,0.0127970957184716,0.00488552180659334,0.00415643104585371
0.00289649569676853,0.0109047441805115,0.0100020674563522,0.00344353702495133
-0.00011903029018783,0.00325124486299628,0.00976911788096451,0.00167151261383802
-0.00132797130396281,-0.00961620097351823,0.0078441902098405,-0.00100878941578442
0.00125451294544948,-0.017022266171795,0.0109829145022947,-0.00408710771193443
0.00351555378977038,-0.0173043086274514,0.0175881491683291,-0.00601252371836516
0.00292436722567028,-0.0174306488840925,0.0192156642260576,-0.00589632526695775
0.00147429741066505,-0.0197038002968502,0.0160558104037077,-0.00434811900182282
0.00189977267664171,-0.019050076724441,0.0131019021249648,-0.00246766378989075
0.00363726261664155,-0.0183255682029346,0.0070407958163423,-0.000938860448698365
0.00323660960604052,-0.0212830764601737,-0.00450963988682691,0.000267368024305119
-0.000386083582944344,-0.0202467943427126,-0.0164612740210801,0.00163483531988743
-0.00394103409357213,-0.0166973704939461,-0.0225466161791211,0.00297976548025191
-0.00467711668776691,-0.0183975815385562,-0.0193770563184304,0.0033391021803267
-0.00210263437801813,-0.0193948690970367,-0.00836867401641895,0.0024265593463193
0.00270197677724556,-0.0105625236085157,0.00410469713229757,0.000720340535881021
0.00537081107222948,0.001945395851858,0.0134720760989824,-0.00138733829137064
0.00186984174676337,0.00459665556286148,0.0170169318794457,-0.00336873510843319
-0.00351078138749797,-0.000591407990739883,0.0139488709182095,-0.00446197985192734
-0.00400915464621905,-0.00267204505358312,0.00902920219390084,-0.00374659087793874
-0.00211302361679999,-0.00068859767668171,0.00558002830665154,-0.000352872835067775
-0.0012721027779323,0.00210541116018538,0.00273323028743534,0.00426240491601115
-0.00222947856374923,0.00579340366344121,0.000440384338763534,0.0060852690320725
-0.00577165311528066,0.00811442842043302,-0.000558907958672811,0.00264630801648141
-0.00734050916391563,0.0066311429926164,-0.000753061778121438,-0.00418028110255858
-0.00335004072371064,-0.000363036367384046,-0.000930818403375678,-0.0097863513999667
0.00108323904377527,-0.00911659416016601,0.000655732300457124,-0.010609556895403
0.0037074470913378,-0.011082989266296,0.00389642793106147,-0.00643658001349388
0.0096322703127704,-0.00882571092748096,0.00477134107454162,-0.000252896509509751
0.0180442990946023,-0.00962343602554097,0.00160464314718698,0.00354882330406268
0.0220934973300659,-0.0148668437979094,-0.00188707160452038,0.00284680003537709
0.017380879000393,-0.0223851987305231,-0.00337877898968804,6.92394560805514e-05
0.00763729909929064,-0.0255328494619625,-0.00369797801710487,-0.000881617058968819
0.0019048616393759,-0.0192829682686282,-0.00094700107792626,0.00113428739795563
0.00143773365863722,-0.00578795339416352,0.00373462427417079,0.00420035900433122
0.00123670747909049,0.00849002444307758,0.00428648981551151,0.00577018533166433
-0.00164454741096873,0.0123927161489749,-0.00247196505075356,0.00479290872851932
-0.00552231530444141,0.00377251365706798,-0.0110927728210155,0.00203802366484758
-0.00626292216383744,-0.00444534939228208,-0.0122776806713895,-0.000887128215238364
-0.00163699918882548,-0.00524586475091137,-0.00566768774005473,-0.00284825524784914
0.00883153502759325,-0.00286570879785638,0.00131628313247226,-0.00364974620814379
0.0182889094098004,-4.64442502770045e-05,0.0041655584968331,-0.00318629371157656
0.0169287493826079,0.00109551815129761,0.00259338734186927,-0.00141328978560075
0.010794336008726,-0.00190846232509324,-0.00243581670011897,0.000647490996984611
0.00875527514185341,-0.00515496155849536,-0.00915278931283236,0.00125143889548742
0.00518158636511579,-0.00247996137739735,-0.0137594289307353,-4.97314361297399e-05
