0.0137253508742343,0.0067245666003492,0.00578845264683762,0.000213900808135861
0.0172082358892379,0.00495246114075294,0.00448607707483084,0.000248289330578923
0.021809193212645,0.00361898821636917,0.00289722989589712,4.55808414749689e-05
0.0257900878943914,0.00378582742502376,0.000456718778657331,-0.000261062870606936
0.0271228968611289,0.00483782506153711,-0.00176422067821744,-0.000316285119675714
0.0241628153333522,0.00717565848896112,-0.00550276938484513,-9.30027859358559e-05
0.0172920918321594,0.010003863535675,-0.0127974160272609,-2.10554286016446e-05
0.0128887014285379,0.0117746888048257,-0.0176031182137404,-0.000248841675906141
0.0139886511699703,0.0120599916725606,-0.016836466219725,-0.000412417028339215
0.016159422874121,0.0113223628512259,-0.0159909694266883,-0.000408523077586475
0.0152599540471558,0.00997095205476798,-0.0178430313255588,-0.000481401637151222
0.0126308684090947,0.00747009447811743,-0.0193873201856626,-0.000637103200932632
0.0115075856746356,0.0037750463866354,-0.0197376085993144,-0.000660575105926308
0.0112916829659822,0.000547614999112815,-0.0207921953547562,-0.000570970591467161
0.0079055411307862,-0.00156482135284793,-0.0200069031555999,-0.000504587294506664
-0.00166765888747296,-0.00315009266892038,-0.0159579946508114,-0.000459302138317849
-0.0127118970080872,-0.00491481918214895,-0.0120206709533726,-0.000330717938472975
-0.0135241833096626,-0.00800524622755668,-0.00826222020442486,-0.000133527031457554
-0.000956382963021106,-0.0116301046370786,-0.000502692983112342,2.0646027610056e-05
0.0115800969122275,-0.012504772610548,0.0103495465051997,0.000302540730488869
0.0137936632914208,-0.00697295428282223,0.0160222363775441,0.00062629623596314
0.0125102356312426,0.000916680776056156,0.0116226931002132,0.000629838831700905
0.0140377854747366,0.00427566182823084,0.00200125838566733,0.000297161827887467
0.0154320174220549,0.00597660958018952,-0.00472063667138807,-0.000334797475901501
0.0154498409495539,0.0101084457161452,-0.00677935361588174,-0.000875077414448258
0.0163555000637227,0.0148499813625516,-0.00746707684998991,-0.000926006649510658
0.01639334605929,0.0161128781400214,-0.00748165616561456,-0.000711813052344717
0.0132110536398992,0.00927113040611529,-0.00670063805195624,-0.000351370203053141
0.0171183489985686,-0.00153988716003518,-0.00670849357628644,-1.26010514783298e-05
0.0313773005220607,-0.00643912433029942,-0.00781833025991735,7.15512592937871e-05
0.0398891028568851,-0.00448627178454313,-0.00960771502052342,4.77755905705674e-05
0.0355016405217218,-0.00209681378422798,-0.0110115553674117,5.54286988758085e-05
0.0222406942728221,-0.00485871537303413,-0.0140621918831468,7.07946733811576e-05
0.00609098355776834,-0.0108697440757719,-0.021084176488735,7.14502689606342e-05
0.00186608673369781,-0.0139142947791787,-0.0259064147849046,6.29355317772561e-05
0.0151120478604509,-0.0118317417230785,-0.0245217149756291,5.05321107494485e-05
0.0275803309742795,-0.00739891171315132,-0.0214725935539498,3.46617955488166e-05
0.0243997366530089,-0.00282562496440102,-0.0193707916005868,-0.000148253036319246
0.00868140046887366,0.000842047859659956,-0.0170588209056233,-0.000551943071127363
-0.0134983607841053,0.003962627724901,-0.0145679163810104,-0.000947424204461636
-0.0446788612224302,0.00467039232848175,-0.0118929068880914,-0.00140467437655876
-0.081659023578484,0.0095786587575188,-0.00669352820986883,-0.00194838604629718
-0.0937574098077808,0.025492559473404,6.26237940526478e-05,-0.00198202904889804
-0.0587077988281849,0.0321941121610506,0.00622627831558024,-0.000769378220646541
-0.00577902863797872,0.0160758431045566,0.0131780251173744,0.00145949317783575
0.0226956184179082,-0.00719131386687834,0.0170226540678056,0.00324451937708986
0.0118186534971515,-0.01854776604371,0.0131961679276996,0.00319089242417286
-0.0254548144151029,-0.0172046094597428,0.0109312227350583,0.00117990593298074
-0.0437761958660255,-0.0195853649793745,0.0209635404529291,-0.00137745859060495
-0.00706816136087239,-0.0400344678315062,0.0386235003375756,-0.00258404148723085
0.048697966266399,-0.0694925878752205,0.0483659573892764,-0.00161560209814616
0.067790030327814,-0.0855002357128126,0.0396858510060325,0.000772918784939778
0.0571813163422989,-0.0831766064506442,0.019302115662175,0.00276804709051095
0.0431596695457689,-0.0680524744073242,0.00731187093311515,0.00261671251230247
0.025177841197531,-0.0365696656537703,0.0170251003345939,0.000377997130453866
0.0140848544588579,0.00723814872055178,0.0273026274248925,-0.00180465475567331
0.0201014391437648,0.0400202869329803,0.0115453218801767,-0.00207958491435121
0.0167854687125005,0.0535832007969669,-0.0142951289293568,-0.000990506079271229
-0.00571001738132797,0.0646175799970338,-0.0223872808041578,-0.000155372597458791
-0.0181607963277085,0.0732753973662549,-0.0115685825899535,0.000335266874702107
-0.00827951736218269,0.0614692339954502,6.53081348356704e-05,0.00126352861849739
0.00422206496005214,0.0334129759065423,0.000419887155437362,0.00233046982415591
-0.00163698023837627,0.0175504448173989,-0.00314507242925301,0.00240459215530014
-0.0356926836850231,0.0205362975002687,-6.67660654470048e-06,0.00120042035498769
-0.0791700254410341,0.0191194621588058,0.00560371708480276,-0.000301295268721486
-0.0851916332476484,-0.00397261227972587,0.00134115898572791,-0.00115119793352196
-0.0510772507386814,-0.0410427391855728,-0.0104334999343133,-0.00134501575796466
-0.0268698304948861,-0.0636581423223743,-0.0151743465945761,-0.00148043569622962
-0.023712029186841,-0.0598193507171099,-0.00425149424155537,-0.00176004415902654
-0.0121719701722946,-0.0441775647717898,0.012029160823575,-0.00159530991888697
0.00999035334530847,-0.0198143134740337,0.0141321235136771,-0.000300834390008523
0.0253555835819093,0.0125447310220394,0.00390590688126276,0.0017458602939032
0.0274864481873475,0.0328215812071039,-0.00623838471398936,0.00313405368470771
0.0231035697906559,0.0305174025061959,-0.0142833128835192,0.00310223315835369
0.0227218694263113,0.0179324592426299,-0.0172127167159455,0.00211205369209975
0.0286465205449899,0.00347885760746833,-0.0119830657561107,0.000891448312092164
0.0354219811772932,-0.0143716141850909,0.00200579517778648,2.33586709031688e-05
0.0365213873495972,-0.020638033146199,0.0224144823801,-6.77336935381237e-05
0.0300172977554797,-0.0011714185458286,0.0347418258088743,0.000644898352358791
0.0187691820989045,0.0229955310712728,0.032885773930886,0.00170016806053246
0.00726932284352155,0.024378668733566,0.0279415769088088,0.00244223994364826
-0.000785165339275889,0.00264420139171712,0.0313123539747408,0.0022457407742557
-0.00754643197926175,-0.0155552897253014,0.0470536975306295,0.00104849529744932
-0.0185304567369444,-0.00752121711124838,0.0636078251976974,-0.000121099554114941
-0.0309188030170476,0.0149525910756741,0.0682916589950266,-0.000322232341217291
-0.0362698888268175,0.0330065751045552,0.0605192505430345,-2.54297852849745e-05
-0.0364853062606476,0.0428778936653376,0.0363380743294353,-0.000214738089678701
-0.034726138202752,0.0438002673920904,-0.00108480550909817,-0.00133310487761001
-0.0264557649582599,0.0346334102364583,-0.0339216730626843,-0.00323962617496633
-0.0100775815263944,0.0183277922071983,-0.0511786968845202,-0.00498263101005301
0.0128106582807517,-0.00731921715076553,-0.0526936684098748,-0.0056972483396266
0.0379418102905452,-0.0360787642457483,-0.0373228371170121,-0.00538545748481411
0.0625841422983378,-0.0421884419142479,-0.00929931623171123,-0.00398369462329387
0.0847319076951172,-0.020473972028447,0.0132202292086277,-0.00156133046649831
0.0867670930527845,0.0122433147794356,0.0171660597916728,0.00124283645916186
0.051491884982769,0.0481066920854841,0.0111790115721562,0.00384370670920686
-0.00413982616227751,0.0715730460065033,0.00452779950835588,0.0055369867534012
-0.0402927793355464,0.0581701221834371,-0.00341341074423769,0.00551102876301083
-0.033461504596881,0.0170949350261878,0.00079662952647926,0.00420238098578456
0.00381458386740592,-0.0206607435247328,0.0214080302212978,0.00374103922677912
0.0343526751994306,-0.0423597732667404,0.0311099097117793,0.00513894722659876
0.0385684399771679,-0.0475915930447849,0.0184288461859822,0.00631172070837114
0.0274150326857821,-0.0529195727084105,0.00569623562097949,0.00483209472673512
-0.00409466712889535,-0.0819750316364403,0.00567499521938568,0.000900868199817028
-0.0493250601826358,-0.107849529125496,0.00293729342355035,-0.00347771013426734
-0.0581857979151849,-0.0926290810309147,-0.0106260019894298,-0.00686104692263486
-0.0222844881457036,-0.0599081092949766,-0.0229631633478078,-0.00870646768598429
0.0122916989008683,-0.0482724511943312,-0.0347712122733238,-0.00878618468211105
0.0239087011401017,-0.0499435157412879,-0.0477539006831629,-0.00771281558861903
0.0297218184084705,-0.0394294625688285,-0.0451157151946367,-0.00621230246616399
0.0414267745079818,-0.0198748159713873,-0.0212780277222682,-0.00409741359497265
0.0515004885003488,-0.00955565172790585,0.00882461480614827,-0.00117079504298265
0.0470462063072603,-0.00755251654794313,0.0291768167629411,0.00211233163179034
0.0172130656199425,0.00664898434483531,0.0290094712515587,0.00463894639222478
-0.0218675669330978,0.0310646658532974,0.0103330928639254,0.0054371015333207
-0.0483166393394277,0.0355550667875006,-0.00872399006589906,0.00490135868327244
-0.059123613591406,0.0217077411219405,-0.0103150103585178,0.00419792084586979
-0.0439006868467168,0.0230198503576922,0.000875490195432441,0.00393300867057348
-0.000363946280672017,0.0374447264726562,-0.00381077604258299,0.00405898473037473
0.0404166221197573,0.0320818120480791,-0.0307232827542472,0.0040241552081745
0.0501303638998661,-0.000938144022954723,-0.0517150593580562,0.00313461761125813
0.0385378312963406,-0.0394001356196751,-0.0497198406748952,0.00155431682484633
0.0258057013523157,-0.0601908357579639,-0.0373804181587582,0.000195144873162491
0.0186562230083122,-0.062896424824513,-0.0325485512228837,-0.000479190037496362
0.0121026099091373,-0.064264626286793,-0.0368106809406332,-0.000877692602481308
-0.0017162612890999,-0.068908042897811,-0.0486608011207056,-0.00154275856737607
-0.0058431435782602,-0.0701847794553385,-0.0704387605820635,-0.00246716096186703
0.015777627199889,-0.0686376814530162,-0.0913352985381372,-0.00320468676476815
0.0360752097076715,-0.0674608880389353,-0.0906356184497271,-0.00354841866922855
0.0254320989397292,-0.0594454111381143,-0.0649739356686636,-0.00365143474118004
-0.0178002719350773,-0.0368868510704808,-0.0349130717386255,-0.00328815020479851
-0.0780490732364238,0.00373173357809779,-0.0177340013260138,-0.00188787323119447
-0.125969924473207,0.0692123733627908,-0.0140020519503983,0.000473850279033411
-0.131990683657943,0.128882341136609,-0.021045727059409,0.00301671018911325
-0.0952063348069606,0.123081508281369,-0.0346177043484717,0.00486459653756799
-0.0546448278725714,0.0625300963009378,-0.0434318480613819,0.00533839436119724
-0.0363950173121758,0.00886316046770649,-0.0405874660704314,0.00465828190449807
-0.03068124475508,-0.0182747595037797,-0.027852904251183,0.00349774666168061
-0.0319698315500759,-0.022799963527608,-0.0144966032423254,0.00203963989672853
-0.0367884679430527,-0.00336869482120161,-0.0151490284363397,0.000350340556290362
-0.0330539317416281,0.0302492892591006,-0.0263031471775125,-0.00137251730602541
-0.0173544134847731,0.0561445642286455,-0.0325235533712117,-0.00254581781242804
-0.00323287124298768,0.0596132304235367,-0.031769016630139,-0.0025507111053705
-0.000789600916070068,0.0482205983900824,-0.0260801907432003,-0.00160479082823573
0.00164720242372665,0.0362444528908401,-0.0197547651263021,-0.000407434949746133
0.0139096411730311,0.030709701451499,-0.019432519781803,0.000584516688307933
0.0258664023647784,0.0320472259166339,-0.0224956312407108,0.00124629699680006
0.0294154560646269,0.0327171758446775,-0.0275457741143414,0.0013745660259749
0.0308240735772779,0.026347597716909,-0.035892969762414,0.000595611288958276
0.0297127087626809,0.0214228078722349,-0.0420411045219689,-0.00080925961211699
0.0165643132380206,0.0229650809617555,-0.0362565765929616,-0.00166912444323578
-0.011600950094812,0.0109657759102786,-0.0130551997468562,-0.00135815684921598
-0.0443514287741835,-0.0152718779638949,0.010511343261121,-0.000338537312384865
-0.0657456557330915,-0.0260513417377362,0.0125192500447706,0.000735038607219748
-0.0737018493078487,-0.0152230461036662,2.99677076046828e-05,0.0014051226120802
-0.0693454473190251,-0.00438293424376386,-0.0141139856972403,0.00134001424452761
-0.0473681517543986,-0.0059711535306261,-0.0270728989494739,0.000415376496462968
-0.0171633853435912,-0.0127801664776315,-0.0334445535723165,-0.000823511657393343
0.00680301081486053,-0.0248713887964293,-0.0298792578482207,-0.00145722633935513
0.0239258726418832,-0.0398755856113293,-0.0184038675310122,-0.0014075010006518
0.0305037960657852,-0.0424690309109945,-0.0049456229338311,-0.00143018650048387
0.0128727778696189,-0.0419295413274209,0.00599456612325348,-0.00187562342728714
-0.00591335636021359,-0.0579498909525899,0.0218498831871122,-0.00248596475108173
0.00583757698981347,-0.0709220386750274,0.0513434818630943,-0.00219330429380922
0.00531126962707417,-0.0402802526792846,0.077025707626256,0.000371354677651149
-0.0400448806833501,0.0464025048135795,0.071944762289525,0.00456440121652325
-0.0699285485186869,0.154773898438492,0.046811046135107,0.00780489024178923
-0.0357178129305624,0.202556098154659,0.0290383491957645,0.00834000647594864
0.0192560456982781,0.143428392686328,0.0187824871760651,0.00646545097857509
0.0438881962179187,0.0446775231127723,0.0120090133029025,0.00310511488184981
0.0479511920288246,-0.00912488421606641,0.0162923569158219,-0.000617357257318971
0.0497008413876037,-0.0178028444567226,0.0253943871026566,-0.00331686351735146
0.0487537964584704,-0.0269687074892985,0.0228433942409042,-0.00465132058052086
0.0455663085995823,-0.0451054562194379,0.0138402024978388,-0.00500127570772022
0.0358399138812438,-0.0459979096866409,0.0151280057927823,-0.00463816052700652
0.020609627293253,-0.0276421477227652,0.0254128397262367,-0.00376283500588465
0.0107011366377057,-0.011960573183265,0.034480635937324,-0.00255304612779616
0.0173397531094815,-0.00895226124242543,0.038796298993696,-0.00140610497275978
0.0412441759485003,-0.00889639834454552,0.0397739995257765,-0.000565820543379786
0.0567136494202137,-0.00405279705623279,0.039304294483264,-2.35771042722717e-05
0.0464470959103384,-0.000603987707722534,0.0376418924404771,0.000136227385087259
0.0354146644781981,0.000504481604684429,0.0373291478601099,5.74994767733911e-05
0.0456281398329615,0.0047246292734649,0.0405389880788412,0.000125617675986441
0.0597958240745453,0.00667492799815739,0.0449872189131871,0.000545941756805763
0.0638408040419279,0.00126784649438325,0.0476141461532901,0.00136460684480197
0.065671388501517,-0.0029842131025343,0.046502053151223,0.00247905572444415
0.0628133773141943,0.0056100906012268,0.0432179082258397,0.00333751990881724
0.0360472401540478,0.0231159728027221,0.0374970678764027,0.00318123553580815
-0.0245469780915289,0.0326792097639946,0.029153764444392,0.00179021519548542
-0.0945514590931446,0.0286162512110253,0.0240380858083226,-0.000227392646486432
-0.120235298412254,0.0170964215805813,0.0265227154584467,-0.00169890090680301
-0.080015764532231,0.00694481742268414,0.0306109120029453,-0.00195127837303721
-0.0224722836880157,0.0118514190152454,0.0282837155643517,-0.00144555035829904
-0.00612912179086678,0.0368581840059896,0.0215034499387441,-0.000928228653257783
-0.0317568597529042,0.061083862765539,0.0146654498402837,-0.000683827906126789
-0.044120189087565,0.0622945279276938,0.00980169544209445,-0.000640897539617296
-0.0113046741851442,0.048493171270912,0.00994254746646001,-0.000796917813985515
0.0305390800671207,0.033498154407549,0.0160171823969317,-0.00103854253944071
0.0498347725645645,0.0154535909233497,0.0290814263513965,-0.00126200049948837
0.0507756904951324,-0.00490558316686565,0.0465574288024596,-0.00189294299939347
0.0412939294144568,-0.00831343588600558,0.0516339011442201,-0.00287979834186431
0.0315747442039736,0.0202866420448648,0.0353852068511513,-0.00368414383635905
0.0280170758702726,0.0634244000504313,0.0125366534197839,-0.00425799410254352
0.0277409494847896,0.0875711115398439,0.00204640614367915,-0.00456813139804244
0.0378134148804592,0.0715974179462776,0.0112882064560012,-0.00443911143546559
0.0542438844945763,0.0371671677441277,0.0316074577848076,-0.00372526810976863
0.0492396395236578,0.0334389429129823,0.0409895427137996,-0.0022485420621632
0.0227561752853864,0.0514180947667998,0.0222526500316415,-2.19593233688553e-05
-0.0050433667294596,0.0351569115930948,-0.01250209570939,0.00203731206430815
-0.0254651297223373,-0.0170597498631178,-0.035775922388917,0.00254413103646296
-0.0234393415012626,-0.0592854499048749,-0.0430308282088032,0.00132748352334242
0.00684628071308668,-0.0756306889560545,-0.049325534456483,-0.000494701526253109
0.0263570470926747,-0.0801734759248502,-0.0508731472319541,-0.00182993844912925
-0.0117223269181504,-0.0743981815918604,-0.0298588560702327,-0.00223306502613271
-0.0740431867780389,-0.0578863631201399,0.00303967197067926,-0.00177560585577821
-0.077118622028678,-0.0423990142191858,0.021179788802188,-0.000605226865892196
-0.0198169408126102,-0.0199619710753332,0.0192646634383651,0.00131185018061423
0.0334433853946844,0.0187982938415772,0.00527540290985791,0.0032832910873119
0.0628353006958125,0.0425117869640404,-0.0115778058067152,0.00372589631161242
0.0766186026705875,0.0406631811512509,-0.0217338600764717,0.00194072902222794
0.0498537087985264,0.048315825481638,-0.0133585222033508,-0.00100339708639022
-0.0397360145496643,0.0682637560237088,0.013785099390741,-0.00342250079146863
-0.143990947590697,0.0693806399863378,0.0345475845533267,-0.0042043878743019
-0.165479568212022,0.049810413155867,0.0344085765191323,-0.00322459060856341
-0.0848892225450128,0.0260810185780798,0.0283096543037283,-0.00132162247779123
0.00134530035465558,0.00117871799704663,0.0292946416178358,0.000530024951297904
0.0273829164307556,-0.0175519586728835,0.0277852395750611,0.00168178814153809
0.0198427058571238,-0.0196130436564707,0.0159270853313281,0.00172733440351395
0.0163000357992631,-0.0153011327992092,0.00468127200160506,0.000878542869623607
0.0228465927303213,-0.024190522832086,-0.00285141855485228,-0.000298631490694778
0.0241963411207589,-0.0496983840932308,-0.0117321511653676,-0.001345797549554
-0.00572871315711652,-0.079787828772816,-0.0160980460556514,-0.00195117334677862
-0.0516174914595177,-0.0967010434572304,-0.0123345052800811,-0.00210290504895518
-0.0546471872741738,-0.0900008005674952,-0.00837497313787785,-0.0017828037735994
-0.00751957725335257,-0.0722297672521696,-0.00997656219762908,-0.000771110826563355
0.0444561115798949,-0.0644371367334568,-0.0157142421597568,0.000868434814716685
0.074097105422841,-0.070326011198549,-0.023887571127369,0.00231271239137341
0.0940494065387339,-0.0759341228768318,-0.0338258636815265,0.00243121400733567
0.117330028607314,-0.0652187677838758,-0.0353192873840763,0.00099347827072043
0.116498865219628,-0.0241616051104591,-0.00802061597347548,-0.000882462167456356
0.068343797023271,0.0529132964339197,0.0301847164828681,-0.00123874135076463
0.0105234478662004,0.112982786512962,0.02945093521334,0.000591384344100159
-0.0237843736850989,0.0933427001317732,-0.0092212681558421,0.00244393844899031
-0.0619845612024479,0.0348373760155661,-0.0448128153829881,0.00194403397340175
-0.0993528959657985,0.0168185420630294,-0.0569921241390206,-0.000613178323857129
-0.0858221732160536,0.0317246777912903,-0.0497230538203347,-0.00274891287672554
-0.0383342047887794,0.0106003133342947,-0.0319570791331906,-0.00262513864463154
-0.0164213223938564,-0.0545915304200998,-0.0104507739439482,-0.000983850466828187
-0.0286491517505518,-0.0979809067436124,0.00255759726919134,0.000361867541584147
-0.0511760053559802,-0.0974649627286227,0.00469777368048795,0.00053777976735694
-0.0782785208498489,-0.0816240027669568,0.00833305940546377,0.000254148914444495
-0.100469779940523,-0.0458508326051689,0.0046232709253204,0.00106357534372628
-0.0859367656427603,0.00992566178365632,-0.0211490383275492,0.00344199796604773
-0.0326461937562496,0.0551160022402256,-0.0418123508525415,0.00582017698308686
0.034116866021847,0.059494563028845,-0.0360222418565318,0.00588727689830043
0.0937378771206361,0.0126920295867189,-0.0303601131263363,0.00329007840408678
0.12126212414608,-0.0429667804668895,-0.0288603372920999,-0.000286833834617212
0.107538066729858,-0.0615961813740266,-0.00579496525513854,-0.00330293191075396
0.0698396758947969,-0.0425464723432107,0.025060290459193,-0.00474266065825077
0.0309875850330527,-0.00907133527312317,0.0355390517877747,-0.00428834911579692
0.00167739004179017,0.0126241458050512,0.0285997142037635,-0.00278814664496086
-0.0190196875691265,0.0148029496587477,0.0153707977590244,-0.00135617883857074
-0.0286220601870483,0.0105340290862398,0.0044511103652136,-0.000484352783202969
-0.0230798128326043,0.0137508608667534,-0.00122827452935551,6.45021197662427e-05
0.00272241782662806,0.0274025365416714,-0.00737809017910696,0.000581402766070964
0.0462905832880351,0.0399818761921434,-0.012780723782357,0.000955465513450488
0.0771696543270821,0.033232065634208,-0.00820337187794766,0.000998926422080409
0.0678628597340931,0.0151769525834731,0.00353959414579712,0.000782011149952858
0.038707881088284,0.00589254623904609,0.00266230618145173,0.000545046620577355
0.0236358719256873,-0.00993408518135449,-0.0216988173328677,0.00061404073898713
0.0230603128894286,-0.047177021455573,-0.055303391490301,0.0011477643306928
0.0270290348445235,-0.0772210729540811,-0.0784549249924629,0.00184760066490437
0.0274517432917591,-0.075843716827133,-0.0870368924610528,0.00223951089792816
0.00258883932162566,-0.0590003629677145,-0.0811269266289426,0.00192272183996552
-0.0504287266632665,-0.0501057965105999,-0.0653122622670767,0.00101397146869949
-0.0883719150036951,-0.0617926744003417,-0.0536513949111308,0.000104379715505408
-0.0783560110638917,-0.0900020526874344,-0.0455715109185083,-0.000391687228621555
-0.026931363861162,-0.110675817102765,-0.0245767319574285,-0.000461982671475846
0.0504192449108343,-0.116415146323263,0.00238183625535809,-8.53213687471015e-05
0.120222490857104,-0.113549825743581,0.00284934679645474,0.00081195979980194
0.134126228551571,-0.0833681579911562,-0.0228646278557927,0.00147018640317741
0.0661018593722244,-0.0048553610331768,-0.02907486253402,0.000756491196691535
-0.0442372395547433,0.093573443768571,0.0097160408830035,-0.00106474107467558
-0.109774147349094,0.144440636954862,0.0753595110019721,-0.00171942010802914
-0.0923125470265399,0.139891706867196,0.128341040655628,0.00105255543695651
-0.0289194535589882,0.119435005467714,0.123491609427933,0.00632157196783075
0.0159252199801604,0.0709252532510078,0.056820756468465,0.00997422003663478
0.00117869495327219,-0.00685765632172022,-0.0167055629602971,0.00841902799809568
-0.0544720737272948,-0.0487094884918002,-0.0438976547761478,0.00203483795537158
-0.0989033408126148,-0.0111233464658807,-0.026443208415403,-0.0053051691216143
-0.092757847039265,0.0644045368087423,0.0014557971698999,-0.00940389892754237
-0.0417231874185674,0.0981174345661571,0.0203028970025656,-0.008296770980381
-0.00119553799839894,0.0573054217870485,0.0251251066821094,-0.00299358493907581
-0.00288136369128228,-0.0212520015206369,0.012966108178285,0.00321132132897812
-0.0191815748535524,-0.0878355952637575,-0.00548541203181933,0.00663770044728353
-0.0168824631423752,-0.120439311305266,-0.0158275007363203,0.00604862393897321
0.00864403890505813,-0.12409515426476,-0.0173360145954833,0.00313231894186932
0.0401098859589755,-0.125802999720157,-0.0169311845809613,0.000221189728909181
0.0589263021650684,-0.1316580176847,-0.0156650793943228,-0.0017004064920376
0.060950984946298,-0.115900213444535,-0.0158095869578448,-0.00279900956313454
0.0488749178846246,-0.0737876597581196,-0.0236419221239374,-0.00289451283806557
0.0223847096462222,-0.0256875129658134,-0.0310011632870879,-0.00200225506361856
-0.00862979773618039,0.0195353967176087,-0.0279959567514536,-0.000930807172450031
-0.0274605458801562,0.0598957763648034,-0.0212642605433205,-0.000161303042224476
-0.0329624860054664,0.0924713413025889,-0.0164884471849295,0.000455272848802283
-0.0341469227320195,0.115097083525547,-0.00871676671324831,0.0013427362284041
-0.0267033228564627,0.120073476283999,0.000983959173026405,0.00243689364094833
-0.00549625510239098,0.105935105027304,0.00764054453005993,0.00289974336795005
0.00314475227920295,0.0817649455785046,0.0123135279144642,0.00243693604906937
-0.0154020462250443,0.0654787627678219,0.0173866633613543,0.00159756952421962
-0.0375972371062865,0.0782659539680712,0.0240143104294134,0.000935789176307496
-0.0457824310466947,0.115741557432604,0.0300931825895128,0.00102237301006394
-0.0377803550830576,0.122194688277993,0.0290748195386576,0.0018229533622954
-0.0225203732609498,0.0680531649404095,0.0182181613388613,0.00246921544572503
-0.00100274817957522,0.00798902278375142,0.000536426897434234,0.00248915561902953
0.0231966956103016,-0.012316568968021,-0.015263030671864,0.0018808151408334
0.0124261188785113,0.00579410822537409,-0.0139017356660961,0.000681921541402347
-0.0427868161851695,0.0410280789958717,0.00562140087548734,-0.000653051404257118
-0.0837065267977833,0.0578332082324074,0.024076428046489,-0.00150999017231761
-0.0817450758117817,0.057041842013311,0.0314258270923534,-0.0017009884444139
-0.0665161110925645,0.0694562736103837,0.025612594163716,-0.00119727073222541
-0.0401846478843138,0.080828796733429,0.00830785834701956,-4.93907921707138e-06
0.0010502063010398,0.0796294198099795,-0.00113042060067651,0.00123599719619253
0.0352149523649605,0.0877178186933158,0.00161279347579538,0.00167071196264194
0.0543509891789122,0.0879466511169026,-0.00684334999279257,0.00119046537079988
0.0592945811880368,0.0561004967364418,-0.0346562799902559,8.37851522517792e-06
0.0560315738059318,0.0136952937465264,-0.0573923238638914,-0.00180128133678062
0.0575015693747339,-0.0149453510742759,-0.0507075258936645,-0.00357575198175616
0.0568637160059393,-0.0233968938092281,-0.0283633792372907,-0.00393009730821745
0.0354568436692548,-0.0108307216353038,-0.0155274851133143,-0.00206445518180774
-0.0109493546249102,0.00718984035637134,-0.00470908347058221,0.00114823299776716
-0.0619571562556412,0.0205623595251069,0.00822274070914949,0.00405956859831598
-0.0968613921502837,0.0399984446678883,-0.000515808260138875,0.00515815764027506
-0.114959542228214,0.0502292950540062,-0.0309427723784268,0.00343535313743227
-0.107941543826156,0.0229308485643373,-0.0497987210404847,-0.000359796415167629
-0.0733645810522611,-0.0209714585714691,-0.0359295503617501,-0.00408647498550263
-0.0386718487635105,-0.0363461590620495,0.00307765977777926,-0.00558332771499491
-0.0203504859960186,-0.00917564609144866,0.0432167562674213,-0.00422146861362932
-0.010249680566755,0.0393750882680076,0.0673768713995702,-0.00135393104437002
0.00244640896823278,0.0688483606573562,0.0742759593538581,0.00159868297011065
0.0324264003378225,0.0560330015599202,0.0669675778452524,0.00378052947246809
0.0786077250196104,0.0231980320065582,0.0467327739979545,0.00462137088010972
0.100827400316628,0.00384699080763748,0.0193384117668593,0.00417453672632644
0.0606878885421944,0.0031974188890498,-0.00304052389792182,0.00295984828377105
-0.0194706315458516,0.00528325632843562,-0.0138718156871659,0.00165094388807912
-0.0741563705458498,0.0041892854494158,-0.0217196340655531,0.000726288871725197
-0.0741202470412094,0.0114327441156174,-0.0315701339716642,-0.000198759009061085
-0.0487106394327217,0.0294735235510052,-0.0309063370730817,-0.0016002467775899
-0.0270231121077284,0.036509809874443,-0.0178285429463533,-0.00284461585738504
-0.0153138379148551,0.0177720137617798,-0.00749632104200607,-0.00321900271095682
-0.0160294031262216,-0.00794361558660728,-0.000991581610029133,-0.00272199942974102
-0.0288702320651445,-0.0254656946058321,0.00870118470995236,-0.00179881028603296
-0.0465267231852788,-0.0413148713939184,0.0154172124580907,-0.00121269515837382
-0.0516261627811598,-0.0555171846849245,0.0119728901929061,-0.00119490643944048
-0.0338285564842052,-0.0584894446172066,-0.00362085308814011,-0.0012953260519249
-0.00191057005210708,-0.052582082489375,-0.0200936300046433,-0.00120688541606538
0.0306400054981201,-0.0498928756894851,-0.0166762645177114,-0.000865543934861843
0.0561312588386534,-0.0492400797368568,0.0077856760024082,-0.000287947723345988
0.0697412215646836,-0.0386276822998713,0.0342802665666629,0.000545883597861063
0.0700013461297327,-0.018580187959571,0.0455341643794868,0.00142066470333855
0.0612555755829994,-0.00467843710805875,0.045522426660812,0.00174411591955694
0.044697938518804,-0.00469709059259271,0.0442258791468593,0.00131146122420147
0.0227566045796882,-0.00942663467404119,0.0339317511855751,0.000435348200711724
0.00481263022193328,-0.0119631512012186,0.0148817043587203,-0.000590496004673963
-0.00235082406448409,-0.0154684697616711,0.00478275189915969,-0.00144181956223006
0.00190783433667813,-0.0193449389043278,0.00164551696813733,-0.00177508136078163
0.0102252739111191,-0.0215825390181884,-0.0105568378251319,-0.00181271360910519
0.00403455013345248,-0.0159999990541424,-0.0194032175070879,-0.00208324661318694
-0.0225746500973313,0.00260738500825364,0.00223809263577773,-0.00228550319800977
-0.032953487070615,0.0156703273956597,0.0349052748112131,-0.00120806446903962
-0.00443100523805622,0.00845434418251821,0.0314550444629497,0.00121258177782432
0.0307974418802641,-0.00358894633798689,-0.00744612375100036,0.0028996947168556
0.0466989328926558,-0.0108926691442001,-0.0511515687290468,0.00220789159720969
0.0456920104269557,-0.0242109987789972,-0.0778371513640834,-0.000550640802393487
0.0415757544956765,-0.0364225213969387,-0.0772394746781979,-0.00397955572096173
0.0440842739783629,-0.0299071788990531,-0.0581008223313467,-0.00605978542399367
0.043682412891494,-0.0156618792046079,-0.0389014448641763,-0.00547589212553757
0.0356804244520354,-0.0135841638863557,-0.0302870845999586,-0.0032546043980099
0.0380519265111907,-0.0256857831747361,-0.0293303065120497,-0.00142277727738387
0.0524258323461428,-0.0403930817664687,-0.0241048653589207,-0.000647237210063659
0.0583537089994449,-0.0433539248090656,-0.00738906629359667,-0.000538098514612661
0.0685395554064405,-0.0355658505769459,0.0148343500865968,-0.000611199152985402
0.0918432309380016,-0.032304656521514,0.0384238587540532,-0.000374999069588597
0.0894874972904989,-0.0250635824459971,0.0558374383632689,0.000391314229551136
0.0486270302106122,0.00674533853053848,0.0506528968389801,0.00161245124748917
0.0132676314853311,0.037837432693969,0.0293892764954896,0.00285058286518222
0.0116645521521217,0.0116119751463563,0.0107378839475413,0.00370677771714006
0.0329084428141974,-0.0806752389786925,-0.00181779266302278,0.00391698255683622
0.0802054731872194,-0.15830333112798,-0.0115701972825519,0.00269638390517354
0.130877658432862,-0.153973414029256,-0.0232790446506726,-0.000292508105416797
0.117558783492313,-0.111093886125441,-0.0338493264180061,-0.00392605049656464
0.0447562917185978,-0.0970789027011643,-0.0353295860694287,-0.00651097481690986
-0.00697188962487208,-0.10602816013688,-0.032107934634771,-0.00705404287656414
0.0108943332117543,-0.106641131800366,-0.0323259866320084,-0.00577255057182559
0.0536930903344158,-0.100189198166534,-0.035237430297044,-0.00352312034509169
0.0413431613419538,-0.087443682047998,-0.0398595083027742,-0.000925006963846324
-0.015776872598929,-0.0693601617370665,-0.0392885332573119,0.00113360280595754
-0.0670417018403138,-0.0589062159565706,-0.0245510654778908,0.00132991182475919
-0.102657600177453,-0.0471381715012607,-0.00518403586871276,-0.000219162999795577
-0.0979643700198956,-0.017998152317518,0.0178871062168155,-0.00150729570861002
-0.0386863947711219,0.00378301944092481,0.0486092240996135,-0.000742636617394657
0.018890359020081,-0.0127170784690225,0.0630996930595918,0.00176306758146844
0.0215800557335053,-0.0294986679716151,0.0478751692171678,0.00392527326950693
-0.00170011311838689,-0.000677188424378063,0.0280096949937124,0.00432007372989014
-0.00233718731221218,0.0396476057257145,0.0230102748707234,0.00363838085994365
0.00619746196024443,0.0311699274342205,0.0209853209558751,0.00306413515690959
0.00231330445261763,-0.0245880223780965,0.00687419652388523,0.00236205078064017
0.00729428217389921,-0.0727662366775045,-0.0166030234597062,0.00098385654052504
0.0236430584865654,-0.0762309678973888,-0.0338896561315062,-0.000583426403609964
0.0261503880184118,-0.0391799727273423,-0.035453689631548,-0.00155016474419121
0.014559952901825,0.00895738785641856,-0.0317846756728296,-0.00175396697737713
-0.000976510418754045,0.0412399457625288,-0.0348773282860289,-0.00170491349226578
-0.0200071533796874,0.0583711387973204,-0.0365172963388031,-0.00166516632694806
-0.0316291829471442,0.0612422476802501,-0.026031645917723,-0.00141634719345599
-0.0285957977785921,0.0439315910382363,-0.0065897733552243,-0.00105054981490997
-0.0190841096269301,0.0169796170454083,0.00925964500801365,-0.000964879919986885
-0.0142068903455896,-0.00790490462096147,0.0107108498482071,-0.000950201014909377
-0.0225102980693841,-0.0223067182201112,0.00469693488120314,-0.000529538431452452
-0.0371046206268716,-0.0253896708981868,0.0101393050042987,0.00011189227707195
-0.0443653868214239,-0.0225424705878648,0.0301803661715376,0.000687801396351291
-0.0395881773772233,-0.0118290086890865,0.0539699500447623,0.00130849438864075
-0.03594735013561,-0.00139960245396226,0.0836915067448649,0.00209227357596027
-0.0600057716200726,0.00950955434225234,0.106426218846697,0.00283583405029925
-0.103510547675932,0.0412605752234317,0.0863701229811618,0.00312318441328665
-0.119797630296481,0.080564657213858,0.0363605647200477,0.0024990954534715
-0.0967324292679799,0.0987000797636642,0.00435859702461829,0.00112069073803888
-0.0649652519443461,0.0983665416775779,-0.0056837984224509,-0.00012450891171607
-0.0512817982699101,0.0931066620860372,-0.0194076901215457,-0.000837326549366997
-0.0586363309193622,0.0891698231303231,-0.036570216614773,-0.00139335376953349
-0.068675564444647,0.0874314771787865,-0.0447211632001419,-0.00205203085719152
-0.0706541087518072,0.0866611928067147,-0.047519163719925,-0.00258403197324663
-0.0689800919384494,0.0860464539897795,-0.0471511498711297,-0.00281057775798665
-0.072000196890797,0.092755328387048,-0.0356904282193172,-0.00282584672757938
-0.0741565467445196,0.118442063224156,-0.00955004899546463,-0.00246230771596631
-0.0553451792200431,0.148762891867849,0.0186841484067544,-0.00129331761621859
-0.0215968910675557,0.158262593317278,0.0343606128267081,0.000667637016471114
0.0117474997034511,0.149896550767755,0.0384614239220616,0.00254346035154253
0.0444446247219553,0.134134107693285,0.0370606716050802,0.00326199737460079
0.0718229766970385,0.104537293261041,0.0336964364909673,0.00249472562321457
0.0827530559823593,0.0577849018884996,0.0319399529274427,0.000933358177194023
0.0627256328267102,0.0115792893734351,0.0313664428273113,-0.000203280467543215
0.0308276833703387,-0.0359637844897284,0.0248882821459462,-0.000559423550563799
0.0231658259458015,-0.108978342144966,0.0112863159733576,-0.000937341029610702
0.0410039073150741,-0.186097381308745,0.0107001949703514,-0.00197907505699836
0.0767050612655086,-0.222762776856806,0.0283650533651825,-0.0030510199262707
0.109421812747638,-0.21708224255926,0.0275384277798279,-0.00289508281186556
0.094633500220391,-0.189825233856821,-0.00206211331848496,-0.0014862845243419
0.0352443507400941,-0.144871818320374,-0.029068369201875,-7.88143914749102e-05
-0.000824902327226901,-0.0929366477471618,-0.0398711624882937,0.000704670393998748
0.0205892064573766,-0.0554780749378278,-0.0394929281546917,0.00130597472504158
0.048598426329268,-0.0194932160508961,-0.0338206530289165,0.00194370420025729
0.0284442329658167,0.0478926519367074,-0.0230281820851856,0.00239306218077785
-0.0188961127169235,0.138255656471011,-0.00779021107685046,0.00257725486678345
-0.0515506002777206,0.194706997658629,0.00398781074980307,0.00283234046898368
-0.0642803015821329,0.177139639629438,0.012246279767297,0.00366700954655288
-0.0664148810793024,0.108213703235285,0.0207927661415768,0.00519191405700575
-0.058396956257977,0.0347444349063686,0.0177936040727767,0.00664198110298156
-0.0394603061672311,-0.0226259236863508,-0.0112651697096426,0.00645226935551107
-0.0226092290916992,-0.0564782296570205,-0.0506581436034157,0.00355011353382961
-0.0217050671355336,-0.0525195259801263,-0.0673430879152937,-0.00124221865083015
-0.0290001519788671,-0.02946081968506,-0.0525838008057224,-0.00548229024120592
-0.0136689127405013,-0.037177705186591,-0.0249152411678591,-0.00719668756768893
0.0239490662127289,-0.0755321602654218,0.00135610036603372,-0.00653492931395781
0.0583947415249438,-0.0872859617186625,0.0310822388586845,-0.00469101835551906
0.0793537138029156,-0.0490542620041918,0.0544434660318207,-0.00235867600673476
0.0750986797122978,0.000752896048958729,0.0511407476588155,-1.26657019594318e-05
0.0462682928411382,0.026266546493896,0.0354206616426231,0.00182499770326378
0.0203412959263239,0.0237029124599414,0.0246580803373752,0.00295747016131663
0.0197655824298477,0.00849601239261327,0.0126480585890776,0.00349874461426666
0.0337508716189058,-0.00162029640597926,-0.00128853512021206,0.00367590040749827
0.0435888019912294,-0.00749297649452134,-0.0141488122047307,0.00339129742329161
0.0432650273456263,-0.0197794006650292,-0.027469203230717,0.00221726054564291
0.0321738365789878,-0.0336291231082367,-0.031085963831845,0.000176302052728358
0.0166289855001702,-0.0327985411991719,-0.0183578490526607,-0.00183441189717414
0.00571162917625778,-0.0125686794788351,0.00563224346699294,-0.00256183296091012
0.00191722122475717,0.0107430252374676,0.0261337829431527,-0.00144522466178071
-0.00790747145744378,0.0212093638615439,0.0167256849861024,0.000908674418854245
-0.0398291565496859,0.0257381632166223,-0.0180879404670657,0.00293004865955444
-0.0910143541348823,0.0434475783145117,-0.0467759066637323,0.00300824013056342
-0.138007054517512,0.0778806011125777,-0.0531460614930673,0.000646550545632324
-0.144855698084224,0.0865099961999279,-0.0369236177072093,-0.00279087158953057
-0.0927652371942673,0.0273491179054886,-0.00318375444786108,-0.005083820140156
-0.00424071079902741,-0.0557983683653247,0.0328370263520692,-0.0052681262505684
0.0690762688619672,-0.0943917426334212,0.0464757738998066,-0.00363727228056933
0.0941699687718624,-0.0911032306144289,0.0399242794708144,-0.000699490825744348
0.0920712226567182,-0.0663635751031478,0.0310342356360999,0.002818943723889
0.0862071861508717,-0.00838259646571182,0.0181377434909324,0.00562737393584034
0.0620672795330098,0.0821174060164434,0.00201337192294534,0.00638515387136744
0.0160579120150092,0.177101636956078,-0.00658042596835869,0.00475949002730155
-0.0215747544333669,0.243376820794359,-0.00285929676671279,0.00150923425182943
-0.0226900236857243,0.255673896137763,0.00129048975569159,-0.00245839493025339
-0.0109210785935671,0.21448411551076,0.000182547336924861,-0.00657385604717503
-0.03209120216515,0.172734015179893,0.00328251911778132,-0.00985064513537959
-0.0596549711114138,0.167929205612203,-0.00370799326883259,-0.0104680481712391
-0.0338321380376065,0.13547230611304,-0.0344108800613943,-0.00791357804243229
0.0263426278728066,0.0301597107556343,-0.0683551978504216,-0.00423656347076102
0.0393364459381457,-0.0849414947698148,-0.0779066983976497,-0.00154722593033117
-0.0264158948103266,-0.155702370975212,-0.0456610214796494,-0.00051539696364063
-0.0805264495599664,-0.195497313224972,0.0162586236404923,-0.000634744175450579
-0.046353850549324,-0.213679742083248,0.0583274279642569,-0.000184430747694322
0.00336330442381044,-0.201647350966938,0.0430596321077609,0.00250380903660262
0.00981904238992369,-0.187765529123299,-0.0133643778831645,0.00671739623259877
0.00482019743645683,-0.178929441090705,-0.0558828403194684,0.00928823582466216
-0.0135855760627144,-0.135844056387536,-0.0598172725897643,0.00819337485111848
-0.0520755567272817,-0.0737132544473356,-0.063430969032572,0.00490489856058654
-0.0439513374671865,-0.0323970371550588,-0.0888746189879634,0.0016146248582981
0.0404257893860037,-0.00288956826255671,-0.101867122470502,-0.00154525668410061
0.120647284016063,0.020216037394705,-0.0675051264790265,-0.00447896172732241
0.138522635210294,0.0325494528449226,-0.00569228899188588,-0.00560113413800095
0.128842243920309,0.0493309463013149,0.0233873735311326,-0.0045034616992452
0.131618951967927,0.0602926612656605,0.00753461454301633,-0.00300018536674384
0.137564401373885,0.0428911102978405,-0.0137159583926335,-0.00253385403418582
0.122373374671036,0.0363412011592523,-0.0261255800052503,-0.00254284838133084
0.0897113868945945,0.0719795346738899,-0.0350553135480549,-0.00158434339737707
0.0513931074369292,0.0883983017860305,-0.039761832525427,0.00083430748151319
-0.0187822142583652,0.0474801033727746,-0.0408123110526757,0.00348408366090945
-0.135281682451102,0.00140585694669507,-0.0346895807330913,0.00448448152157633
-0.244190805892768,-0.00815381573369586,-0.0143381324616091,0.00345935931223519
-0.2586892483458,-0.00516575548706556,0.0108552661080394,0.00197102834280275
-0.16429144836138,-0.027554310995382,0.0248502050082757,0.00144824610170999
-0.0625480366705088,-0.0718000371128816,0.0199064929744521,0.00152862982048193
-0.00563658854863744,-0.0882993819483246,-0.0119973822367736,0.000983110842239831
0.0512593983064178,-0.0385895088769117,-0.0462973345563361,-0.000293050310066031
0.096357829953481,0.0303410247029643,-0.033534760041447,-0.00091830536296137
0.0907255995820606,0.0400927932098045,0.00745958903263212,-6.52660537815074e-05
0.0649464861957309,0.0066559512116796,0.017564721278353,0.00130740500076596
0.0667408539544334,-0.00325921344500066,0.00461178641296797,0.0017997680932461
0.0858708481146429,0.0152506393165407,0.00697922130226639,0.00102190575984837
0.078852006026426,0.0301165393611667,0.0271103476285667,-0.000179426414002119
0.0352662379305909,0.0239642983883217,0.0467109857877729,-0.000820986652193948
-0.0239359369832772,-4.61265177039705e-05,0.0537935800656267,-0.000696028350370241
-0.0818394610130942,-0.026343174048151,0.039417534118568,-0.000174439610083719
-0.113512379528607,-0.0488377894629141,-0.00146954817086584,0.000129365489907797
-0.101134511106968,-0.0711204677313576,-0.0469893547231082,-3.92542869050326e-05
-0.0520322652315517,-0.0895682908077055,-0.065817938033925,-1.87185836429205e-05
0.0459349451885878,-0.111027543895908,-0.0552529886297818,0.00078177665614633
0.168613419453107,-0.135725508975648,-0.0242872612631314,0.00164028831477177
0.222175731260875,-0.128136843462722,0.00640920154592321,0.00178602722760985
0.177925634962159,-0.0765965222720663,-0.0017105893496213,0.00136154231323817
0.115824207630871,-0.00691747939163276,-0.0313021108615792,0.000435154091108023
0.108742297011665,0.0541641395996545,-0.0356457320388003,-0.000742685842718981
0.12530359915281,0.0899943676621929,-0.0244430858628152,-0.0012184918275354
0.0876833407908297,0.117998640347386,-0.0146200252534898,-0.000561510460179595
-0.0175120394328726,0.168201731135011,-0.0112550770579652,0.000473015641384641
-0.145613553674715,0.218230207315139,-0.0227387174999432,0.000989351997841121
-0.211726858868011,0.223973534487691,-0.0146749479419948,0.000679735847103899
-0.175598747606707,0.182265551029276,0.0422297901169628,0.000155449574339349
-0.103920436944847,0.11621643814185,0.0939717789855292,9.78431621403083e-05
-0.0444822001271303,0.0724335790450756,0.0844902082064598,-0.000222306521909317
-0.00157949427223708,0.0653620758567776,0.0439045172027767,-0.00128011463946522
0.00810138712380258,0.0381044320870782,0.0147757664293176,-0.00177512741842689
-0.00491108758047488,-0.0414854752345476,-0.0159318637123376,-0.000975944710717872
-0.00450933808748204,-0.142087340950131,-0.0578339316670153,-4.19232538883976e-05
0.0205448928668499,-0.223918228799444,-0.0540949419910259,-0.000289612303866481
0.0576027756835538,-0.254238518395166,0.0322635025927158,-0.00128185453235943
0.0845268842295509,-0.206600930461688,0.119731661704649,-0.000379316414863025
0.095967343002645,-0.111041963906343,0.119846403478753,0.00410948606858208
0.115365133950978,-0.0266957833402811,0.0391739909765289,0.00951735361030633
0.143446415500801,0.01322929598439,-0.0614189043714576,0.0115025425025918
0.155905062432277,-0.000322833757467333,-0.132929319184988,0.00863467371858284
0.121722237240938,-0.0246652555936221,-0.171117069996326,0.00255610131823428
0.0461971108171098,-0.0293670714877333,-0.175220035612099,-0.00401788009874332
-0.00171306305238898,-0.0432970388147745,-0.142295644389652,-0.00842254518303416
-0.00369780045619691,-0.0755479342909589,-0.109080101486193,-0.00926449359960493
0.00478604192243235,-0.109804453898338,-0.109322462106071,-0.00752359878313956
0.0428802943937715,-0.14621337611186,-0.106891493137995,-0.00552952618320662
0.106523328865801,-0.175785461842204,-0.050122851593321,-0.00412346954454447
0.100648122011294,-0.171279067837231,0.0548366946925931,-0.00177536398096394
-0.0259656901462783,-0.116350623279981,0.155057202943121,0.00244588928301989
-0.173599165161129,-0.0218872552304256,0.193756842884753,0.00722275937235436
-0.207627539179984,0.070107109353392,0.161110769941171,0.0105467038060769
-0.148858137011294,0.146428580290771,0.0961606698563401,0.0112026424628849
-0.109511166972402,0.205489954297497,0.0474981221755499,0.00982670369444443
-0.103288244430363,0.174579068034339,0.0265996627668348,0.00778352174328024
-0.0875070081919064,0.0426376133966444,0.0144904155257449,0.00494666519204467
-0.055056984807989,-0.0672951707032248,0.0113613847486748,0.000980277610764399
-0.0138367970521583,-0.0876651309406898,0.0241773899559351,-0.00271359412300728
0.0139568194961101,-0.0577344061577821,0.0464749613960767,-0.00436676285804228
0.0305821205153455,-0.0259089399880628,0.0691063400946107,-0.00371119436390178
0.0497447517882253,-0.0158273667106505,0.0885959381408186,-0.0017048688767564
0.0440739099240751,-0.0173372863455305,0.105993013262905,0.0001527413572414
-0.00418147077347254,-0.00264587682585235,0.113781478333329,0.000569381214338384
-0.0616095979878923,0.0292772370829384,0.0948656461469237,6.84727588088721e-05
-0.0669827135893993,0.0427934033692099,0.0479717316612206,0.000328126194018297
-0.0041928528377367,0.015144027956679,0.00800223725492591,0.00140938487057987
0.0582258677820265,-0.025598931232503,0.00257966671096357,0.00208536408852908
0.0468801218041871,-0.0378968542717003,0.0200870801301296,0.00189296878441013
-0.0190464502214011,-0.0220915274167698,0.0451204756377911,0.00132456635155341
-0.0621365086403091,0.00241739279514001,0.0549093918891587,0.0011068259106344
-0.0489187809572378,0.0284708863792981,0.0246665840016426,0.00128556745791101
-0.00720558519410551,0.0507443076304379,-0.0363382363486251,0.000942795678012601
0.0116609591913937,0.070750203544492,-0.091367845687713,-0.00059073387765015
-0.0210674429849431,0.0874907734284125,-0.101763664279548,-0.00272541286850717
-0.08646755999005,0.105494249121167,-0.0719832762788143,-0.00425055919189116
-0.131799957495956,0.121619093223729,-0.0395068888778748,-0.004440385791726
-0.104726663956715,0.103952420900678,-0.0149730992557195,-0.00372005315360716
-0.0233353813933498,0.0639377096345961,0.0110935301378362,-0.00305385192218236
0.0283624517086878,0.0479726287153847,0.0378654820872718,-0.00265791101494152
-0.00729992304385876,0.0497217737091392,0.051485308223687,-0.00211196164368625
-0.103553463695469,0.0334877730346313,0.0492543404702814,-0.00124367590684155
-0.154751814286412,-0.00435255567589436,0.0464715676516595,-0.000335426794913556
-0.112617346163851,-0.0427527130263853,0.046091532247386,0.000413251364767747
-0.0534077718939033,-0.0531924823629336,0.0410407192522926,0.00099688132957866
-0.0215960091128684,-0.0168143957465911,0.0335872753539754,0.0011643669650193
0.00616932150647792,0.0314369331153104,0.0114256347465995,0.00051932133421461
0.0329804606560674,0.0360659726752541,-0.0355968997952225,-0.00146959017159784
0.0421897707711519,0.0026457321773949,-0.0706507405520552,-0.00504956904232209
0.00868394352165868,-0.0170752744078709,-0.0632843601325252,-0.00892135447998839
-0.0696788204510693,-0.0035788521124599,-0.0393589782882928,-0.0108152417296824
-0.121776634932098,0.0163613886882174,-0.0353051946205854,-0.00984779641531504
-0.0892811949352111,0.0269997927048517,-0.0401569737264592,-0.0068908359970061
-0.0451856934710445,0.0392755275984742,-0.0312892544456136,-0.00315791890122379
-0.047633327748509,0.0449232562948751,-0.0211191180266458,-0.000117597533953222
-0.0165054365113923,0.0179527926944488,-0.0211099283044904,0.00101859770204832
0.0619727458739442,-0.0158137435597596,-0.0253089143225482,0.000561554858111082
0.0984912629644531,-0.00744865222508605,-0.0161379857334119,-0.000156166618750802
0.0805079961394964,0.0239190668045853,0.0146526420548256,0.000409667885738475
0.0404161495623934,0.0305373345403868,0.0262262176809794,0.00254244175440922
-0.0138297843326398,-0.016866775659203,-0.0163688204753781,0.00394408550307985
-0.0524320056939904,-0.108788394435075,-0.0760844072606335,0.00213441841857682
-0.0605435585090511,-0.170598557807677,-0.106007782126646,-0.00238626902981499
-0.0758542869859761,-0.162118821666572,-0.0912337214989328,-0.00705783752292938
-0.0941255109276262,-0.130625142832274,-0.0374857474036053,-0.0100347833646669
-0.0830774863524198,-0.115160292456239,0.0126797973517623,-0.0107387354734774
-0.06839086818689,-0.105283904328626,0.0207539499603665,-0.00922996354974309
-0.0658862847976838,-0.0965920349908035,0.000151154261367331,-0.00614362494621617
-0.0526689758005238,-0.0939140273538354,-0.0154524517804629,-0.00265702166357675
-0.0211555981607476,-0.0827343327740929,-0.0103831886684408,-0.000219847563969098
0.0130798725549453,-0.0497241774366573,0.0132818666258508,0.000490922950802919
0.0328670963539288,0.0138092974715076,0.0486934308939491,0.000642330227447359
0.0671818336924588,0.0907169661324533,0.100399603835931,0.00178082852191654
0.117819719949622,0.161371356147081,0.156788517544849,0.0044940613284138
0.125425371626067,0.217192798586982,0.16469913916955,0.0084405539418554
0.0915108123670568,0.208674575027762,0.113545346252417,0.0117422964686435
0.0564683881811506,0.125862606878057,0.0730094236382714,0.0122496931150961
0.0319012781296401,0.0127059090467409,0.0751564718047489,0.00976748613827469
0.0116036812103521,-0.0906861126388821,0.0822310258168015,0.00604336102927409
-0.0371388347328403,-0.123585205904443,0.0863077326482624,0.00315931158115412
-0.130621380704092,-0.068870941000939,0.101911279010503,0.00218372759376432
-0.189388948726939,0.00817226952455162,0.10425496231834,0.00298313939034914
-0.131972285381559,0.0375847571703786,0.0718574180719205,0.0041544023965761
-0.0389051472047759,0.0331463857113579,0.0384904908518131,0.00371223477128308
-0.0205415556544473,0.0532699863341207,0.0255341291054843,0.00120345461011491
-0.0244011214606278,0.0958493005605583,0.00545172513885062,-0.00213771751768371
0.0240398706708135,0.121696374918673,-0.0207037785412903,-0.00492243095769437
0.0713657888643063,0.118665883165091,-0.0235231947850086,-0.00603571866936188
0.0492026040735713,0.108249321075342,-0.00734699926380686,-0.0047047073805964
-0.0098572227825093,0.106879574518648,0.00787575465249195,-0.00127025457978766
-0.0409033798946406,0.114563093775578,0.0142627410358443,0.00277965476581173
-0.0510400392853332,0.133683766136687,0.0109896429848687,0.00580776848480057
-0.0593216711419111,0.151460671006667,0.00808286525329322,0.00691647351299718
-0.0337202705420989,0.14769011586362,0.0040477856596272,0.00691771723250905
0.0308829062831703,0.12271082425365,-0.0123530659081096,0.00666799337466127
0.0928293295998816,0.0754426598477931,-0.0359777718115465,0.00547461749489791
0.127674988358654,-0.0107945729118708,-0.0553174030438996,0.00281547959878174
0.151303148282025,-0.109479341648713,-0.039915842502286,-0.000600706956170596
0.172242304434374,-0.141997547241764,0.0135524918233229,-0.00288420358544932
0.173766129491952,-0.106998306912951,0.0430058115616627,-0.00258049383463505
0.125380000175276,-0.0827153745020755,0.0556021000332417,-0.000673952308545909
0.0236350945369367,-0.0655323146709737,0.0987176504317877,0.00137744456423596
-0.0350564757065021,-0.00802525136795357,0.109848789589746,0.00347779566179933
0.00877083040843757,0.052390029072677,0.046781282262536,0.00492853725865456
0.0345335887868047,0.0730337993797602,-0.0188187891453162,0.00422822112150803
-0.057147985435977,0.0761767708002475,-0.0196765417068953,0.0012241379677575
-0.17475681601282,0.0882971037369646,0.0390725050570473,-0.0021634973238864
-0.207184004752329,0.114937778333061,0.103254566017205,-0.00280372028612599
-0.171496412561653,0.127706693983844,0.109511550779339,0.00122673832245134
-0.128485065474067,0.075899978887696,0.0321268335637964,0.00724608382255942
-0.0982528416799841,-0.0153520539067805,-0.0606801733490752,0.00895840609347799
-0.0630302274590071,-0.0676798892889907,-0.0911481961300303,0.0035830927885468
0.00313059732116186,-0.0736357651198677,-0.0757116035308639,-0.0050805865455562
0.0625959126981357,-0.0582602349283945,-0.0526289303778238,-0.0117515483465787
0.052381773627174,-0.0206091990329401,-0.0255953422584173,-0.0144921333821364
-8.96273790340005e-05,0.0332961489631087,0.0149310265594237,-0.0143743644716091
-0.0320854267048995,0.0620383089898604,0.0637455754005898,-0.012548612376492
-0.0263103228321064,0.0139209151865908,0.0885288909651122,-0.00977041605474791
-0.00147827505612737,-0.085688497558378,0.0737305401878156,-0.00711798135761471
0.0147641213056445,-0.157244712070794,0.0448233050801329,-0.00527195220646325
0.022005772646527,-0.175191875675887,0.0344839617833837,-0.00397372235191765
0.0505325873055824,-0.168587961715745,0.0274003816005877,-0.00204946910489688
0.111666868065028,-0.14960354002434,-0.00887292376430224,0.000938908058262702
0.173655380895093,-0.115848114414597,-0.0479298631216588,0.00364555556914598
0.199316063591823,-0.0783911612380967,-0.0673291812501403,0.0048893614909838
0.175838507733618,-0.0261636173077424,-0.0865899500690882,0.00481202184485283
0.109953570232291,0.052854355754381,-0.0967551991162878,0.00388027812167797
0.00555565329653745,0.140472803085581,-0.0894256883608218,0.00278716525497912
-0.0970308623493816,0.193840795394277,-0.0907986072243465,0.00196888272898292
-0.140055021831726,0.176059610795476,-0.0808699535169567,0.000585705557104549
-0.148644094001031,0.103012834250243,-0.0158556562074758,-0.00130621433951432
-0.151153290326316,0.0272588744518627,0.0813278588466426,-0.0011651814063462
-0.11003233277083,-0.000262658259447268,0.145348410263965,0.00274458317027327
-0.0207519789952044,0.00893570043585794,0.134418769066604,0.00799360592315958
0.068508919539478,-0.00189447115994459,0.0620082026436806,0.00967228441675859
0.127028523163904,-0.0381043287442815,-0.0231709642517364,0.00559022934706445
0.1452047804235,-0.0599338384275591,-0.085189843773083,-0.00131472376487149
0.110987082981516,-0.0487664102737604,-0.127023744426686,-0.00654818436656155
0.0408494905731109,-0.0190967758891272,-0.163956291678366,-0.00867636209312862
0.00357898879999174,0.00350985417173727,-0.185500753009523,-0.00934062011383844
0.0466754098599591,0.00815327347499368,-0.173244256005961,-0.00978063785142343
0.116832386047784,0.0051798946854649,-0.129686185364883,-0.00924510280035596
0.130571497276453,0.0155954734851684,-0.0807921115180686,-0.00680816941344761
0.0399835035543021,0.0449334975254761,-0.0469337910487499,-0.00315270687142637
-0.112674234036066,0.071957698805653,-0.0280320705935273,0.000204287615874961
-0.156392137072539,0.0735609581967476,-0.0257742627511966,0.00258765306586816
-0.0221895821456022,0.0388802173630834,-0.038620090407715,0.00369515460174184
0.132183339505387,0.00380663487501602,-0.0413067203187484,0.00327140563158852
0.184734451271494,0.0063417170407891,-0.000891742671349838,0.00287482795550377
0.177727879991005,0.0261342698418605,0.0643982104997862,0.00512560457377582
0.165689968282166,0.0532335468046241,0.0796407019458529,0.00994318846288725
0.145337815690427,0.0856966330379579,0.00898343285516329,0.0135991888391586
0.0904240905023453,0.0789156308932777,-0.0859264197787092,0.0122400574707621
-0.0259896479620241,-0.0161810081307317,-0.11517601296231,0.00551009713813433
-0.181344896246483,-0.152501833370409,-0.0468618274943266,-0.00306354549248602
-0.275042376936778,-0.1962333498748,0.0632049439559763,-0.00808864182299204
-0.256049215013357,-0.105632105440478,0.108880759979755,-0.00599446343379578
-0.193016627492586,0.00816719429227233,0.0500170346094993,0.00132468827880491
-0.113735250017844,0.027674274047206,-0.0683669599035833,0.00825665786540068
-0.00160141752315818,-0.0311403344219564,-0.191188770290272,0.0106390005082159
0.109958699537839,-0.0931897470604583,-0.263131293077876,0.00710732268767056
0.206215011677306,-0.105007246267159,-0.256080258594231,-0.00100688590768245
0.236236823916458,-0.0425366000185191,-0.192755835438583,-0.00926540082904274
0.157601683875219,0.0556872445962837,-0.113760586885316,-0.0132615966236899
0.0915994189223779,0.132528156861843,-0.0516349822459976,-0.0120527258875438
0.130845734289952,0.136238159392877,-0.00996977250783804,-0.00778728513693894
0.183743996734818,0.0757387105479919,0.0379248124972189,-0.00409536100672089
0.145856477813099,0.0320008706629897,0.0934433041224529,-0.00316865310786986
0.0296811336900109,0.0433427767918965,0.136386026780658,-0.00330960386891084
-0.117695884128939,0.0658977627380148,0.180673233498498,-0.00175830325710174
-0.220863091468359,0.0326260350944071,0.210395829311488,0.00163195961809836
-0.192906910940152,-0.0640263474726024,0.172099247123162,0.00454658720435911
-0.0925947480243991,-0.168605881326954,0.098182595539545,0.00396042611071105
-0.0493506639481732,-0.223199606746001,0.0751715720541939,-0.000660986025580921
-0.0720746178752911,-0.212490054270816,0.093374945797648,-0.00522353154238181
-0.0835624286291762,-0.137726187369643,0.0892540963110148,-0.00501838044326096
-0.0670948401806517,-0.021778675852223,0.0704345252085978,-0.000270023526455609
-0.0623820779352158,0.0630025135763097,0.0449773331152019,0.00516199989505798
-0.0688022828455219,0.0857129849972439,-0.0100476795302185,0.00795749548907792
-0.0753839915351453,0.0684386770541711,-0.0603220404822729,0.00640359077945177
-0.0869574661881211,0.0443893713235598,-0.0735517287533733,0.00148183164933173
-0.0745896466448445,0.0546904219765567,-0.0593389852265751,-0.00346037871293197
-0.0270768053753377,0.0785288114555007,-0.0316670338299322,-0.00589002622472363
0.0136502206863975,0.0576789183915376,-0.0159216054468376,-0.00537599048024765
0.0255442309841249,0.00715318503685826,-0.0154282805428915,-0.00358060104952641
0.0239651567276728,-0.0209019080176816,-0.0126818280970649,-0.00275860982911436
0.0186860290392735,-0.0250817069729,-0.0134890136783214,-0.00313319093531524
0.00872027949047456,-0.0365710178698282,-0.0275537175679669,-0.00375589618241157
0.00766600376080086,-0.0697463646423289,-0.0318371013345587,-0.00387396344276608
0.0259080514037086,-0.0970051217283698,-0.00457845726748284,-0.00289223576148938
0.0372659394116323,-0.0758337403508834,0.0247235909420483,-0.00088345866975758
0.0224029940274219,-0.00682426252883844,0.00607551367236156,0.00185205607388693
0.0173753952293508,0.0655386507570503,-0.0651720604909863,0.00475630787395557
0.0436433070918792,0.0901778898349635,-0.147097524929886,0.0061836854224085
0.0640611641679104,0.0607606145800556,-0.188320482072223,0.00449652903325848
0.0642206462882612,0.0245641353561249,-0.173974767876138,0.000424631135732631
0.0646277574593213,0.0187414150101919,-0.13237213814411,-0.00324621837595018
0.0605362184743607,0.0344054765518295,-0.0763763338884043,-0.00488928962412944
0.0135189743635572,0.0532604774009017,-0.00451387294452971,-0.00476539948034994
-0.0920109056552639,0.0754307522512452,0.0463743017394338,-0.00298475998963744
-0.15190070331588,0.0695889123443099,0.0333792730160466,0.000222651901669824
-0.0563411503718602,0.0331100846880031,-0.0108755651633731,0.00333660864154211
0.0939309800639532,0.0501449852966805,-0.0366534236281847,0.00528502581789387
0.14614486750337,0.122044663684227,-0.0254203830205132,0.00639725143769182
0.0992055021825536,0.134910012439027,0.0211683252269137,0.00708941046795465
0.00423033703979495,0.0449802962097322,0.0436096632875097,0.00676870073241178
-0.0667754520315678,-0.0631899702323426,0.0240681302383535,0.00410109254329191
-0.0372294903081552,-0.113825042132351,0.0183317384056466,-0.000634805917250295
0.0264738198587273,-0.0900088844652784,0.0215944694673489,-0.00518312896096945
0.0262045839832868,-0.00289638803669073,0.0136534033924058,-0.0075048887787018
-0.00639891842875884,0.0371326714618728,0.033705592957673,-0.00618241325706676
-0.032930708572113,-0.0551170722915945,0.0482908344140209,-0.00105843818350262
-0.0323995375526615,-0.182952573600668,-0.0154349316217997,0.00459949507299002
0.020906663516612,-0.210973729824531,-0.0891435206302365,0.00636558239836993
0.0550498429565353,-0.0882908327308306,-0.0971623889188416,0.00475670584337065
-0.00702892184475353,0.0905891734388862,-0.0873723720057876,0.00395479015878684
-0.0955438551317292,0.161436703107432,-0.0853227043709275,0.00492830990286929
-0.0971976370510434,0.116170225818582,-0.0603145338641974,0.00628342418177924
-0.0172014828625868,0.0315688923437366,-0.0302873417200515,0.00819212849740609
0.0612828110241317,-0.0631146863814634,-0.0257194355935997,0.00994947787282227
0.113686102077883,-0.110780843084174,-0.0260089466397576,0.00943216613947981
0.160081397911948,-0.0685042632238015,-0.020635692930434,0.00690560982309152
0.178465280472161,0.0307132227881778,-0.00922337420615464,0.00449538799186505
0.146349519586842,0.109134102788578,0.0285350235390596,0.00271717208056454
0.0805912348946926,0.0921412606820001,0.0930103473257506,0.000269716718046997
-0.0116287193863226,0.0221815185689103,0.168551056160911,-0.00340074811272787
-0.11180337213885,-0.000682775904989753,0.225054551479783,-0.00658620493208888
-0.160073962609131,0.0159607897035,0.234270845018848,-0.00665615891177081
-0.132636431287981,0.0175902059735021,0.207470427752364,-0.00327898406588283
-0.0877426317511026,0.0070076138110145,0.169675815367377,0.000983515070097382
-0.0700282431834674,-0.00116801515162931,0.135627948315763,0.00423532791915804
-0.0621915345755198,-0.0178882034261835,0.10335999115454,0.00670651959753955
-0.0632421631464444,-0.0519829624713535,0.0599935023711946,0.00848174631493114
-0.0772914489210366,-0.088556715404011,0.0149335736581852,0.00867964671149809
-0.0764052122404016,-0.110353671579276,-0.0179684173903409,0.00692304424715456
-0.0586523536050817,-0.12121407576531,-0.0486841834246695,0.00429720677390275
-0.0442851494266821,-0.117437760530063,-0.0684602837796553,0.00213810894307001
-0.0265714814125154,-0.0872433425643741,-0.056277741836288,0.000576629194888879
0.0013831219846087,-0.0434938903493949,-0.0155772779378864,-0.000769652454055135
0.033487109953729,0.00435092083761633,0.0376811214418658,-0.00148419183375537
0.0711823404509641,0.0490735258506658,0.0719388482186782,-0.000566752285182378
0.112989977430707,0.0480629111218975,0.0655502528352199,0.00178600055250745
0.112015041409421,0.00462662943366413,0.0426005732706865,0.00357774014867821
0.0440767072780228,-0.0297848493809413,0.0145022094791115,0.00316269590740941
0.00386921879584201,-0.0287881356316079,-0.0172183153433357,0.00104864043985384
0.0366281815468068,0.00296073983266979,-0.0145517987231047,-0.000863505407111424
0.0496599329235367,0.0156485805110413,0.0212040008529099,-0.00114794220277697
-0.0174529223113802,-0.0159608149869544,0.029394432342882,-0.000431104375984978
-0.10112805158061,-0.0542443012625547,-0.0129146141574301,-0.000441029633885169
-0.117861892048897,-0.0631030249691937,-0.063678475860716,-0.00115951235438185
-0.0830245936400332,-0.0197317858971899,-0.0804959082109263,-0.00146100825483151
-0.040329268257074,0.0417740912668202,-0.0550480000146013,-0.00123048126432633
-0.0295148402164683,0.0641676400215774,-0.00590351458205743,-0.00080862168556204
-0.0827982258030065,0.0732249545027055,0.0356321865668388,-0.000337500919185263
-0.116904526473667,0.0973413776784221,0.0501034698977181,-0.000350685744877786
-0.0411755787148216,0.0914301861593343,0.0474693185623807,-0.00156121684187716
0.0716554013433662,0.0155985051081999,0.0622572175328983,-0.00367142447436815
0.101695274665901,-0.066796177604328,0.0979368916205344,-0.00540472693928384
0.0628189260807754,-0.0871862047613349,0.112849695966427,-0.00585442287458453
0.0476406576288276,-0.0696047034292723,0.0859078192397639,-0.00518485643895649
0.0759444438690983,-0.0376172528379331,0.0158856895192146,-0.00424807817535015
0.108437795241313,0.00329049477167937,-0.0677112452919603,-0.0040070420179172
0.118399763225513,0.0295860814384817,-0.11110354982573,-0.00448378421220668
0.105849775409172,0.0167757511629053,-0.107821295639461,-0.00507655520707128
0.0871614894055986,-0.0308882597775683,-0.0912699074399051,-0.0058260875169511
0.0535046415658239,-0.0718482156747235,-0.0889367994530466,-0.00695517161021731
-0.0213208768146143,-0.0675503750726563,-0.0891604445597947,-0.00823003502880121
-0.117794193003241,-0.0532314213801621,-0.0759403348648034,-0.00876984993029342
-0.163984358358706,-0.0702520175820023,-0.0673268595457519,-0.0077508944044199
-0.13197429313162,-0.0675036579141498,-0.0578353168064692,-0.0059991160213725
-0.0798635727942837,-0.0265003478990638,-0.0336457998387815,-0.00503656143220513
-0.0191271396985434,0.00385140424992855,-0.0117354339429983,-0.0046375853771781
0.0861484213852778,0.0145655205032328,0.00286515556766614,-0.00298841784673694
0.16955922195691,-6.9061220521402e-05,0.0100424058167138,0.000763307300794738
0.133579217458768,-0.0379971869875986,0.0110172865243261,0.00500699725229801
0.0327061579405748,-0.0296976451932381,0.016191140960841,0.00770381578988442
-0.0102053177901339,0.0240138555285498,0.0231763171393397,0.00846785404416669
0.00107815524021938,0.0350818737085753,0.0385966737309126,0.00760144290849787
-0.0323194007839497,0.0390448854319126,0.0546998354570031,0.00513774814893042
-0.103623046629348,0.118230583656452,0.0397738199667137,0.00115962130606422
-0.0879760651450433,0.179172012561303,0.00441757488701913,-0.0028425534780939
-0.0150055211854291,0.114124849597234,-0.0193714413373997,-0.00409472734415344
-0.00622114732437677,-0.00194026602007086,-0.0423583226680643,-0.00300721536438862
-0.0259082856415156,-0.0943318568405748,-0.0705116593133127,-0.00315426489746717
-0.01114479485232,-0.158925719217735,-0.0595725786596132,-0.0054210538627648
0.0190310252988281,-0.157410734552949,0.00204661963228261,-0.00778523968676412
0.0212683154379654,-0.0606923661087935,0.0817957303934925,-0.00901151976674126
-0.0197319348101078,0.0695359706478818,0.147181699447327,-0.00929356731539784
-0.064998501852777,0.127448097391519,0.177797205079268,-0.0088084861683078
-0.0595838675956027,0.102128239511838,0.184395233686612,-0.00684485800912483
0.0162922150383617,0.038042230048851,0.167067749241753,-0.00289003486109087
0.115939973060334,-0.0474670838669752,0.112697615234485,0.00227530817903782
0.162777127475688,-0.0964038373213421,0.0260982511164798,0.00679673688657764
0.136256137168193,-0.0487770949825657,-0.0597404443915011,0.00894435811589527
0.0765355904039106,0.0433332070444174,-0.0993391598174357,0.00881532318371355
0.0140965632709002,0.083896154049163,-0.112350620177306,0.00850774616083807
-0.0547841202840912,0.0591658780664585,-0.123191792180379,0.00968206496606955
-0.108111994294167,0.022390609757002,-0.0951979469843853,0.0110048596405803
-0.0850508453251966,0.00510190976749589,-0.0405669962543757,0.00974405556732658
0.0097350404498028,0.00299276124878618,-0.0152800171116092,0.00433797918728563
0.0823928315548583,0.0186758220067352,-0.00417059866252466,-0.00476240682606012
0.0737746892179163,0.0394386700160516,0.0376628676646443,-0.0141185098546785
0.0325264234552037,0.0390276442238543,0.0945291640641754,-0.0194671078297032
0.0236250271880684,0.0331626804746274,0.130301750451683,-0.0199427560687525
0.0248293876287195,0.0345841891020573,0.129884732648307,-0.0175514500795463
-0.00283326628270109,0.024210143313077,0.0971156417216373,-0.0130270642874098
-0.0269189131326845,0.0117029930844107,0.0568127802288275,-0.00528130269522455
-0.0161876071972868,0.0164644802354162,0.0279008472966887,0.00521954290250725
0.014516542912076,0.0293043354607264,0.00980010165220858,0.0147912608364921
0.0327226941361716,0.0396506396793417,-0.00501598606924608,0.0189980545027477
-0.0111690967863659,0.049415222878678,-0.0261099012678439,0.0169633838101843
-0.064825997114667,0.0757776474850484,-0.0513926435816379,0.0115035699104671
-0.0112151199538884,0.100577384341726,-0.0592791204817245,0.00548069830590317
0.0774941104296988,0.0676548782709447,-0.0415914508658169,0.000256091280057075
0.0538542584774689,-0.00102323947324613,-0.0110969072881416,-0.00412712067599704
-0.0357619048382207,-0.0469552568574241,0.0245125679934371,-0.00666250411882091
-0.0580322226959011,-0.0634429643322109,0.0431213251295304,-0.00429827571957389
-0.0287634790941995,-0.0523837767232205,0.0261888032969218,0.00245592180342999
-0.0338263785955022,-0.0249840464626919,0.00200906840658222,0.00713095954873159
-0.0646114185866777,0.00443564207738127,0.00887465820021695,0.00469791945073979
-0.0741200821247259,0.0386823372795859,0.0502426106687521,-0.00257817216029059
-0.0414254785693397,0.0550847423052363,0.085348450585413,-0.00893570559591264
0.0127762883834145,0.0166800798426065,0.0730510267724757,-0.012417356187058
0.0309862074865689,-0.0583713606421224,0.032989983771143,-0.0148710396122558
0.00384862534467062,-0.111753237618716,0.0277765900577408,-0.0166380250254307
0.000803417898043196,-0.113071043931924,0.0670599716073115,-0.0157854000268311
0.0454203616037637,-0.0841955866945965,0.070066061055079,-0.0114108797109329
0.0488544605508111,-0.0696377578609269,0.00247846079364097,-0.00560473475030166
-0.0186841298372185,-0.089404368498716,-0.0737288622800139,-0.00153678964435081
-0.0642608411043065,-0.117825602239241,-0.11470601456915,0.000214677651710116
-0.0567455700325944,-0.114439951846653,-0.124276177635611,0.00074729169658253
-0.0490214742163866,-0.0693645412330228,-0.112250342084652,-1.41956489248477e-05
-0.0626953107569798,0.0216238699430478,-0.0753754117801785,-0.00189850525673943
-0.0774739846991935,0.158542471873007,-0.0216593701611571,-0.00269964024226297
-0.0770662739616907,0.264238927665969,0.00842332926539373,4.10979697043762e-05
-0.0512530992354905,0.213651745026356,-0.00780690597884245,0.00523576644173133
-0.00236071633306795,0.0432793721962553,-0.0327404976429829,0.00892823773813783
0.00546117173802663,-0.0711100183617188,-0.0331604942184568,0.00952232926098631
-0.0690277633866549,-0.105915579553037,-0.0394603969110162,0.00877087768239924
-0.121940603989036,-0.151187065878481,-0.0820277234324408,0.00867670003554694
-0.0560412353795139,-0.204793062562482,-0.118645069401368,0.0101397126156166
0.0455919806559414,-0.196342347817093,-0.0903588800319291,0.0131617901549206
0.0784511193791651,-0.102514305359341,-0.0174877502431792,0.0164834323562646
0.056124353933765,-0.00478297041605094,0.0281963816015322,0.0178742202781954
0.0429340273003705,0.0321254056944356,0.0251437721707401,0.0154489520997171
0.066133086318623,0.0707778083166488,0.000669131255366702,0.00800212414752102
0.0918660933017394,0.152189235729205,-0.00576220521727762,-0.00359309993540095
0.0818998360626765,0.219796294798971,0.0405310850319764,-0.0144368247921037
0.0278536101606974,0.235053821338332,0.111829759905678,-0.0192523762814848
-0.00465126791910217,0.175332589661772,0.132890796494895,-0.0179324328669023
0.0539856097871157,0.0343555898397356,0.0917569084957447,-0.0139964465021408
0.109675493623201,-0.0780977263234395,0.0384590954632563,-0.00884584791648464
0.0731587498501413,-0.0670773046219967,-0.00736290983160803,-0.00245813445253117
0.0205494460486752,-0.0256701691234099,-0.0360204279707015,0.00222933190376236
-0.0341152008136197,-0.0324154329042498,-0.0363590694237027,0.00168130329774868
-0.129210691497313,-0.0283134393472839,-0.017235054652931,-0.0025041496515398
-0.174787207380958,0.00395672306466519,0.00305596482717223,-0.00403890279690075
-0.108169370637833,0.0198546053723042,-0.0075963544209214,0.000806009161074914
-0.0144164452194865,0.0055441319142218,-0.0538535021322506,0.00863368899961873
0.00739045803619548,-0.0266260234953348,-0.0852576560549791,0.0136853832481031
-0.0111613878150105,-0.0599167967183621,-0.0551860887692839,0.0150066700849762
0.00424502763579115,-0.0687649210680765,0.0178251489553814,0.0156140956821118
0.0290895807384588,-0.022367246501495,0.0783978481369754,0.0166496175591642
0.0325805676865321,0.086228466003598,0.112298914645148,0.0168690091021875
0.0288558502434208,0.206139851293372,0.105305035003246,0.0161362396542353
0.0285792235236011,0.252880517899513,0.0381309580582462,0.0148033373039139
0.037267921400832,0.196243762074109,-0.0230970946453958,0.0118633192323229
0.0455302981477319,0.0878960720073665,-0.0243345129110299,0.00778663627904945
0.0406161633031512,-0.00841578362632694,-0.00456934088650716,0.00481911713297673
0.0358502109329393,-0.066436223806456,-0.00823695565017773,0.00303624709921689
0.0323442780235725,-0.090207641940108,-0.0252835329018753,0.00101762455933918
0.00668952433701207,-0.104710237387943,-0.0263189981114517,-0.00147310624618083
-0.0352326723449504,-0.124410795400096,-0.00606179326229483,-0.00398304490620685
-0.0570085235019793,-0.130566721540402,0.021785675650153,-0.00573789457741492
-0.0379837812473467,-0.114605619698498,0.040791756718341,-0.00548015194565151
-0.00974181293362392,-0.102562869406779,0.0636703645355086,-0.00306125958107606
-0.0147142553075333,-0.0955606311310792,0.0904582958901167,-2.6794089676159e-05
-0.0507082997961578,-0.0482592561794702,0.095551012248354,0.00240773365671556
-0.0850082390327759,0.0343006213798367,0.0792899860652839,0.00434258666080225
-0.0848874255583634,0.0771025950218579,0.0485824283915505,0.00602321589801257
-0.0499650189330811,0.0454480113149198,0.00375854743198378,0.00698153966851646
-0.00735573062127437,-0.0301311667103802,-0.0362707013059477,0.00607062431801969
0.018385920078183,-0.0932714249754857,-0.0393561691859136,0.00270203469681046
0.00452216648532917,-0.0794816201337547,-0.0090882031281329,-0.00176159000106022
-0.0519968583529615,0.0224761988143812,0.0228056019493389,-0.0048583588668471
-0.122335623364738,0.116573459653181,0.0418099470866911,-0.00535604974532518
-0.136201299792228,0.103020956425677,0.0392759130369584,-0.00385973779642493
-0.0499196990559347,0.00712788708762446,0.0193894795686005,-0.00139481987740933
0.0559683161502902,-0.0806406276990569,0.019353323159098,0.00146655008643876
0.099940540934639,-0.0885153155352163,0.0341956629852516,0.00418274437495261
0.0973042200557621,-0.00189276197344837,0.000901156626980773,0.00544812898635485
0.079470202218316,0.10506260181763,-0.0747164629925964,0.0038724232977031
0.0479015174618004,0.134649388643326,-0.112848645322396,1.2791227387842e-05
-0.035784763783391,0.0696700805824064,-0.0865572421625373,-0.00355969980260643
-0.158074588786859,-0.0284614559435127,-0.0468566545542545,-0.00475322392628278
-0.188011421082925,-0.098558396678507,-0.0619515892531907,-0.00317732106100464
-0.073721482261776,-0.126345143678344,-0.124664419237997,2.03730390964402e-05
0.0593610497941141,-0.127507443824057,-0.161438214262494,0.00239443158181381
0.113238260111035,-0.113882015018065,-0.162400578940206,0.00175668978150554
0.133858815811672,-0.102500985121224,-0.163007409364546,-0.00214007835201607
0.153796007543404,-0.104646079631609,-0.159623910768714,-0.00733993389472796
0.10780420659443,-0.113655371142093,-0.131939917222997,-0.0114219654674618
0.00380439454684425,-0.101174837852057,-0.0919993692240907,-0.0134905466793141
-0.0447773445615548,-0.0307199825779623,-0.0499663361295984,-0.0138534770208975
-0.0316432965173149,0.0466614616336045,0.00873826896893889,-0.0126703996733234
-0.0449090124807188,0.0503911091185249,0.0724517922146629,-0.0096542775262897
-0.0941259595351129,0.0574756818717728,0.114830684301096,-0.0048274827328935
-0.108840097832292,0.146060274319175,0.109369507977827,0.000907917544939707
0.00906023907515346,0.209443869510147,0.0513453955444611,0.00546673048737499
0.221242384781139,0.163531974896592,0.00183806120057081,0.00728241360006387
0.347268845216287,0.0712582685205245,0.00482520153787551,0.00677368506910266
0.319761155580845,0.0138161493374999,0.0344253744722526,0.00361882141964965
0.177780979401143,-0.00487218814512628,0.06527200355072,-0.00307056683021386
-0.0398434907315513,-0.0224419160433892,0.0695245815673394,-0.010977035794849
-0.249914998233575,-0.0382917435730203,0.0501143321067159,-0.0163602501000269
-0.316300328785873,-0.0305079389973074,0.0668475038841588,-0.0168192864744088
-0.198025048050343,-0.0170425119404415,0.134036174387862,-0.010527347532254
-0.0278253665527639,0.0117851049542067,0.175054424183686,0.00119425428962131
0.0698847978059007,0.0669261405972068,0.113631484364192,0.011539177263007
0.0727438241662418,0.0696546166865545,-0.00355573993325392,0.013705302758522
-0.0193950588356604,-0.0104925659769196,-0.085455961920833,0.00762477774139379
-0.136877924832073,-0.10302720470891,-0.124411978919534,-0.00154113844398464
-0.147418837479132,-0.153021462124548,-0.142020880237189,-0.00873022308940788
-0.0497165115290502,-0.161575217643556,-0.138363911097682,-0.0115427544937511
0.0420114377307315,-0.14776311502377,-0.112272349908763,-0.010845705515166
0.0719032846462751,-0.115191504535111,-0.0591138412982357,-0.00928906296854644
0.0621002548007671,-0.0644412878460171,0.0267950713536153,-0.00811151443105772
0.0415902413151395,0.00222112031500468,0.118617966122413,-0.00604941307777213
0.015053607915568,0.0770946895359514,0.169244074358163,-0.00212924224417662
-0.0226687076828426,0.144483625027165,0.176633890602088,0.00243526208123948
-0.0653586900094328,0.183750337198333,0.165312223337327,0.00616687873084416
-0.0880028434005573,0.14974422443559,0.140878748150237,0.00844510148287468
-0.0786349479143108,0.0478941225905448,0.109103089088769,0.00901512968814056
-0.0573452501275565,-0.0333245879670737,0.0772079081488559,0.00831296769534801
-0.0424327565812643,-0.0542687574880949,0.0558389345376621,0.00683083110622936
-0.0351877592647251,-0.0485805922440456,0.0643200195675679,0.0045431047022805
-0.0343856139737699,-0.041429008364652,0.0972925711870624,0.00173170397407818
-0.0356914106805558,-0.0360950678763741,0.118368429678392,-0.000726538283547603
-0.0307752765222423,-0.0320842471426778,0.112897309698188,-0.00199863229560447
-0.0218630164353608,-0.0323626475322197,0.103894920504425,-0.0019210746316039
-0.019739647085192,-0.0367672519027442,0.103396160557696,-0.00144985425250856
-0.0281369520476304,-0.0337718881780912,0.0984079542618923,-0.00154220823411626
-0.0406922376716129,-0.0181670625912575,0.0863342655437967,-0.00166288605692305
-0.049514998072611,-0.00257173976891218,0.0718634117978168,-0.0010923085143194
-0.0516038159169328,0.00121877799413274,0.0468405880186,0.000130775093380058
-0.0483388352427967,-0.0107223941960425,0.011296797461592,0.00151828036157305
-0.0490151112624847,-0.0289519358954285,-0.0158455388433536,0.00212013877538332
-0.0633931401804314,-0.031684576933372,-0.0273743637868157,0.0015548356970251
-0.0771938559883526,-0.0172262411225605,-0.0342425579172299,0.000421359015557954
-0.0660107292102309,-0.00337906160527136,-0.0374853343755137,-0.000603866788639803
-0.0377552625720668,0.00417114669036969,-0.0366695015087905,-0.00119776828207521
-0.0162101487160325,0.0101054760908453,-0.0391699971787501,-0.00128841504333546
-0.00575661062880135,0.0150167467420826,-0.0422777676580974,-0.00110517462877791
-0.00236201249730448,0.0166895665714374,-0.0384803628898613,-0.00105268555211902
-0.0124735433852,0.0279900691928552,-0.0343548988848338,-0.00117255943832652
-0.0350560694683029,0.0536771925713557,-0.0429301611127604,-0.00137984262183298
-0.0410965364232178,0.0416273992843257,-0.0539252143353286,-0.00173544700743098
-0.00893929206721175,-0.0221033121409402,-0.0455058666298934,-0.00214613089599275
0.0386176532795861,-0.0621139054472088,-0.0259808138879926,-0.0024292901137369
0.0731122584720911,-0.0561785856460384,-0.0234921468226,-0.00262133715695186
0.0958153552218637,-0.0645564179472879,-0.0467566394075005,-0.00342642047132854
0.110631316899289,-0.102271019287589,-0.0638695506533333,-0.00564524899540069
0.106899735387991,-0.104766236161693,0.00203158950968303,-0.00843726707495269
0.0818826914085464,-0.0199645564110437,0.142565075530604,-0.00844515216935131
0.0402145734031422,0.136649989035591,0.187526011372187,-0.00321536142839802
0.00284346812721614,0.250148843883417,0.0631067798750032,0.00416797172603549
0.0196122774372443,0.171153116154281,-0.103366167333447,0.00857859627421603
0.0996565328991977,-0.0332733023728191,-0.187454467676521,0.00918474835868143
0.175860171667891,-0.135820195477076,-0.171747461114264,0.00829599063300401
0.155689566497665,-0.0999169858035296,-0.135427074434779,0.00685231534729894
-0.0113240772750088,-0.0805097440264028,-0.128741467324261,0.0037321322129868
-0.262084250779841,-0.131924157742153,-0.0831028312349203,-0.00134356117775094
-0.342449346346169,-0.145890387759571,0.0276193563110328,-0.00550464008120027
-0.134092558419891,-0.0708422804788202,0.0913074725445634,-0.00443852874457771
0.0553244884304626,0.0224167355842843,0.0596535062422065,0.0019481121644809
0.0510324870165154,0.0523832565608684,0.0224775401028845,0.00798192960144254
0.0403568782707092,0.0424320145153431,0.02765741955521,0.00912673588707953
0.0881670053480116,0.0544490544115211,0.0616997612381374,0.00645343148860845
0.117831138292011,0.0362134191594496,0.102126210577937,0.0032910049987353
0.130952617771493,-0.0336342252881315,0.102093569590373,0.000924262886818903
0.111644214697476,-0.0841135749250287,0.0538148445286202,-0.00197364372055106
0.0484977829133133,-0.0932457287281186,-0.00506657428514509,-0.00602381046727807
0.00656496534645472,-0.0723967758490292,-0.0480349849801724,-0.00921818431927605
-0.0167790207082174,-0.0285585070390218,-0.0594446025794945,-0.00949134681327474
-0.0672567739120462,0.0122776515689755,-0.0409702120100246,-0.00688250885681327
-0.0960808745720616,0.031799346810286,-0.0193829949174984,-0.00297669813707078
-0.0516182881217866,0.0344222383871125,-0.0148779119975131,0.000797993520075627
0.0148096762753646,0.0266730333043792,-0.0200111713822846,0.00418419118984866
0.0400913255711901,0.0170904660685588,-0.0226047257537801,0.00733048731127127
0.0287758463326637,0.0121632277435009,-0.0207707506671322,0.00989139003837374
0.0111959524213343,0.01240686904615,-0.01487699020652,0.0110428465268731
-0.00109453826316341,0.018164620873256,-0.00504755005309229,0.0101945930478264
-0.00974280817171569,0.0171770882219056,0.00633738153854635,0.00777848237786473
-0.0152853821148326,0.000204507151802515,0.015739028856056,0.00496375010699263
-0.0183317315733225,-0.013895536930155,0.0204029734243969,0.00289363439801597
-0.0208867317931757,-0.0145306563771456,0.0193404817858869,0.00221254910958846
-0.0234798167315149,-0.0115159457928577,0.0137940101467581,0.00268393843652732
-0.0222246815454702,-0.00664230072267924,0.0105132282589186,0.00358481798556894
-0.0173805667246804,0.00192799333124612,0.0138081931484964,0.00428024448318811
-0.0125496845096185,0.00830370221208992,0.0191737706670093,0.00408725646449191
-0.00678416421858087,0.00945847965373658,0.0232646706528552,0.00252681919725321
-0.00281276723079725,0.0094760093576703,0.0240601762650178,0.000128769445794937
-0.000309674558653005,0.0099612678869133,0.0186130403139602,-0.00153547473236514
0.00307657254680506,0.00971462168417503,0.00944596816901368,-0.00181323205129087
-0.00204716102742276,0.00778499987333813,0.000695492716773066,-0.00200127319258188
-0.0141278881862124,0.0054403123086052,-0.0201354687139687,-0.00315570824482313
-0.0183046237583642,0.00445243223578772,-0.0590088686059089,-0.00502458530776842
-0.0150682340422031,-0.0080060860889275,-0.0915707748614645,-0.00691337233396316
-0.0116294941864968,-0.0423636554733174,-0.109682626085104,-0.00819624960758345
-0.00739071294691561,-0.0698921631309899,-0.115233294191504,-0.00885032642322726
0.010127964288996,-0.042237585310948,-0.0989480601757627,-0.00895160036194232
0.0575057408984736,0.050982115707957,-0.0841853772800834,-0.00766055316370674
0.0876972948675555,0.132691179749681,-0.087016874649588,-0.00466964144632643
0.053780508146515,0.130578151503614,-0.0905983536748476,-0.00167537016430573
0.0213707306266732,0.0905033958654828,-0.0789384636724927,-0.000342230680459611
0.0225960407314891,0.0821399483518424,-0.0344950094926409,1.2770884671302e-05
0.00708519746165757,0.0896567525651194,0.0134906561062415,0.000999221462684116
-0.0196878450127534,0.0636600577280734,-0.000371455061256395,0.00271194231107166
-0.0114504452555849,0.00109575146386412,-0.0586424380832736,0.00382930426335284
0.0491331188467009,-0.0955900549841749,-0.0963509019135353,0.00306071543933516
0.14449767714794,-0.204273473803204,-0.127783014585065,0.00023238276381635
0.228415478174571,-0.261834810240932,-0.167829670977789,-0.00427479140783356
0.217170801955485,-0.253390817610754,-0.128765748233398,-0.00981225911776893
0.068704510938468,-0.188040945685933,0.0248554318612735,-0.0138121930130365
-0.094498020958026,-0.0347945714144236,0.176728316092272,-0.0123241516050075
-0.136575712624436,0.160457013313057,0.225468671567236,-0.0041418662960571
-0.0875075496478695,0.231522354279049,0.163356289132208,0.00699571248430135
-0.0416394364454454,0.123174447267157,0.0333629306529694,0.0147336810471317
-0.0524693931971209,-0.0295059548096643,-0.0896901108743127,0.0143696920950343
-0.0764864607859297,-0.0868780380049235,-0.149745870312559,0.00674974175071009
-0.0262187131715488,-0.0277793900245648,-0.142097478790233,-0.00242568171010959
0.0615981123496597,0.0765352612064598,-0.102698759265036,-0.00824813247960799
0.0991900434425338,0.139220344048404,-0.0805834307427606,-0.0100535316753785
0.0882461096139098,0.128056620552994,-0.0841425774219505,-0.0094805690115434
0.0588603580382306,0.0757470031994857,-0.0828304647408242,-0.00774255916571076
0.0271187074421087,0.0176329724672843,-0.0645423509999187,-0.0055697671960992
0.00948566900408686,-0.02965855068754,-0.0341786453608532,-0.00335439696175636
-0.00143994650844256,-0.0610838372856034,0.0120450242076468,-0.000648773297786549
-0.0115183463366067,-0.0754177707396418,0.0587704439041953,0.00289000696969076
0.00155807787443434,-0.0679064886700293,0.0639239102387062,0.00619453170215665
0.032553142868736,-0.0479432175210398,0.030175553041067,0.0076538232281719
0.0582765329285434,-0.0327131339722943,0.00685232797638464,0.00707131361132322
0.0779105556196832,-0.0264999151321731,0.00754107456878852,0.00564669370603505
0.0846926641116343,-0.0158542286416828,0.0193511815900706,0.00435185859591432
0.0685930843402664,0.014954740073345,0.0541672696691988,0.00318794136359989
0.0182481852839655,0.0656462180894615,0.122308131812231,0.00232021514972017
-0.069351572615761,0.0956706137491727,0.179900405538159,0.00251230016155857
-0.130102494887633,0.0691916358969216,0.170058487224436,0.0035490546222115
-0.108624910218329,0.0286888917797204,0.117031066871271,0.00407627555672933
-0.0475015822082425,0.0179917714225975,0.0775171014060993,0.00360401812866569
-0.0177226916263215,0.0345835452664653,0.0569340196287357,0.00291172205217885
-0.0473052322216415,0.0654762493131331,0.0383004366087888,0.00237711631168397
-0.0994681507529399,0.072904836056254,0.00923947441353695,0.00161887381400683
-0.10114704163923,0.0226128209793627,-0.0270077800176469,0.000528207152456451
-0.0280428267040256,-0.0456071528707558,-0.0456252044386443,-0.000130084419103716
0.0441516921159649,-0.0618311148712639,-0.0371485740140189,0.000899611545660766
0.0487665242948117,-0.0361162761593924,-0.0216930792183405,0.00320465782960933
0.0262421158132283,-0.0117434912682675,-0.013985612534171,0.00404140765547292
0.0236386837394228,0.0157691962199982,-0.00187903333713308,0.00219802636849407
0.0266365852886986,0.0434576771510732,0.0251262999759959,-0.000130504683535276
0.0304186350565084,0.0653076232381467,0.0560180480424534,-0.000968663761207031
0.0323660038964813,0.0950771563695516,0.0865795834828882,-0.00127207800935387
-0.0292142432894087,0.126238940737912,0.118638681543132,-0.00260479787446736
-0.127259991367598,0.14782847057146,0.139341121315819,-0.00402334366067759
-0.112778856471255,0.132476002587847,0.128931366443296,-0.00321738750393031
-0.00350578696998169,0.0594169954052659,0.0815657687101281,-0.000205435888998777
0.018569477878948,-0.0248385263441047,0.0253679337228943,0.00211347392071676
-0.0665651290228526,-0.0868096792703403,-0.0226923151183517,0.00141665901438421
-0.11212468558995,-0.119868704226966,-0.106025941797093,-0.00167847382684849
-0.0892258034315933,-0.123844339002666,-0.244377557953024,-0.00486387518740614
-0.0349413732251621,-0.123108311527223,-0.353875945112001,-0.00755724174716049
0.0575285266332374,-0.0930746408280947,-0.354673356258356,-0.0105731464958909
0.122163622311992,-0.0257631081437256,-0.331760308729101,-0.0119117452146884
0.146540035820171,-0.02019075296027,-0.40911115444654,-0.00903590316667371
0.196191418324122,-0.159411073833408,-0.496075851766366,-0.00513209813864551
0.259258613576289,-0.314165021606466,-0.360214460304114,-0.00480787555990703
0.241352674686082,-0.261354868021229,0.0623567292514287,-0.00467244942817187
0.0351501738315839,-0.0507411328833228,0.493944147796474,0.00246551974620028
-0.258205170120846,0.0902444915895009,0.61424038053255,0.0157974221996946
-0.335500939422717,0.123421874619218,0.426289677514153,0.0268678538853884
-0.165284859629832,0.0941632691088938,0.135762489123599,0.0290899618263619
-0.032606467148233,-0.00956445182823252,-0.0696645572061468,0.0217080388943918
-0.006343162632126,-0.113006793106623,-0.135961978609349,0.00862795975262612
0.0227818728034609,-0.147602294841384,-0.151347643867064,-0.00426982476918727
0.0232436114535865,-0.147932196610201,-0.178363655733869,-0.0137181759390007
-0.0205629362449926,-0.136158375099844,-0.198202223050269,-0.0197945640728419
-0.0166413135112489,-0.0976962392545309,-0.18529195577289,-0.0225036305783777
0.0351311536161207,-0.00892466596651202,-0.150128223592245,-0.0212504649568594
0.0301622867904909,0.105820614343406,-0.122735660858602,-0.0172195638316508
-0.0308804396189473,0.144234020908601,-0.0902082023346116,-0.0130730166066673
-0.0977431373191209,0.107145209823543,-0.0254258688281176,-0.00926501480149661
-0.159629978921261,0.133605793354687,0.0404457073682957,-0.00341494712747728
-0.144008219832825,0.207222217215898,0.0428642309617932,0.00503028048731412
-0.0339908177624156,0.159941832072265,-0.0294511345117069,0.0123933929584334
0.0751090384692103,0.0304001941824874,-0.0928555459124625,0.0147370681177664
0.134457091932144,-0.00588767038663002,-0.0908650302389997,0.0123093725815105
0.140633243622964,-0.0291798842939494,-0.0768127832948592,0.00828010471521029
0.116171243195094,-0.189174700524274,-0.0748486000791675,0.00469715868519775
0.109694144306546,-0.363186012845423,-0.0041113392544991,0.00242834925668391
0.103449939999171,-0.382641839014697,0.124250701989827,0.00278139299791057
0.0466689406746543,-0.262552516648046,0.178705219665743,0.00550612590471295
-0.0318896345699247,-0.125725075406392,0.147432027305039,0.00783067644509395
-0.0801592245746735,-0.0450178438979764,0.0981772970989777,0.00784130863020457
-0.0941464290922981,-0.00107789499249458,0.0483793148517712,0.00619336526802907
-0.0572590449747546,0.0247567091070048,0.00163684778268307,0.00410803127481738
0.0223884273698406,0.0448498339283159,-0.0350647662364791,0.00205190628330394
0.086605983345536,0.0586313616751939,-0.0754516385607536,0.000455270942732964
0.125262791366328,0.0318073849090106,-0.129947874708981,-0.00130361703004616
0.159187500442246,-0.0290573769489349,-0.151989795078426,-0.00531805175231632
0.149164600169862,-0.0268312949718919,-0.0749372417603876,-0.0109628154238313
0.0173891342760244,0.130936977438538,0.0952708710787527,-0.0133610294295683
-0.157656366583238,0.306897234627899,0.243159067607676,-0.00862390865115398
-0.208963515720907,0.294858428135495,0.255820616261306,0.000647735171861227
-0.196593674554058,0.190587684929309,0.174676043913749,0.00748053044148331
-0.192188409650257,0.162082441782935,0.110693165911515,0.00847639627222084
-0.0994677483342358,0.160067047594061,0.0797176956110149,0.00624582013786447
0.0324121430226805,0.106995556523938,0.0557279206957267,0.0041295198273251
0.0615757401918005,0.0502257238723876,0.0591251734731014,0.00234582069652299
0.0151679783477074,0.0265619686608955,0.0869860234767765,-2.839358929558e-05
0.0132565327551882,-0.00196399812674763,0.0828703527920042,-0.00250963987363228
0.0658249491438365,-0.022298661590978,0.0361812592306941,-0.00418545950300697
0.0735288577614021,-0.00387754715286248,-0.00296163917015729,-0.00501101283957766
0.0166398356458669,0.011897083539587,-0.018202087540843,-0.00488060706953362
-0.00800170640362453,-0.00768508760152381,-0.0368380167002503,-0.00293272022779385
0.0384941045462099,-0.0489858672689547,-0.0611942874410851,0.000636515805999534
0.0803821844889231,-0.0858781846792901,-0.053929410202486,0.00315776637119115
0.0685349176212917,-0.0762211820693068,-0.00251970182283853,0.00273565087732224
0.0322597171139387,-0.0162027253363513,0.0238036407997228,0.00110029218549974
0.0109933757283398,0.0355464976831813,-0.0042129859526132,0.000218609907976853
0.00424446283845644,0.0530886128181533,-0.0158815090975605,-0.000230824047498781
-0.016695357943371,0.0681778683679592,0.00862057530139444,-0.000691339036705797
-0.0503466389183583,0.0969461171275409,0.0320835359014133,-0.000707282171680384
-0.0644495375668126,0.112476754443989,0.0378941254000299,-0.000280823984794477
-0.056062018353251,0.0944441267724603,0.0191772434855212,-0.000458686136103284
-0.0510963524040573,0.0670193594906208,-0.0293627593106314,-0.00172086078491156
-0.0474974139160371,0.0625753370257097,-0.0581885486311637,-0.00281351488130084
-0.0234307908390192,0.084303887396546,-0.0286155615583302,-0.00177743318581674
0.0133034535962937,0.104055253860569,-0.0238353882294532,0.00117605844973954
0.0463211435441682,0.100180044947777,-0.100359849766048,0.00251578565478988
0.0720928499831589,0.0751606042826469,-0.199826836185872,-5.45420184408741e-05
0.0812082765919157,0.0240957700714814,-0.247252392259829,-0.00516384265526947
0.0599159433388651,-0.0133344534918306,-0.217043533664704,-0.0101423326211121
0.0065094807967864,0.0539705888709053,-0.127996062108618,-0.0111262092542915
-0.0203637986380425,0.213565757891307,-0.0568463294836501,-0.00435224055094553
0.00498925926605677,0.246485425643252,-0.113274061352181,0.00769807285324577
-0.0443793924467814,0.0289724672089583,-0.243098599321939,0.0163940464455774
-0.138590652103098,-0.240494546710058,-0.314176332135981,0.0163510608178758
-0.0526138837231053,-0.43856056120551,-0.329529822912755,0.00858509346990145
0.155571414378595,-0.593213751714752,-0.253531511240479,-0.0022485740161442
0.227299264837797,-0.578613521754715,-0.0425048949731889,-0.00903899957762611
0.153778850465138,-0.33490533058954,0.1683063081188,-0.0078502835320346
0.0681402216693354,-0.0382703870747501,0.281108323850331,-0.00205393299670492
-0.0252376677612084,0.179762256102782,0.346793859636249,0.00307473732615258
-0.0722732321070908,0.30007690892444,0.418963700700197,0.00641237583941005
-0.018186100153711,0.359771628024851,0.443474057207845,0.0101656490099247
-0.0258663246022658,0.393318441759817,0.327012385852765,0.014891954086113
-0.178608422687591,0.350173453733606,0.147362256123691,0.017744818342148
-0.282147515787775,0.248662836535504,0.00323209269800451,0.0164212815604825
-0.231986217916535,0.141600116672452,-0.128782181996979,0.0118758151378267
-0.167667463545103,0.000360534171296223,-0.210096754866437,0.00661521088638147
-0.137137344560566,-0.170420646096778,-0.210333103308009,0.00197878403545446
-0.0401469658542981,-0.304690431729905,-0.186921432214313,-0.00287147490406949
0.110625954397581,-0.35972022244105,-0.168946965145717,-0.00853108718173719
0.204790932474516,-0.335564834853834,-0.164950076284416,-0.0133835606280368
0.207946537156379,-0.238022870620912,-0.153486499854842,-0.0158782362039827
0.151984346772737,-0.0975648231118522,-0.0786734410022681,-0.0160918309252812
0.0617658786740247,0.0220761445056818,0.038567237550239,-0.0135659688336448
-0.0126098004956904,0.0823646868515217,0.0938197788921569,-0.00711525521427814
0.00227615639200838,0.096262636210293,0.0471525768626539,0.00137924410592049
0.0779550032030944,0.0915825460185421,-0.019867049263076,0.00711740976623196
0.118895549393581,0.0915651780071814,-0.0301634742575642,0.00817978016537339
0.0957369402565454,0.0806417197167358,0.0118812381635864,0.00658941354730929
0.0549971216513886,0.0214159779157074,0.056382109307442,0.00452268707607086
0.0272068139404487,-0.0920606368307098,0.0605581273344684,0.00269490140191493
-0.00340992468147452,-0.226333594212647,0.0577776206000667,0.000311946261472822
-0.049524078936422,-0.302530458555569,0.160241976937208,-0.0029351016647555
-0.159853342083972,-0.266112223466946,0.37767719794672,-0.00444359682397314
-0.291283206902138,-0.140751550390943,0.503235693312651,-0.00104150475914945
-0.246430063825814,-0.00602979755354899,0.411398593278785,0.00614461286083516
-0.0731462242153331,0.0646189829806764,0.247950543324446,0.0119933742372856
-0.0357208273501041,0.111386643680989,0.158758193738082,0.0127361901455614
-0.0747343799224688,0.19199607731816,0.120057265542268,0.00867692023577182
-0.00189009011342113,0.245634263466044,0.0840190488788808,0.00204700033669439
0.0632459941829634,0.249945887184746,0.0659724430453679,-0.00473940762415645
0.0195336452353924,0.23189685549122,0.0441143909363011,-0.00904441334206684
0.0129973592902031,0.168017318412216,-0.0202706846046133,-0.010431460246192
0.0729644959662696,0.0931842610969703,-0.0759541481406176,-0.0117055466052572
0.055561447866271,0.0659173207851721,-0.0638284126418759,-0.0145154763409936
-0.0123726508278251,0.0494614088145974,-0.0284947895388267,-0.0174128175550177
0.00484090795139945,-0.0227006859630863,-0.0146770318772192,-0.0189127266650171
0.069172785631949,-0.0830948466976978,0.0305685234264281,-0.0188502863885658
0.0438089345585272,-0.025484978226233,0.106552194115215,-0.0165739262962644
-0.0332687634461936,0.0456476274999754,0.118162753243674,-0.0114437687925484
-0.00195151931200322,0.0135810025385607,0.0704618072378093,-0.00530649358205391
0.0981287885322032,-0.0398154038677311,0.0471888952866705,-0.00093474032956902
0.104597180398198,-0.053029784657598,0.0580545233498981,0.000363560645698481
0.0169797194928251,-0.0600674043957417,0.0666045472265475,-0.00120179759978827
-0.0357886931581147,-0.0557333043481268,0.0599187275571151,-0.0034799033673516
-0.00873269315650018,-0.022542470059839,0.048964303083767,-0.00374540898060154
0.0167129854132256,0.0255056398252582,0.0480790683451249,-0.00203240722751134
-0.00836797606265764,0.0595262293494805,0.0539827742902169,-0.000579863850906364
-0.0260477934771069,0.0393954811878231,0.0380937210581979,-0.000528105379276279
0.0116124001832614,-0.0193491326911426,-0.0111619761078861,-0.00129482854862165
0.0545889580542533,-0.0388030882114538,-0.0645369030170882,-0.00202244669708815
0.0638019929616251,-0.0107586986944147,-0.103634474265285,-0.00225777602870306
0.0566560480426243,-0.00782696525455139,-0.130630128649041,-0.00201617842170952
0.0342921554758225,-0.0487889907942441,-0.122310582882779,-0.00118566690840363
0.000843283103058312,-0.0625919297970976,-0.0748812052634367,0.00137716965893375
-0.0117476968895786,0.00129030742176665,-0.0210603954439125,0.00545761577359839
-0.00583420907541016,0.132225467599933,0.0339933137514542,0.00906105211946719
0.027630145243977,0.254931225563783,0.0268593691468376,0.012044685463402
0.127047997248003,0.252325862657541,-0.0988271450482637,0.013791879687641
0.205654263047348,0.159846924422583,-0.232802440008126,0.0111585055196758
0.189356509698889,0.0695274067464064,-0.27663221828749,0.00374191476426393
0.167612635537874,-0.046422670788148,-0.239067650649261,-0.00457973667919107
0.130143199016274,-0.184345773112858,-0.0997631280377381,-0.00941944021109798
-0.0162420386240279,-0.250237444334125,0.120081658777385,-0.00877870230716023
-0.178060459880784,-0.186956057542252,0.26888940645553,-0.00392774738651293
-0.256401748321851,-0.0368897606318556,0.286666950048441,0.00253533378290109
-0.259144963329123,0.114305023015866,0.25540759745044,0.00870018541044601
-0.137866552752315,0.198555992071196,0.199387713804398,0.0133325365095386
0.0258639013490772,0.203573096608428,0.0873878730362539,0.0155425402440268
0.0601037623681322,0.147870988478079,-0.0621450802826302,0.0142994174666945
0.0385761833289925,0.0596012252321013,-0.168463272652045,0.00914183763039114
0.0841608972553461,-0.0286935241760608,-0.171334254658147,0.00235943581540203
0.120894069081366,-0.0929475020182914,-0.111174335489439,-0.00216854567070345
0.0716666539792468,-0.134257903451079,-0.0779131740232505,-0.00349069814419667
-0.0177786171826408,-0.192132458725789,-0.0959488764296759,-0.00404327977671497
-0.0711513505572356,-0.262233701158641,-0.134325132117783,-0.00515315344109063
-0.0128665284801929,-0.263321788939518,-0.172259203586602,-0.00516517714525173
0.134777921985237,-0.161882793296689,-0.206696288529525,-0.00273854879660896
0.240640333377174,-0.0423277683958134,-0.23098164307003,0.000725338912093261
0.266945240873283,0.0451738971606921,-0.189764187074748,0.00399320821401701
0.235148029824115,0.0902876946081073,-0.0802644471239929,0.0081266232094042
0.0852509683924669,0.0738577343420539,0.00867050659046906,0.0132250094748348
-0.149466085929287,0.0444789785997367,0.048082988743236,0.0173984514759666
-0.305818449410951,0.0384655375118117,0.0339325792802738,0.0193152979490382
-0.290799600978345,0.0591654022045008,-0.0174542357815538,0.0182304929465813
-0.130669399806372,0.0716511059321243,0.00384289572359135,0.0144030705703852
0.0182584881920639,0.0456311104228497,0.092677514161411,0.0102094902727876
0.0469137145457404,-0.00205578685998802,0.0930617534879249,0.00624845963978552
0.0149092955952746,-0.0511153222707819,0.00135069209974114,-0.000150799436941157
-0.0189212637983823,-0.0452442004275622,-0.0518347377521302,-0.00943832119202177
0.0118234929459986,-0.00644693928299874,-0.00922966779662496,-0.0179437056363776
0.12160018593039,-0.0150560413499504,0.105532712679058,-0.0203189785618379
0.15286168396748,-0.0364159310439914,0.179433569995016,-0.012996375595174
0.0779075455542668,-0.0208265908951971,0.12295627079084,2.60966552624309e-05
0.0565912649757572,-0.0105054824187306,0.0389809138375788,0.00876569742641834
0.0668229514631661,-0.0054432848928546,0.0409488912422603,0.00825422274469161
-0.0222571636237392,0.0292736633490147,0.0476562925093897,0.00249499306760856
-0.13616323329339,0.0235732663831254,-0.021603847623652,-0.00293996430894414
-0.139065030909024,-0.0552592466978352,-0.0762130459682675,-0.00636132078601164
-0.0961688073463356,-0.0922584779852001,-0.0539464006648167,-0.00782608614571399
-0.125506243431993,-0.0189049146234823,-0.0167317448132145,-0.00722073523986871
-0.204273904896878,0.0572288949564035,-0.0144819499019411,-0.00527772208744059
-0.212939761567425,0.0417339011845684,-0.0307681528005755,-0.00387034447314357
-0.086821891680887,0.0211784793086796,-0.0303567878375748,-0.00417119886286866
0.0734830798332549,0.0624445404384874,-0.00679735036316212,-0.0048052548882593
0.145777941284288,0.0904647917154396,0.0291876585980366,-0.00419737642217414
0.12836561887428,0.0709331794819546,0.0666319048895579,-0.00315854603396679
0.0858440230964499,0.0427636638050362,0.0949015684296651,-0.00317559985494316
0.0551555349121301,0.0202056494090914,0.104709176677818,-0.00405553369254945
0.0167043243185205,0.00701093867828124,0.0930438279404025,-0.00459397122300938
-0.0228750807995028,0.0144189299243982,0.0673949126433923,-0.00435991246645083
-0.0248563967002643,0.0428750082202639,0.0466610835941024,-0.00300985813428488
-0.0202179329590704,0.0831423370127182,0.0430377503110313,-0.000404340968079194
-0.0569185664415364,0.12378357670894,0.042314272152009,0.00185784827540784
-0.1030043015072,0.140892999793773,0.0341751703347027,0.00222996652549349
-0.117294032608442,0.120256844010837,0.0236013862369615,0.00111893564322394
-0.112779648687517,0.0928705601315611,0.0107745623746286,-0.000601386977603839
-0.110143670459954,0.0910252036133114,-0.000283447298263698,-0.00257524671158328
-0.100711531082209,0.100322276128568,-0.0102436476391949,-0.00411078232443149
-0.0686063771973177,0.0829280149755107,-0.0231520622265019,-0.00465680371104989
-0.0336237337578255,0.0453563866471755,-0.0231935266390702,-0.00423969332884826
-0.0216372018016944,0.036307685407264,-0.0042211226112179,-0.00271945743706733
-0.0200785498194419,0.0511013759709941,0.0106020537242522,-0.00104639529581657
-0.0287250862242772,0.0298834342745018,-0.0042391753020561,-0.00151547843173586
-0.0429539933192513,-0.0468115899775693,-0.0319689168642163,-0.00495279733468216
-0.0251727897766859,-0.118841339559019,-0.0287070678347552,-0.00908373347233746
0.025924584060294,-0.117393060247663,-0.00258958328053865,-0.0103190951494888
0.0467065363979927,-0.059957288578929,0.011603502195163,-0.00758005393051632
0.0198416453724024,-0.0257597446826175,-0.00992828268397777,-0.00371048989492268
0.0321791794959884,-0.0604928509472124,-0.0990234280036506,-0.00198361530192542
0.135621143287401,-0.0644283828012858,-0.214330624012588,-0.00259206124565017
0.228851246623101,0.100435037055082,-0.269761923670064,-0.00257940071468515
0.225542507039925,0.278239008585314,-0.286285540612052,0.000911179550035152
0.22378300540086,0.223009184977226,-0.302331811332709,0.00587842758789412
0.228713845533886,-0.0140749042240104,-0.30458178002431,0.00780684861290239
0.115158248196226,-0.290449410490404,-0.297869621370004,0.0050905202213645
-0.0706134912179709,-0.522190665730512,-0.195427908059523,-0.00146923956477234
-0.211959273410399,-0.535031857923159,0.115955617043099,-0.00673720410340549
-0.334631806558886,-0.247619420988747,0.423011171183573,-0.00263024458612479
-0.390290001447517,0.126305576668519,0.434353596078002,0.0101680178100072
-0.266986568968317,0.329068777624709,0.273516786186236,0.0215767979546735
-0.0857403866314874,0.262797459704576,0.138119254889228,0.0240740012431093
0.0108840952530313,0.0340013433115963,0.0267973175934667,0.0176448928223725
0.0591134164274059,-0.128348163583978,-0.0437724285156478,0.0074784146438652
0.159111251487768,-0.113662020597399,-0.0773257331946995,-0.00129021061599047
0.259338374400325,0.0167211483426341,-0.119193580838351,-0.00808837140381197
0.203844341502832,0.158340122005815,-0.131467686017907,-0.0139313477258176
0.0280751496833506,0.201967235942295,-0.0884259151324571,-0.0165294288986787
-0.104048582041158,0.0684528560189814,-0.0862509918456062,-0.0136695397591003
-0.0885181959179699,-0.126274857847172,-0.154319284977391,-0.00783903785640117
0.0490142018585341,-0.194430822878649,-0.173368227052726,-0.00256524648195969
0.150915178520327,-0.15323912076729,-0.0979596363363358,0.0013575837570092
0.121345998714031,-0.11887750836514,-0.0024956961058674,0.00427449728633362
0.0335998547361389,-0.119451679429038,0.0636305718075621,0.00629061447157068
-0.0283687393271145,-0.115508859684499,0.0922617224661838,0.00791421451462439
-0.0596604965088275,-0.083189878748515,0.0753812814067494,0.0097810723387244
-0.0728512111466793,-0.0407225451338381,0.0391534867471699,0.0114615430362734
-0.0662085742736389,-0.00617757030693417,0.0239985040608286,0.011999876360048
-0.0598836195325338,0.0274028760064845,0.0340497735968008,0.0113492976921448
-0.0837174736955886,0.0579814871818358,0.0560952049633175,0.0101561797370877
-0.113555329724825,0.0569950686476761,0.067510580877706,0.00875333515034882
-0.0953110033942561,0.0209249426612176,0.0419926496778848,0.00713679800447291
-0.0126002441894179,-0.0147290683692242,-0.000664816978116706,0.00525358346189957
0.0817494693030753,-0.0357765838602998,0.0122675891291598,0.00334847869339359
0.111868531313436,-0.0395525784581629,0.091051775565495,0.00228305377931098
0.0787096011093459,0.00813465968835873,0.16674065436028,0.00263651858249912
0.0350686637619242,0.0920051636123205,0.214279419239356,0.00395253612474228
-0.0189627156941603,0.139400059334301,0.239351443497473,0.00554298720527832
-0.089340947816087,0.135747005770282,0.21948248882198,0.00633991740067248
-0.0813434285194734,0.100423677146194,0.151850759865921,0.00460668323668691
0.00273411080301646,0.0555347041658621,0.0901040641996434,0.000457426201950141
-0.00150509919552173,0.0362420319672161,0.0809353013940339,-0.00365715181502966
-0.0725354621518937,0.0277177956739745,0.0949718775306218,-0.00630009123442966
-0.0508548902960878,0.0136284782332486,0.0826512940729703,-0.00808680693922975
0.0301296897339411,0.0112227706351578,0.0475206258821089,-0.00952361751185438
0.0211782333705544,0.0315910932972652,0.0410911252534789,-0.00999486124057322
-0.0727389204717174,0.0838345644530496,0.0887263034051065,-0.00833931138376483
-0.110433802649296,0.125084199434402,0.114082733558551,-0.00417859686246223
-0.0616674450957831,0.107111108554609,0.0610456108455184,0.00056516269989847
-0.0158558136959115,0.0573665240539421,-0.0150412518002234,0.00292818659028643
-0.00637737251669893,0.0232538273436858,-0.0520557681510041,0.00199032734683346
-0.00399294553360212,0.0164711098281375,-0.0438604253321673,-0.000385867560912362
0.00594967681942429,0.0198025006251813,-0.0249311107103245,-0.001918319106014
0.00365913466998347,0.00724294250835584,-0.0304744081590764,-0.00221820849854147
0.0155132994997075,-0.028732873356664,-0.06953505328269,-0.00231718432385119
0.08783901848772,-0.0608067616414157,-0.140008305407438,-0.00289785167520248
0.147642053658334,-0.0821570448512629,-0.218760264728572,-0.0045409378417811
0.162339786006748,-0.136676063453508,-0.227315700470355,-0.00784171371368618
0.216145883891437,-0.228353227821041,-0.134096502747643,-0.0112465135954035
0.266201969788924,-0.254768987026038,-0.0189328379299789,-0.0123805088925785
0.13452393440084,-0.121221277977663,0.0720015096272951,-0.0113452049781631
-0.162377273071407,0.0725715851206437,0.153344235885731,-0.00800715343735991
-0.343927133247845,0.154248401930346,0.203966723350067,0.000234383356145812
-0.261238435088314,0.140142550029016,0.174057137056294,0.0129802969800631
-0.0274877357437511,0.115108373455887,0.0660956072467326,0.0233458206957385
0.133007588423617,0.0769475325436823,-0.0225931766470036,0.0237717654370024
0.115131154740294,0.0275843771990284,-0.0408345473688451,0.0137087065052921
0.0459627811836687,0.0101097840765767,-0.0456450550608566,-0.000738893745224414
-0.0228271161301776,0.0159942427673243,-0.0659194034645993,-0.0131866799946091
-0.0810403520612246,-0.0247881114096163,-0.0750173796304288,-0.0203021453836693
-0.0515923268570225,-0.138420479575477,-0.0729611926524219,-0.0208983436946102
0.00195745993800611,-0.256878912659898,-0.108903493740507,-0.0155802808648352
0.0205687408895098,-0.310387629228413,-0.220023916097951,-0.00862690480971281
0.0522996865679171,-0.334791673386545,-0.361241497240476,-0.00596304415291968
0.145395596253489,-0.348742121621322,-0.420650448100926,-0.00892041576444899
0.244785541612754,-0.243004766001906,-0.33070794314516,-0.0141757152269104
0.189928534607212,0.00605094449889443,-0.167961208765853,-0.0169522027117775
0.0234281919012592,0.165849293790686,-0.119643086557667,-0.0128900932982484
-0.0915420628789979,0.175104503728024,-0.206605714942059,-0.0034635601225975
-0.172612789777813,0.241052925434802,-0.193470574404507,0.00454323478132446
-0.217808692966376,0.281567061357265,0.0527031539497984,0.00907718129414951
-0.125702421684392,0.172862444257669,0.357694954917279,0.0152343664206476
0.0390576050662277,0.0822862495547602,0.473786853402775,0.0256963168378353
0.111323163826159,0.0692822879514485,0.376198441291496,0.0341842609710105
0.0871116441321119,0.0255604884941446,0.221202811996779,0.0327324250316659
0.0231826734920056,-0.0629982973006875,0.108913206201614,0.0218489293833419
-0.078847033780109,-0.116787089526275,0.0365508535830973,0.00785105567536685
-0.134158712764056,-0.117861937990668,-0.0268684286549555,-0.00458268977909511
-0.0306417479502701,-0.114380955500129,-0.0932688963783768,-0.0134284414281185
0.10569503294375,-0.128147575737491,-0.0959470138914655,-0.017774726255627
0.0688899979627999,-0.131103021813636,-0.0393103730776553,-0.0173300164748949
-0.104604813573025,-0.097379407766499,-0.0474937481289759,-0.0131498244691481
-0.224414034429946,-0.0618747445067031,-0.100916505587843,-0.00703651878098804
-0.170245399781154,-0.0357639961978091,-0.106927604583275,0.000140210736085247
-0.0102148605892682,0.00583468860462298,-0.0740846155225029,0.00651786051809609
0.118091831221442,0.0248914786076811,-0.0393768373660612,0.00882051929630375
0.167472679569785,0.0106032772865348,-0.013836514279132,0.00683487734210691
0.132765782987989,0.0451839848607361,0.0345592855944011,0.00397993901218875
0.0360319522738517,0.149035892823834,0.122732143973525,0.00309443295889378
-0.0493105557844652,0.210024809654039,0.173352293814028,0.00404254327338977
-0.0681690870139935,0.143973020609624,0.132776700142414,0.00457944775963098
-0.0327729270406413,0.0319232370577887,0.0822239328898107,0.00310027607074723
-0.00996076693429371,0.00767187828279037,0.11358314236585,0.000932195766338029
-0.0426851875365489,0.0584775504820162,0.194121808291532,0.00143408208580174
-0.0545411987691747,0.0704223751123772,0.212394716185713,0.00547356381663213
0.0188710738615467,0.027030530350808,0.143821687763638,0.00912630675038807
0.0746567715776275,0.00983371802686455,0.0862321280674413,0.00806658774025974
0.0437515616505918,0.0634465384986285,0.0927019445895139,0.00294112059606525
-0.0159595922248076,0.137622520444864,0.101651685311009,-0.00166946624886089
-0.0522977145066409,0.134936752040607,0.0746494448352941,-0.00317237742307645
-0.0401263197402159,0.0351496071995324,0.0481482524888842,-0.00298216974508103
-0.0263847919348437,-0.0659223771895645,0.0486995062046876,-0.00331028309338046
-0.0593962822572984,-0.102800531307988,0.0601024161511446,-0.00481958562509651
-0.0644722938522162,-0.121183308990105,0.0695819669220735,-0.00649474774860926
0.0192627323768604,-0.134700641536848,0.0925412782502615,-0.0072849551119768
0.0953327806914946,-0.0609429831447084,0.150558605365117,-0.00773533842802898
0.0635262246896836,0.0964462814163282,0.237116905141835,-0.00809391490175988
-0.00235744666708251,0.21591138299307,0.267109709554655,-0.00611237569370001
0.000845716297683985,0.246750481417495,0.186571931567299,-0.00068843520249778
0.0396923044862066,0.179401172818443,0.059146081017919,0.00425460698154178
0.0514093003785829,0.00523103989647752,-0.0692250678687519,0.00345970036133803
0.0435788024852178,-0.172416451838961,-0.146492332772191,-0.00349320834094899
0.0171666010971695,-0.218019485796866,-0.115132943323669,-0.0111113167069795
-0.0701757332967031,-0.118051569252108,-0.057672464097261,-0.0141080696886582
-0.156442351830501,0.0285076216201475,-0.0596588808681799,-0.0121315986087359
-0.106881268949453,0.102920382327481,-0.0684287093841622,-0.00683259086140937
-0.00141659768964938,0.100397274742995,-0.0295439017630231,-0.000290563516135862
0.00811338014339336,0.11872259797153,0.00591981632891968,0.00438282571897907
0.0218787410044255,0.109650434743894,0.00077895603376392,0.00620979946158976
0.0958223706126504,-0.0307630176799835,0.0631153050201235,0.00733934758450311
0.119549861713793,-0.191126481182965,0.194982359119622,0.00905686540916971
0.106911764391284,-0.239171524742786,0.162004633588145,0.00980328959776682
0.107679493645,-0.19333574378219,-0.0529104944990269,0.00664851759240114
0.115603280752851,-0.102479988899398,-0.227325695731359,-0.00125158238490606
0.111148919417858,-0.0492248354876294,-0.273024747265367,-0.0103136482779467
0.061555409517166,-0.104346280633187,-0.224453511078517,-0.0152240928818788
-0.0193748527325011,-0.16965434686747,-0.180826166437583,-0.013797416358052
-0.0299497386391651,-0.152073531860735,-0.224672280159872,-0.00972506885021147
0.0312952211561137,-0.157913511773905,-0.298594120227517,-0.00883297973726705
0.0453915705228406,-0.229756674947988,-0.273930648996621,-0.0118377955339803
0.0239639384925113,-0.218295311541116,-0.0779423136049491,-0.0131232663213143
-0.00751992872943025,-0.041335616977312,0.192617725307953,-0.00740568808193917
-0.101863155843671,0.203747430765463,0.313912589964429,0.00397973515193226
-0.24936745900162,0.355453601672363,0.24859304039695,0.0151531886415652
-0.380718115483764,0.355143090379474,0.135901378850621,0.0219797808571808
-0.374713248804061,0.226613066716371,0.00651463871478394,0.0235104761259294
-0.120738139796043,-0.0116719656311114,-0.1521513959766,0.0200898069933489
0.243118012383128,-0.209832435103507,-0.283085044408669,0.0134836932032822
0.388160379001692,-0.156246360842955,-0.339750719569025,0.00611878986678725
0.288606410383863,0.0181647502547872,-0.350140417254402,-0.000908269295534621
0.23401119651314,0.00417636714203125,-0.362339989099712,-0.00761400710684983
0.276960274093515,-0.154845695069435,-0.376329711884709,-0.0134774077210795
0.268138166356307,-0.284019762801966,-0.359944677465322,-0.017446356480693
0.161773235559439,-0.347749347289344,-0.304701375098867,-0.0197498281781004
0.0323877026276767,-0.285923287579314,-0.144913195218273,-0.0198897182899533
-0.0265367992867316,-0.108310487198564,0.197462285923042,-0.01416125772552
-0.160533927736362,0.161086815149217,0.591364033408985,-0.00148226752000527
-0.457361177220146,0.518925373867264,0.801548040735554,0.0148918849903499
-0.557215872674406,0.674893659368754,0.653900880400539,0.032956184685901
-0.276731810717176,0.400211679548339,0.184126504211194,0.0467292410342764
0.0288733400287808,-0.0457760252049395,-0.271870309352958,0.0445316380229646
0.119274754432363,-0.320343321405273,-0.44512687149631,0.0243942250772648
0.102902640149962,-0.338965707597824,-0.436652454790749,-0.00168773075652598
0.0711744085484922,-0.158011028101336,-0.388507738793448,-0.0217117627010463
-0.00643940483692165,0.1022083334959,-0.241300765267352,-0.0294799571341379
-0.134172510469597,0.292393592893249,-0.0372185537012858,-0.0216509053789268
-0.1658718137598,0.351182691568671,0.0265526282749947,-0.00255562175834193
-0.0115093047251825,0.283048947977457,-0.0798520356431544,0.0143247170245923
0.176614180338444,0.113469284390301,-0.189306921794762,0.0183453688348623
0.230883883260474,-0.0412532776205005,-0.177343400207772,0.00992239365351468
0.146973926556904,-0.0749173817104709,-0.046053033251697,-0.00294967802495052
