0.00400827669526229,0.00350170980438108,-0.0213535145882081,0.00640731535908411
-0.0206298015617631,0.0804009103047696,0.00204803265094176,0.0034075138407362
-0.0284918690539778,0.112341546847064,0.0192632942245258,-0.000635228752848736
-0.00568115710549122,0.111734943549897,0.0235719426351664,-0.00421253081233434
0.0143974267308754,0.0945860773830219,0.016437018539682,-0.00574818297774032
0.00805235389372829,0.0645384525464382,0.00773094003311772,-0.00499251687714073
-0.00406450287373977,0.0279933950706198,0.00392253749867966,-0.00319907043432362
-0.00334927939646389,0.0267806280849803,-0.00256218636877313,-0.00205675349279436
0.00468214876077703,0.041129219645147,-0.0148832655142818,-0.00190317746114462
0.00920575116759145,0.0055344228579838,-0.0184640347946708,-0.00175854867308769
0.00449418572977235,-0.0430277137910916,-0.00900577437227349,-0.00115095733444826
-0.0059182596662721,-0.0437668061568929,-0.00048439417946565,-0.00047592767072686
-0.00971502615329009,-0.0224640017396929,0.00139613150822523,-0.000166586921165708
-0.00182640008699979,-0.0173203446093827,0.00247077559843656,-0.000118556307195846
0.00838977250983168,-0.0248530398490189,0.00432461195436027,0.000103221273939498
0.0137867838145594,-0.0320419625680767,0.00402718599157789,0.000455618643432914
0.0148684343074282,-0.0361319015812587,0.00127334044771892,0.000680608835747367
0.0146836633049599,-0.0401844919017315,-0.00213794323220054,0.00112647027900385
0.0131320207290239,-0.0429294154411662,-0.00236506638170258,0.00196005699858268
0.00509648412008711,-0.0400360530670889,-0.000249456090257429,0.00240658480263963
-0.00758537209163998,-0.031768601364895,-0.00108012759311396,0.00200817333379129
-0.0163084951524518,-0.0217904983143098,-0.00504937012054683,0.00152652703203031
-0.0194933896138705,-0.0163410787445516,-0.00841666283761289,0.00164795055772891
-0.0206091693556331,-0.0139516799511163,-0.00945244530423975,0.00184649071857907
-0.0185110806116998,-0.0121811695700456,-0.00846632769308075,0.0017562139945439
-0.0151346419420585,-0.022761525748232,-0.00582183559492276,0.00183437696347704
-0.0149286869768733,-0.0420919215952043,-0.00431891494070334,0.00212201893093134
-0.00946727420451557,-0.0457428249311268,-0.00381994259242596,0.00244034589827811
0.00130731976478596,-0.0316053731117548,0.00039698081200211,0.0023707723355384
-0.00332199329978993,-0.0186285812231097,0.00708783505593556,0.000863023874420146
-0.0234349140512792,-0.0113841365685807,0.00934143369075762,-0.00184788902036026
-0.0348708439506593,-0.000767187530245734,0.00532222770466724,-0.00397397731692886
-0.0305468182246703,0.00776528184881367,0.000331496566800638,-0.004550525874319
-0.0226989029496805,-0.0172067687693835,-0.00222195633970734,-0.00379343494222402
-0.0169356069230562,-0.0616005023122188,-0.0038887651908496,-0.00179908584822705
-0.00488963930181302,-0.0545823208572862,-0.00483138164249013,0.00119806681027223
0.0124458314763328,0.00205346502112001,-0.00469940321977612,0.00384485451186976
0.0173739522782199,0.0415957721061268,-0.00718268813043566,0.00463838802048928
0.00639741191804341,0.0434272167222018,-0.00815881162839298,0.00319061627542972
-0.00488238499813565,0.0321826895002294,0.0011562062350116,0.000315770095342587
-0.0121814416129023,0.0256959707080063,0.0157798288644433,-0.00238865994487233
-0.0165239333113121,0.0266829059462682,0.0261424332888991,-0.00387329258225492
-0.00598563133954254,0.0334281355911657,0.0296915255514214,-0.00424961498220228
0.0161291791263332,0.0360766765626323,0.0274866531910348,-0.00348837349129617
0.0356989413858053,0.0272543001863714,0.0213164621093491,-0.00123617582605509
0.0425320515091706,0.0106204911800387,0.0146778454656083,0.0019616688930737
0.0215403767327669,-0.0161827927171656,0.00933862298979135,0.0044523201281175
-0.0117237731479762,-0.0406284541548125,0.00525924724670444,0.00501208721399477
-0.0221908490032426,-0.034619812424284,0.00569450246814687,0.00406736929626752
-0.0114297359865128,-0.020915552924438,0.0135172939088247,0.00244718201985528
-0.00545412533027122,-0.0346132019600106,0.0244856348131046,0.000350605966798892
-0.0172675854357952,-0.0567201903903973,0.028980562793602,-0.00222304314336366
-0.0366744500050592,-0.0792825514167712,0.0271169929927376,-0.00470516998457165
-0.040859957174194,-0.110463544757015,0.024655658321209,-0.00578273079644255
-0.0233085758404378,-0.123316645700547,0.0163288083537423,-0.0044684726534653
0.000224783780302128,-0.102814817577194,0.00275072449183711,-0.00107423185076068
0.0194122264909893,-0.0500460733754219,-0.000823244956394249,0.00243581628414996
0.0278637028035657,0.0266404263016701,0.00866450152709538,0.00355940297903532
0.0210777749569332,0.0912331190195785,0.0136606348784415,0.00174311720030961
0.00842597666842233,0.12083142305496,-0.00021148514165572,-0.000857741240924007
-0.00214989745412161,0.121970801940896,-0.0259849710281979,-0.00131364404164706
-0.00679051919800493,0.105363242848135,-0.0424119685708668,0.00113467324250387
-0.00487701143261576,0.0701860223882047,-0.0349134609394162,0.00413367952587554
-0.00422121024155525,0.0181443600227846,-0.0115841748320703,0.00461681693171923
-0.0059865791415643,-0.0277505957640891,0.00806641321060661,0.00202123203066268
-0.00249941942930249,-0.0500367843933453,0.0164562777041532,-0.00146867137073975
0.00680670603178225,-0.0572503707547723,0.0195386405134811,-0.00355632489987383
0.0156834257538751,-0.0577138903546646,0.0215222834381188,-0.00361170006349566
0.0186330985096956,-0.0515006678273873,0.0190270692656131,-0.00235000336405893
0.0113556213889919,-0.0405113407634794,0.0109528705806101,-0.000810028007022002
-0.00589066748627241,-0.0215665490003639,-0.00356947813179354,0.000435873312699403
-0.0234322077652681,0.00443796303913012,-0.0226996829267457,0.00148162204235695
-0.0257819365355657,0.0219377090669432,-0.0337961544969087,0.00203227022894408
-0.0115396998450246,0.0179481791749523,-0.0309080926368267,0.000436907670790512
0.00234471168579893,0.00660703419842257,-0.0211959670475592,-0.00395856957870159
0.00757070189943872,0.0150429607171743,-0.0107676017496506,-0.00801729485081327
0.0119252555905003,0.036969619575877,-0.00163766342745449,-0.00769841613571983
0.0185673969637466,0.0475931512589161,0.00367228255329659,-0.00289963194586323
0.0255889654054616,0.0468624391688812,0.00339230893504154,0.0032622708597675
0.0324893661906906,0.0377863952117359,-0.00238243425083164,0.00810026376971375
0.0353942838628689,0.0239248505118508,-0.00828630359860347,0.0105980469574614
0.0297609349362563,0.0221176490997367,-0.00479167528412671,0.0111754434969475
0.0171609643486334,0.0264170738758374,0.00454670922946918,0.0104004647774656
0.00543157177796877,0.0174612691160388,0.00686750207397446,0.0075554717032068
-0.0020634506018052,0.00316274334960086,0.0010473702759585,0.00184184433316058
-0.00771221965489936,-0.0116955847940992,-0.00607820078440765,-0.00516011868152194
-0.0162970226166343,-0.0459067047784533,-0.0115338723800729,-0.00998390304862279
-0.0247328929398876,-0.0725105015848016,-0.0155147675844798,-0.0109685584890836
-0.0169772863970376,-0.0476455023080731,-0.017835525376503,-0.00966385426738138
0.00950728028001153,0.00631623511183822,-0.0179171800438085,-0.00806934289680637
0.0302523307690467,0.0567325907385911,-0.0174141674975382,-0.00620612597307358
0.0242135661552457,0.101403285641249,-0.0191924177803197,-0.00314724574267119
0.00536115528993399,0.131943595997765,-0.0216810192593486,0.000949995304459427
-0.00286469998179993,0.13066794219854,-0.0170949993616698,0.00490244493945128
-0.000524365966560309,0.100221521647402,-0.00471293660908203,0.0074071111596695
0.00453114037717687,0.0617315509191346,0.00708864755358217,0.00765768861521303
0.0137740260960037,0.0324584930513151,0.0163570656836408,0.00587132146634637
0.0251901865849303,0.0155936491246396,0.0239502638137824,0.00317377320677508
0.0320646835390151,0.00128179761297361,0.0261587276551132,0.000433890433509515
0.033905684248387,-0.0154019627786734,0.0207299900170524,-0.00187426433618599
0.0297341588891629,-0.0392850226210471,0.0070601079669174,-0.00327157549346317
0.0210809517102848,-0.0601962240250711,-0.0117299070281429,-0.00365421574989902
0.0125231291997479,-0.0383770307462938,-0.0264016754453255,-0.00304095168718725
0.00647544459005533,0.0179668678846054,-0.0310768425940296,-0.00164811558250923
0.00591428205134209,0.0483359241597493,-0.0263169206567037,-0.000131362305159729
0.0055829452397305,0.0445633592846872,-0.0145321932877204,0.000753239024276482
0.00214343003872767,0.0370661786517577,0.0014772039183788,0.000379132278995169
0.00282189698566693,0.0279721347803773,0.0158863678259845,-0.00140834277785012
0.00477076519461336,0.0144792035660609,0.0214881830267889,-0.00350810162437309
0.00118833107064537,-0.00236475140837319,0.0172811992073972,-0.00416647641922591
-2.20981299898637e-05,-0.0240695411851569,0.00903362778080617,-0.00271216812672604
0.00824618594407903,-0.0423824031648674,0.00383330529821082,3.6450947950563e-05
0.0153265737329364,-0.0445225888390717,0.00481223016286192,0.00172925114449944
0.00765660472485922,-0.0303200678597094,0.0045832997229444,7.47310911489291e-05
-0.013121586099572,-0.0166026728826411,-0.00451626692575803,-0.00334781508689579
-0.0235202869622458,-0.0157700112529956,-0.0159364957453902,-0.00388339722017966
-0.00866509080425685,-0.0258698031097468,-0.0215961839795925,-0.000139444028555059
0.011566522094461,-0.0219129266290897,-0.0234854549999324,0.00420453389497963
0.0207497699363443,0.0131198936261748,-0.0230092876047116,0.00569079558459634
0.0242215862477552,0.0497512754794222,-0.0178121034076118,0.00465550117932968
0.0285991074259451,0.0610066791531622,-0.0103230121581616,0.0035064641709888
0.0322418057354607,0.0516799400320475,-0.00414679788697224,0.00329339606706503
0.0269596496019814,0.035054220399367,0.00176743363571778,0.00280300434429595
0.00831270426638845,0.0207555984926442,0.00753167111083918,0.000938020390823533
-0.0135319417071914,0.00773040613508649,0.0096213878229549,-0.00171478078536985
-0.0237440124757305,-0.0234844619225406,0.00804183621229859,-0.00342821903225022
-0.0205236086447675,-0.0618152428919739,0.00614185586312409,-0.00327502982150232
-0.00926654678803305,-0.056241587384297,0.00334494371639845,-0.00226164415973313
0.00648878557771882,-0.012956230660228,-1.64141522819954e-05,-0.00163723795746542
0.0223621442471333,0.0155470851104957,0.000671481881037835,-0.00197531943067976
0.0366264902090342,0.0145542732349147,0.00451011250549711,-0.00327270259014494
0.0467507638954152,0.0111740281255457,0.00376253171734224,-0.00462293626196794
0.0433831385879196,0.00785569193516669,-0.00311610671237087,-0.0049447108048262
0.0242011564739186,-0.017228071750164,-0.0111389667173469,-0.00333071551251339
-0.00565922285038151,-0.040221318705914,-0.018649179117595,0.000836374610491574
-0.0444551965402296,-0.0461102731307209,-0.0232446330462165,0.00709069684960253
-0.0844209635142806,-0.0696705648179206,-0.0209727519717705,0.0132763960629929
-0.102960533776059,-0.0947023415783727,-0.0124321672420922,0.0154890197086221
-0.0895959809238064,-0.0677435909049445,-0.00404405493430047,0.0112094062558134
-0.0713439591336045,-0.0124337862685422,-0.000320445062443992,0.0028962584411454
-0.0589209277660067,0.017210254454872,0.00257684782110368,-0.00416502772034109
-0.0255645763770359,0.01405026994245,0.00469850737618387,-0.00685964051690476
0.0194356704898783,0.00844078914122146,0.00152338976693284,-0.00579620827758324
0.0398731750394987,0.0179923457851225,-0.00303266507258499,-0.00308682746043844
0.0358238241768756,0.0189906915965551,-0.0050800363969821,-0.000280641682282756
0.0276472830156723,0.00218905211998819,-0.00573312411384841,0.00168957769365435
0.027143459073859,-0.0103939504428471,-0.00357668195272567,0.00234556830366706
0.031196237674041,-0.0127059363214868,-0.00307842686842266,0.00205562659564143
0.0264673648412687,-0.0169750485798873,-0.00664077841921524,0.0019015366240322
0.0124296893496913,-0.0188646581846247,-0.00143582175225527,0.00200053032564795
-0.00361004235457849,-0.0149355606812837,0.0117832801976095,0.000596002452051505
-0.0172428115957409,-0.0194291834166774,0.0146071084076054,-0.00282347987988926
-0.0228184404134237,-0.0313393992384104,0.00687548969157837,-0.00607401478469976
-0.0232739125733439,-0.0369924155751142,0.00194821441930264,-0.00742375072803715
-0.0285078293808075,-0.0390405311584884,0.000987443578892418,-0.00654306487866746
-0.0384568062858849,-0.0430134067272556,0.000583311529725322,-0.00347793651112246
-0.0437124940659557,-0.0395916156776486,0.00254250285189269,0.000611856327527843
-0.039869918275656,-0.0261195376374093,0.00608320979890777,0.00383798138760433
-0.0348265572428576,-0.00860898894963761,0.00729496693271427,0.00524239706280729
-0.0382143439973359,0.0104573571035299,0.00487116653627664,0.00502038601418447
-0.0437949928526997,0.024478580326705,0.00115386802233015,0.00406169949050393
-0.0406072195564104,0.0224890255583735,-0.000604838792831883,0.00310851651678259
-0.0307489161360869,-5.76600931523272e-05,0.00350763310986203,0.00216439885258274
-0.0219692448938115,-0.0259989358700106,0.0127456946301196,0.00090224795056413
-0.0141984503568165,-0.0315242959082213,0.0199648461893175,-0.000848820609424432
-0.00467850963106977,-0.0193122577072937,0.0215456074821947,-0.00276979326420249
0.00214960627844259,-0.00682738960802619,0.0179851720258333,-0.00429082019345685
0.00600985461373085,-0.000279939927358928,0.0111921267955298,-0.00510578638056036
0.0118009629958551,0.0086074333201849,0.00583536836681204,-0.00493744983319256
0.0156723360866177,0.0224686070111573,0.0057732356555797,-0.00377752181705678
0.0152779529079218,0.0236817085754608,0.00981114271320314,-0.00236343821226699
0.0169294105332206,0.014960804453521,0.0154597182996952,-0.001516891318411
0.0203424986704459,0.0288870410116056,0.0181951905826163,-0.00162765883430881
0.0175522551552134,0.0607133399099636,0.00384805085372409,-0.0021613968690368
0.00737814355314254,0.0710428387700027,-0.0259439722782982,-0.00173706333839416
-0.00476350211677176,0.0419815043506828,-0.0393657660075125,0.000158200887265849
-0.0125347415995167,-0.0107458401723804,-0.0231629831476853,0.00239874121117548
-0.0111392139817478,-0.0324334380599555,0.00235365618610169,0.0030935534370198
-0.0110363874793021,0.00913004656353076,0.0188247393622589,0.00143049714231815
-0.0126171474423406,0.0632903407033369,0.0230213729504182,-0.0010497852443373
0.0017547505820273,0.0791060778715341,0.0163494436448867,-0.00237439976720749
0.00862920520844824,0.0639889324359897,0.00157777332972462,-0.00218658637351266
-0.0188851064140576,0.0145830662054592,-0.00794199540977018,-0.00113419428638341
-0.0465601656537197,-0.0578285299540837,-0.00193438113301167,0.000295299690325747
-0.042238068210336,-0.081064998757702,0.0100209778358496,0.00177559986975858
-0.0211926871394324,-0.0321329782246389,0.015737784364989,0.00270074761240971
-0.00461415078705969,0.0365371399677386,0.0168908927845441,0.00222815339793132
0.00633975754905404,0.0681712624644558,0.0188391040608894,0.000289852979893494
0.0184545817560479,0.0531191781738934,0.020200944331646,-0.00163701539930665
0.0323350603770104,0.0280610184596791,0.0179369537738715,-0.00210580812771685
0.0373053779175136,0.00770185730647167,0.0154498779913638,-0.00132814934096745
0.0237538401212894,-0.0257677421145748,0.0125462176412649,-0.000425145090454882
0.00046643432641795,-0.0807742814235042,0.0021383812448152,-9.04484246930972e-05
-0.0120716299260397,-0.124446480936161,-0.00912779381879156,-0.000165447918169396
-0.00683730559940806,-0.104381970516336,-0.0133185094854127,0.000262336728115835
0.00347858201011188,-0.0328867143192699,-0.0162604050887319,0.00174661324456482
0.00679381052544803,0.0236475853378852,-0.0180979910266943,0.00371491274143872
0.00393047978552128,0.0390382835379173,-0.0150395127746288,0.00482710200256544
-0.00103449219224547,0.03248099478942,-0.00778227156102171,0.00406679306557062
-0.00681325031502971,0.0219048528783183,0.00118650660610898,0.0018874922115869
-0.00923829933492093,0.0174589034007007,0.00849911078421478,-0.000446742088129918
-0.00531395521055133,0.0240321617927113,0.0107141328787312,-0.00202716402451766
-6.17731009005817e-05,0.0386648214629562,0.00307832882879671,-0.00258368263752635
0.00355207858409054,0.053127017626604,-0.012674822673023,-0.0021199832477706
0.0040221921650285,0.0519669129949403,-0.0277367597904855,-0.000806538022771455
-0.00527245764447645,0.0256279387732238,-0.0356976106623469,0.000760822702839331
-0.0193629736958944,-0.0132721213788616,-0.0344178894760744,0.0020348716496708
-0.0228745244251405,-0.0402472962522942,-0.0241325625935169,0.00280678052953236
-0.016383212300867,-0.0448516498652711,-0.0106556462325457,0.00316348163504529
-0.0115150584902291,-0.0422363973023881,-0.00478632670253039,0.00322258154718547
-0.0146106373353368,-0.0526255554456628,-0.00558981358098051,0.00263136227677933
-0.0289535949744911,-0.0669746728041256,-0.00498992755489775,0.00125384149690409
-0.0391647832419107,-0.0588717298301975,-0.00333860762296603,-0.000454392944959113
-0.0263860566188958,-0.0339995951739305,-0.0010176925245285,-0.00181556003934196
-0.00794702993184978,-0.0205414356283226,0.00313158706469019,-0.00220324350755175
-0.0033480738511356,-0.0180471773661849,0.0055988719277278,-0.00172550658915904
0.00515246865477917,-0.00813637988363763,0.00510773925126985,-0.000978549035513784
0.0322123905372488,0.0115896066323649,0.00687318139041888,-0.000269999884091867
0.0627988666356747,0.0372006405747395,0.0103010011650536,0.000396440971080302
0.0780012328364461,0.0615399613801313,0.0099727794544085,0.000988454630888446
0.0743732472117513,0.0737485130292016,0.00722644777582719,0.00111134370974717
0.0593248750348494,0.074539585428138,0.00492798900861951,0.000280195114624005
0.0344965656928412,0.0702526119876607,0.00215999399758835,-0.00143443262645278
0.0103626299144954,0.0658377268986313,-0.00379774333458191,-0.0031277218825424
0.00610882468425472,0.0691825293033017,-0.0128632439991655,-0.00363832975229907
0.0118810178140981,0.0540207890965706,-0.0222015157501426,-0.00304996543393215
-0.000624067283666957,-0.0305204787860827,-0.0282506097928098,-0.00224414048153745
-0.0239873590575382,-0.129908141728961,-0.0262638962657287,-0.000874327108158446
-0.025180338724717,-0.138056617450532,-0.0167900018501456,0.00157243887539511
-0.00935546940950115,-0.0730316791260771,-0.00552942491661176,0.00386787287562234
-0.00769874169837227,-0.00872528207712897,0.00231597404309131,0.00405505372731286
-0.0177538441281499,0.0289191782311483,0.00227173924477236,0.00161455326918396
-0.0124385111970797,0.0342965394110823,-0.00329946717814194,-0.00150824806109144
0.00930133476661701,0.0156861035019069,-0.00525232591596317,-0.00298233515443541
0.0298661713668166,0.007561468439202,-0.0036461323696141,-0.00267409223520018
0.0429879758077464,0.021836505604533,-0.00264033738947966,-0.00158677039988745
0.0495562587581517,0.035366783665854,0.00126850829751963,-0.000251406074330712
0.0478816566178239,0.0316140160495554,0.00802373810018867,0.00075245444022728
0.0440067623529053,0.0108936973041255,0.0116383958052043,0.000318051480964161
0.0478461686992674,-0.0125246257950708,0.00830588370628139,-0.00138529773141113
0.0436921678966767,-0.0245677350240502,0.00261231104723099,-0.00222318576132908
0.0184309916220647,-0.0220891207216481,0.00253001774452249,-0.00126189680351853
-0.0036132469348728,-0.0136984194904644,0.00459622605650423,0.000127244650678933
-0.00465111993501653,-0.00879866645162878,0.00347932745030719,0.000698290599219304
0.00353950008518029,-0.00343960666386121,0.0041717386321777,0.000357034812925051
0.00938648039842739,0.00544111774555393,0.00871606651536268,-0.000544887513271795
0.0095274729597667,0.00423255722429836,0.00940882771346464,-0.00146577775931066
0.00730392310827439,-0.0105526188993673,0.00568706479604474,-0.00211153064778892
0.00838325875829747,-0.0163207138163713,0.00706323623035116,-0.00236486085731326
0.00956690398318909,-0.00592055333715713,0.00898570380466393,-0.00185825311936628
0.00770498120514496,0.00121833994715024,-0.000619032080070362,-0.00042911531250322
0.00572616769370024,-0.00526050256483702,-0.0141066581059526,0.00209430831017133
0.0028071136654964,-0.0152033088360625,-0.0135329372643361,0.00514605979719345
-0.000799987740948058,-0.0186158561676746,-0.000205137498496521,0.00661602212787286
-0.00161565660631953,-0.018870940197085,0.00818399275945785,0.00553202312820228
-0.00362059011182377,-0.0242559260795968,0.00443544300567969,0.00342256467155241
-0.00979315148450244,-0.0343046745349058,-0.00523080424500881,0.00159378764416646
-0.0136465246190032,-0.0360085979895508,-0.0128106579660373,0.000483308647856941
-0.00958676880210266,-0.0214741402197876,-0.0130008710496653,3.3171921450983e-05
-0.00236336042233191,0.00137702816853304,-0.00647665739264447,-0.00117618815234483
-0.00252105267369175,0.0163552907750482,0.00158376819363553,-0.00393417389163551
-0.00943025015141129,0.00838263151280244,0.00585997014529522,-0.00637420375976626
-0.00830104300070198,-0.0131812104239873,0.00478269447515377,-0.00611344730703781
0.0077343580426484,-0.018366694730041,0.00470372228609558,-0.00324650672776464
0.0308904927158747,-0.00673001784348454,0.0105289194888437,3.38855302867598e-05
0.0462143696280445,-0.00160075913828875,0.0167658603453163,0.00168636093223372
0.0468121149687631,-0.00168407632310473,0.0184237440971403,0.00136541649407295
0.0370577330191649,-0.00116840393242371,0.0192371419467641,0.000223956090293692
0.0131141697382383,-0.0134356935956005,0.0210980393358699,-0.000757050023318649
-0.013337392176126,-0.0391494656645697,0.0187457727947982,-0.00149744521616977
-0.0214241325375324,-0.0505909648161728,0.00898880479318484,-0.00193518727383364
-0.0209099022181153,-0.025922549208671,-0.00679954505959135,-0.00148369334826978
-0.0202244640456837,0.0192322651509716,-0.0192637329037209,0.000674362638988599
-0.0148249919965901,0.056840697752515,-0.016425236199602,0.00472084437959702
-0.010329951387655,0.0826489642554146,-0.00172741039690314,0.00887206751330001
-0.00883220287289143,0.102738658008814,0.0117826000262391,0.0100986582270683
-0.00898641045311084,0.115121119720152,0.0152942534838458,0.00704086850562402
-0.0138856591471454,0.111851518802029,0.00578429090068316,0.00170888422420512
-0.0182005509736012,0.0664436676345417,-0.0147589900882813,-0.0022908707944069
-0.0182487388765856,-0.0260341259540828,-0.0341134503051254,-0.00332351398723502
-0.0129863104776253,-0.0905571732741413,-0.0316760355664692,-0.00275257607004113
0.00751963992640207,-0.0709300402260234,-0.00894615083255157,-0.00272380946197092
0.0370010400045695,-0.0257151638442618,0.00928028506148545,-0.00391031225370368
0.0546312129380183,-0.0207657648537673,0.0142463508143155,-0.00514625741267029
0.0539128484015129,-0.055751774493534,0.0137421981035245,-0.00491705238731861
0.0415488986255834,-0.082736851242213,0.0117038748558946,-0.00308064600306807
0.0230430970134817,-0.0513954035993271,0.00934644333870597,-0.000762171707381275
0.00230003072759368,0.00831304777205258,0.00542792199561649,0.00104861033320352
-0.00884505760925313,0.043571650895581,-0.000487458190762668,0.00223821056244482
-0.00342117122692455,0.0606924054184715,-0.00379244251659961,0.00338493541537929
0.00604854438513193,0.0716319474725458,-0.00461295141664313,0.00461050960985211
0.00500278364378874,0.0629536315399811,-0.00588813540974081,0.00492349243676425
-0.000460093215064259,0.0327277663761727,-0.00742859814843179,0.0037281416570044
0.0013719188954733,-0.00160472285859681,-0.0103967045884963,0.00186617603757285
0.00312023694167951,-0.0222175043301795,-0.0133488994012455,0.000327200897302008
-0.00299947852813496,-0.022205287603952,-0.0123998574974966,-0.00152759794280222
-0.0079903736099106,-0.0113145869570438,-0.00825377787468111,-0.00445126331476197
-0.00497279889645233,-0.00473015745407955,-0.00400769435768816,-0.00669704477488687
-0.000796101261607054,-0.00762554156583503,-0.00106509083492889,-0.00628764684949276
-0.00131303410790779,-0.0148070411958793,-0.000147758918316278,-0.00379393152586294
-0.00144522775350534,-0.0142031695197377,0.000417272787066242,-0.00068682462380176
0.00135838179326089,-0.00534046342318053,0.00524071883919884,0.00227436167255578
0.000146802279583125,-0.00433056099900244,0.0124583268154613,0.00472005917027685
-0.00648070961374161,-0.011894004187886,0.0128430643483233,0.00611160505825943
-0.0122263866683054,-0.0148052425636571,0.00633629247578769,0.00531188787800915
-0.0141564840010375,-0.0124216858834911,0.000446544369074566,0.00183181620339002
-0.0113669752494379,-0.0114344752845995,-0.00480287953824078,-0.00207376030422973
-9.39172090903065e-05,-0.00384595126149053,-0.0082563215141257,-0.00272268540275966
0.0190537549617961,0.0142399170359456,-0.00528589279682526,0.00109450754428994
0.0331925211041604,0.0226899672964753,-4.08822215011194e-05,0.00703594860030219
0.0315351377686705,0.00219197254989926,-0.000313983728275685,0.0115031810235695
0.0172676850021035,-0.040295034530871,-0.00475473721017454,0.0119200283427367
0.00201812953784853,-0.0613367127424517,-0.00657562076196517,0.00701100831033847
-0.00474093560197002,-0.0287576621404795,-0.00647500423884048,-0.00254852839185341
-0.0057193489825735,0.0266474141008088,-0.00930290256421425,-0.0123364162808042
-0.0120473917239481,0.0566857452203219,-0.0122880958368326,-0.0167760075391091
-0.0222915563075023,0.054534191457876,-0.00879169821959058,-0.0146205383829633
-0.0217982208750777,0.0387619945360085,0.000623599296993163,-0.00912043633933643
-0.0146497247252001,0.02691697753147,0.00703922105666294,-0.00405435653297497
-0.0113432156132786,0.0348794480605481,0.00580286208973006,-0.00109215971975314
-0.00177099388916774,0.0512337987989875,0.00361040251291162,0.000542551360145531
0.0135632307185057,0.0476916671850636,0.00173253763289488,0.00232780145775105
0.0177467299131002,0.0265397462832676,-0.00345245878562124,0.00448323094349062
0.0111171294104554,0.00290564305181733,-0.00488354591572998,0.00607775472726042
0.00665933392761517,-0.0118091905657795,-0.000548574302355267,0.00643788335201065
0.0106009987757601,-0.00168621881989722,0.00285383603413499,0.00577705463346637
0.0118457682232475,0.0198625780557847,0.00360524025104618,0.00434440821860055
-0.00496356237050962,0.0149299673853282,0.00426723406060636,0.00221685997781982
-0.0214785627177483,-0.0213753727772453,0.00804913808957887,-0.000228166313016645
-0.0121909206896811,-0.0464868764034017,0.011380068102786,-0.00282370171918847
0.00820553939085356,-0.0252843313004986,0.0114393375840128,-0.00524754134797958
0.0127349379415687,0.0189164261355736,0.0104877081351613,-0.006806469623217
-0.00153251836427616,0.0311360984044542,0.00973928410013303,-0.00745646811429755
-0.0173388007761867,-0.00462961778317318,0.0115499291297512,-0.00732479676544752
-0.0218418345895906,-0.037656838790588,0.0135727422736456,-0.00561186240564054
-0.022336841121535,-0.0362437364007795,0.0123084823146523,-0.00170606623562361
-0.0297577794797802,-0.0203431945630315,0.00869596103273568,0.0031936391178212
-0.0420326170763857,-0.00334276632505051,0.00697746968321826,0.00695996064654734
-0.0481671019492271,0.00896317484619873,0.01173976018131,0.00788271990991976
-0.0401924719307951,0.0167564712227706,0.0152164330071763,0.00556605222849746
-0.0259364789556883,0.0211641208351292,0.00754711476802338,0.00189314286023672
-0.0138371853214271,0.0148883358299435,-0.00717419128340479,-0.000594247051724629
-0.00511665456971239,0.000509068449463062,-0.0202135407821862,-0.000985074425160964
-0.00777457738105798,-0.00624165663235081,-0.0218524993532848,-0.000256176230746343
-0.0181863873711509,-0.00225447259274944,-0.0100348906201114,-0.000499659160797635
-0.0195484538185746,-0.00637798110139233,0.0027279798217758,-0.00267496557140836
-0.0127202326559235,-0.0167089245350666,0.00950108141169615,-0.00523469809368707
-0.0107033297581798,-0.0115772564235062,0.0130424449747507,-0.00620932781752757
-0.0131674566843209,0.00684578273069611,0.0155828114841763,-0.00527014064773143
-0.01516718472258,0.0237132733657234,0.0166440496414306,-0.00341530311843418
-0.0170276772532017,0.0324475870833524,0.0145466710647407,-0.00150044954559212
-0.0195783261502597,0.0307570858457701,0.0103515670482594,0.000228325633965534
-0.0248880093327968,0.0200398723742913,0.00385357799929005,0.0011667054864883
-0.0307492126104353,0.0105127387131225,-0.00628739284995639,0.0010661309901574
-0.035025980537252,0.0103416165345854,-0.0137247719638769,0.000942087968213489
-0.0395126032046065,0.0198890491810595,-0.0174191087770891,0.00160167213210244
-0.0389042760870152,0.0396289209543595,-0.0260945820309446,0.00269035213864529
-0.0282763743628186,0.0468528591334937,-0.0326309664210118,0.0033476513471876
-0.0193023864257001,0.00808028728690713,-0.0212649465675749,0.00303583014025362
-0.0229529928396971,-0.0424563013874404,0.00153384454914112,0.00198077674249675
-0.036065915339694,-0.0458443294562034,0.015503017195354,0.00107933447186521
-0.0447276712745693,-0.022809888082565,0.0156976424917335,0.000880337488882447
-0.0330856004214359,-0.0169026519104572,0.0110334873657639,0.00114290646544186
-0.00661892124616677,-0.0209435105571807,0.00702974131668229,0.00169758724657961
0.0169841131513787,-0.0185323470392971,0.00492282031367973,0.00235793740062461
0.0331923250847432,-0.011903962266018,0.00558092569054686,0.00247162518366158
0.0363734094280032,-0.00848622953135086,0.00603900021855008,0.00166740866331709
0.0189144333329276,-0.00763602118713087,0.00508071702415969,0.000623092157081646
-0.00493646092012626,0.0053566118513672,0.00568767558385725,0.000364424437041426
-0.0202809922585019,0.0350566482997854,0.00717958483769606,0.000589975450454585
-0.0301942929205803,0.0741184736328267,0.00436577039479595,0.000145847338076196
-0.0433438924057103,0.104065316584769,-0.00391991501197644,-0.00107826053070178
-0.0638860648715528,0.099659623958707,-0.00803061599417917,-0.00236569108679835
-0.0802098530359585,0.0705665495711848,-0.00204579718121579,-0.00302260811669169
-0.0655236642238076,0.0495742729288457,0.00654572135397317,-0.0026138458478143
-0.0187395263231689,0.0444032241747449,0.00848823651443092,-0.00145262787305136
0.0224538555184803,0.0327566240078474,0.00131527607594512,-0.000432303775212676
0.0420115053908755,0.0046770318465141,-0.0125748829377839,-0.000261285538736197
0.0522768374825766,-0.0152208309132332,-0.0298884365045807,-0.000269671805673335
0.0495779915267967,-0.0254186506844624,-0.0431151937786179,0.00132886571078776
0.0307995117524718,-0.0537463420243842,-0.0438204028829481,0.00466363338282712
0.0156228165175782,-0.063741385352771,-0.0332301329404224,0.0076697461113971
0.0172631946708698,-0.0127662585499242,-0.0202375892711635,0.0084584835242351
0.020905519738061,0.0382213810137115,-0.00960760088751975,0.00690534761757235
0.0122513530233417,0.0376600538969672,1.10119089488381e-05,0.00400951858719617
0.00413036016354222,0.0199378713232695,0.00606433026643907,0.000602237931450443
0.00854653058817756,0.0131724473834861,0.00711916479479208,-0.00249164334216174
0.0140206550407816,0.00896074620331891,0.00724858901646989,-0.00410420043858127
0.00753897224081342,0.00464423039719742,0.00549964068308015,-0.00362558044382387
-0.00618162204951885,0.00616588039187791,0.00281552126333131,-0.0018703200444081
-0.0131213689869181,0.010596993272273,0.00401884950171843,-0.000280203294726782
-0.011675989184476,0.00991578836559288,0.00570594322692661,8.86467486883107e-05
-0.00974422423383261,0.00117409945370512,0.0057438763509833,-0.000853261034888233
-0.00524352914829596,-0.00859645293006804,0.00913010211316924,-0.00221808959442296
0.00415556888815143,-0.0107424938289556,0.0169701558561737,-0.00331880088202893
0.0127644670809765,-0.0106081402798232,0.0229685810408719,-0.00375039750432455
0.0155101332281081,-0.0208644679053213,0.0209439577303543,-0.00316964542979269
0.0154829685096764,-0.0524867765621663,0.0142137600827075,-0.00183752632910365
0.0126333963381254,-0.104729678592109,0.00792355209449317,-0.00013572046247034
0.00108054201533348,-0.130669212000679,0.00448350651573137,0.0017158666038527
-0.0114221559177416,-0.0873500491372101,0.00439830532477167,0.00299541355078941
-0.0182510783891672,-0.015877837960655,-0.000392490661855528,0.0030925847198581
-0.0217519237779103,0.022501338847303,-0.0122822230967095,0.00274636065147835
-0.0148464143508069,0.0190149532183907,-0.0200359245010264,0.00274363818280567
0.00814292803241965,0.00446452199270135,-0.0199866392709494,0.00246277647645113
0.032787057654023,0.00961861571433999,-0.022542656026915,0.00127424296674485
0.0428831519819658,0.0296094571316312,-0.027406176833394,-0.000308838089981286
0.0364102233695175,0.0340983225183973,-0.0248239804071854,-0.00159657068699847
0.0191973799617404,0.00985610747462108,-0.0167442030382966,-0.00252513165215167
0.0101491803675582,-0.0229691966913188,-0.00880487823254706,-0.00292878472518488
0.0217562981101892,-0.036395364358436,-0.0013372025451222,-0.0023414201884541
0.0370698036823737,-0.0203168919148678,0.00831856951916677,-0.00129944184618253
0.0384105081005534,0.00798884384361651,0.0167532635022024,-0.00129166093359578
0.0334661182873724,0.0225764199001749,0.018041879715214,-0.00258027380281203
0.0305949692451503,0.0225663520676964,0.0148941955603936,-0.00356484321807807
0.0218503003096412,0.0213088803216366,0.00873908061228727,-0.00291649684831452
0.0098400976667861,0.0170523116397127,-4.0137173848178e-05,-0.000908148879527011
0.00459331812141051,0.0072982765195959,-0.00475590949635272,0.00133086565557775
0.00365917065679044,0.000336969524145365,-0.00216847485957962,0.00252557525977553
0.000318804612672766,-0.00179204539233919,0.00111568990392751,0.00202036722755301
-0.00625815308943063,-0.012097861242324,0.000475170447823742,0.000397964053919351
-0.00975773917005547,-0.0443377036925404,-0.00100953546442217,-0.00126715359882866
-0.00543188559293691,-0.0716169700136848,-0.00124040763484479,-0.00211116540301905
0.00371566414572961,-0.0551128734357659,-0.000802554935450994,-0.00176597156795763
0.0146897399720009,-0.0111903012017196,-0.00207021765296479,-0.000743859321212637
0.0235838686059922,0.0219262924580954,-0.00490107485292212,0.0003403197814444
0.0237363249157435,0.0331751299108932,-0.00500145225772269,0.00111575138378862
0.0200390619486432,0.0314534824188864,-6.20039028337892e-05,0.00106288397301463
0.0230056293220621,0.0258037781184266,0.00841683770157314,5.54620332249502e-05
0.0308512652534893,0.02219211144248,0.0167842338983078,-0.00148211264913273
0.0352541308967027,0.0278759894699422,0.022520207548211,-0.00275802085247426
0.0348769697855901,0.0369696580729429,0.0237967242070539,-0.00296092493143807
0.0320164328900253,0.028448500996467,0.01451199126954,-0.00198609141738358
0.0272323336651024,0.00193831118420864,-0.00570974360101102,6.09042322270033e-05
0.0218010703875913,-0.0228815797652433,-0.0215814924721312,0.0030271353156442
0.0152878435913308,-0.0257779614172149,-0.0212201250617314,0.00567595988654975
0.00897558906234376,0.00432941191403921,-0.0108271410836544,0.00642252462476211
0.00515155427705939,0.0465575481333588,-0.000311517655927045,0.00480157972198604
0.00279205427671851,0.078049993842642,0.00580531444671957,0.00118282623477286
0.00540305579196947,0.0986458030293786,0.00384958292443702,-0.00361719027968026
0.0125456815049918,0.104456002018352,-0.00158042480867782,-0.0073352394583606
0.0145795633149145,0.0891935319840489,0.00113187233304161,-0.00753087789769197
0.0104498918856974,0.0616831938246016,0.0105987246813264,-0.00475230165806738
0.00834614381956079,0.0390579833972174,0.014731812126219,-0.0013651459543467
0.0069375656662279,0.0265515014690573,0.0110202543874063,0.00101997988053291
-0.00431595657302638,-0.00851680139135319,0.0043492096214003,0.00164258652692962
-0.0234667919580655,-0.0862345033426108,-0.00315545499786435,0.00112922328507752
-0.0337667493661139,-0.1610761247179,-0.010028628356253,0.000894439581162749
-0.026247461942994,-0.185630659388219,-0.0133428593520195,0.00157723327760062
-0.012379428226947,-0.139772341336086,-0.0095619968055112,0.0029845307721006
-0.0049755655900204,-0.0469869175104484,-0.00137311993639864,0.00390203538192615
0.00160165559547325,0.0227731968531736,0.0042076892626995,0.0030352483922304
0.0125835823296217,0.039114704372996,0.00600955805309127,0.000964679329103679
0.0190087332181555,0.0325369618016622,0.00768014546784053,-0.000464920628772405
0.0150032869119902,0.0286015678230212,0.0110777353629917,-0.000741873875299764
0.00423162857861628,0.020724506227356,0.0140300322171837,-0.000991003288064784
-0.00533771900720573,0.00254239601824715,0.015933186437809,-0.00165138952686636
-0.0106680615772335,-0.0207889562813121,0.0173532049691357,-0.00233420128454746
-0.0141953859839918,-0.0414708844889395,0.0162772988962594,-0.00263954383456822
-0.0146539769459591,-0.0532780463878147,0.0147085239189447,-0.00195642855680553
-0.0138435197287283,-0.0584753683831089,0.0162249566685694,-0.000528043330629867
-0.0145792863023456,-0.0582896356734485,0.0166192500473887,0.000657660844297981
-0.0138037870706367,-0.052070422895572,0.0104941484846905,0.00140104730498268
-0.0112836885323624,-0.039051468130626,-0.000831908125521485,0.00192123290248515
-0.00939243649240384,-0.0162234168238865,-0.0122639274072796,0.00205246061339999
-0.00872589496632345,0.0114853097515549,-0.0199326537786609,0.00142970901335103
-0.0108942526964576,0.0368573452559767,-0.0301998989893095,0.000383965030592461
-0.014772584127689,0.058292220482725,-0.0474551949658013,0.00013158570502879
-0.0169432589690984,0.0621481487561871,-0.0545804465842733,0.00124779358971078
-0.0184375245188643,0.0341657516529747,-0.0400502052599105,0.00273716977239418
-0.0172799667560607,-0.00908428796517999,-0.0182715973457866,0.00286170153751842
-0.0114994243811025,-0.0387494611622241,-0.00348756765499685,0.00108390553158782
-0.00658644934126863,-0.0457980461245039,0.00578548744920726,-0.00132900200778905
-0.00487721951789517,-0.0393086467701366,0.0128850513795753,-0.00265934117100061
-0.00249375537463447,-0.0284309465504597,0.0165667977503023,-0.0023496654112704
-0.00075820011153237,-0.0085158679601366,0.0158954327067529,-0.00128547638761029
0.00028089944544581,0.0265217097587329,0.0131967486481005,-0.000386799250464192
0.0117791544293146,0.0581796402861669,0.0125446032360259,-2.45617545622306e-05
0.0329451307983134,0.0637272510276779,0.0136122556926517,-6.40768103893474e-05
0.0481816393126164,0.0513546405597064,0.0146122486361979,-4.82148492612613e-05
0.0518321603964125,0.040735130376652,0.0144465477280496,-0.000243995091147907
0.0471247404884525,0.0270219700163849,0.0106553338904222,-0.00109644934522175
0.0315030687204556,0.00290202135516697,0.00414766143846097,-0.00196360870323967
0.00990538325708797,-0.0217179609999807,-0.00177296501573766,-0.00235488458831921
-0.0103226000521088,-0.0541200184898747,-0.00882196758561492,-0.00252885919980509
-0.0400123775914297,-0.101540673125383,-0.0145582965314858,-0.00195731370669382
-0.0749233997348606,-0.122327221082582,-0.0109711826012391,-0.000249204333448404
-0.0795460795343024,-0.0790751024093988,-0.00306480175169333,0.00148430683403531
-0.047901835510296,-0.0024992585602448,-0.00220708682000144,0.00257594966355579
-0.0259897366675695,0.0466000064525126,-0.0113649460761903,0.00296910647517419
-0.0333464368969243,0.0467878361971251,-0.021283061719999,0.00192309125450528
-0.0350519080528253,0.0379724397908625,-0.0193104893121854,0.000132252817869418
-0.00326085271129127,0.0527095603240027,-0.0090729801507496,9.85356219986365e-05
0.0438790331373027,0.0679241737101653,-0.00175666174694807,0.00253242009087293
0.062191601829756,0.0616293760225828,0.00272028785889122,0.00580809850081536
0.0404482038276151,0.0506044444491537,0.00634790435500764,0.00807044682826328
0.0130268362884597,0.0389007036029319,0.00247785851436376,0.00725897559074452
-0.000492338864354202,0.00603383259997267,-0.00687279368786524,0.00240458979092789
-0.00927000367616308,-0.0244357086819711,-0.00940625387200734,-0.00393262025432008
-0.0214908241011433,-0.0174070477866059,-0.00461665385807557,-0.00795329403442612
-0.0391570948866012,0.00492081384569179,0.000346115975817563,-0.00872732258314816
-0.0547011582640575,0.0123362014516145,0.00168995538857221,-0.0077544801392514
-0.052764269151161,0.00548887132488845,-0.000870110977334014,-0.00640822758646323
-0.0258562281998684,-0.00333541360939428,-0.00505412543380264,-0.00503880967473557
0.00545463423628445,-0.00723040895146774,-0.00829554193451902,-0.00309577645213677
0.0103016296447241,-0.018935983627497,-0.00683582686383821,-0.000660992185258926
-0.013177231895568,-0.0476284211364521,4.78017109499518e-05,0.00124071858732065
-0.0372981996174286,-0.0721706826158925,0.00514337262678047,0.00234932701081768
-0.0359386727901181,-0.0745231298786738,0.00155658132972393,0.00327862192923643
-0.014193112445654,-0.0575522415868933,-0.00181678356917565,0.0046117050828302
-0.000239881300089784,-0.0307575770290186,0.00424676112670023,0.00563425122445545
-0.00902076397979779,-0.00842018162594753,0.00992519473301074,0.00517127305413024
-0.0272086780727403,0.00259303371856026,0.00967342386361073,0.0045041943190053
-0.0385900277021016,0.00403422672207077,0.00885600449138127,0.00529619921513659
-0.038045115633972,0.0013123079556021,0.0062562831338452,0.00608716677239188
-0.0265037434346608,0.0059566929417528,0.00266762945808815,0.00481950201534003
-0.0235085890211771,0.0181264904046613,0.00119242425880134,0.0016600459811761
-0.0392310654679105,0.0237003464185567,-0.00320730163217403,-0.00220863968421327
-0.0460612515780143,0.0113719389751411,-0.0105020158177774,-0.00539449285138264
-0.0320494885656771,-0.0236352247897724,-0.0150389094676313,-0.0064378867497298
-0.0205987981900946,-0.0552638443006069,-0.0146655731759865,-0.00486213587127677
-0.0234354404866127,-0.038994143071873,-0.00907773480378843,-0.00172540305280864
-0.0229506275240282,0.0137323501693933,-0.00293184090555329,0.000820751344099096
-0.00602668540814282,0.0479954588854473,-0.000269601941134923,0.00148332645634056
0.0106275556501249,0.0418739990463615,0.000734963122531856,0.000968733437374858
0.0176315843678739,0.014823371336773,0.00287254622016932,0.000525347044997295
0.0219555167751728,-0.00876059630037072,0.00733884275483904,0.000563089533139463
0.020967948993596,-0.0149675129504776,0.0110652474433581,0.000491014701709586
0.0135648946817809,-0.0124626112778871,0.0107111944249895,-0.000239663583573162
0.00732694186901489,-0.0286800252480156,0.00674033306975297,-0.000942848319177882
0.000498985730472044,-0.0451925410498904,0.00156392679075941,-0.00062745889030485
-0.0172558931504606,-0.0395076487975535,-0.000829877014299511,0.000679771937273197
-0.0376414388354563,-0.0480365883145837,0.00145702892674976,0.00222904011539699
-0.0407162865915972,-0.0598455493795306,0.00424392290712999,0.00313478179616566
-0.0252038888329343,-0.038224840966463,0.00469528261392632,0.00295279280246661
-0.00814815429268995,-0.011364438389543,0.00472129328057906,0.00185456113366718
-0.000552914750138973,-0.00450865466741196,0.00400879782326688,0.000345242823885671
0.00574081504335719,-0.00703016958514961,0.00632394375755493,-0.000919953458712006
0.0154025103993366,-0.00571907144188398,0.015058741249747,-0.00178864668916512
0.0169365044672094,0.00410260032109516,0.0186710593163437,-0.00258901230397965
0.009523924157636,0.0187679446279678,0.00972547532771134,-0.0032040092595599
0.00490927607749262,0.0313767295800834,-0.00368586797995473,-0.00321578242063188
0.0121286249591897,0.0359200073917242,-0.0108450706791783,-0.00250965244469502
0.034204281903963,0.0286264340078851,-0.00881798591331502,-0.00137395247713858
0.0533066618871002,0.0103967330077626,-0.00414973880693523,-0.000335589009493118
0.0458796160401174,-0.00853193804406541,0.000275920795986442,0.000235549910796793
0.0236252326732588,-0.016240507693139,0.00631199197406542,0.000248848718856874
0.0145477755592869,-0.0108671658018985,0.00860746267718487,-0.000297012578829214
0.0183109923599286,-0.000267186866025821,-0.00112119082871447,-0.00102818413695317
0.0221022629127312,0.00175815808168698,-0.01480779280593,-0.000989467833897847
0.0245148171502902,-0.012559073974559,-0.0150710873839017,5.84501617940988e-05
0.0229916669790184,-0.036901810406382,-0.00361886071560371,0.00113831785523342
0.0159348453868235,-0.0653779194226341,0.00455344102305963,0.00153222741246934
0.0121569018276353,-0.0846263540670848,0.00473267677147169,0.0015024698623924
0.0152838461269426,-0.0759502679707959,0.000513348681505676,0.00117195693348554
0.0148447198244889,-0.0466405510619693,-0.00535518924641402,0.000168420806075201
0.00551058471570001,-0.013565730420397,-0.00981887600291316,-0.00131146194195554
-0.00682946845771255,0.0109402731174679,-0.0116118422149061,-0.00245168383802412
-0.0138595759228821,0.0154886405845488,-0.0108924397113652,-0.00282810400972434
-0.00710002045015401,0.00193023019621978,-0.0063567784300106,-0.00277878667708755
0.0102247735639263,-0.0117205912381297,-0.000484204075664841,-0.00254640909271582
0.0227730105578297,-0.00690541799552701,0.00367999294376931,-0.00213520176823068
0.0251231936142483,0.00536931157868549,0.0061916850263956,-0.00172015061626332
0.0241600908533745,0.0151980193500876,0.00523342642097127,-0.00139877899245178
0.0187464348562532,0.0388680805127572,-0.000406675969689059,-0.000975866432697213
0.00911113979475547,0.0634739573363794,-0.00387681110605157,-0.000213419913796338
0.00179175641854855,0.0673663356646945,0.00235829151075216,0.000631532292652897
-0.00150042633367597,0.066450817904108,0.0113292400963787,0.0008423811433514
0.00398011194465771,0.0811559355015859,0.015101766184255,0.000230610841837424
0.0222511377494581,0.104094636159237,0.0152477613254595,-0.000370711807590575
0.0410263797384899,0.105590136709008,0.0144402565579881,-9.0733533288161e-05
0.0448525935479495,0.0796217165211614,0.0126861637194977,0.00105194555259745
0.031878194346468,0.0391494627540814,0.00351858451559926,0.00227347300246917
0.00601792929995327,-0.0215762171330633,-0.0127649173686497,0.00288604347612314
-0.0165140975648249,-0.0713193450391903,-0.0258217740372713,0.0026156435456147
-0.0180980656172565,-0.0671347903328541,-0.0346156164413822,0.00181679210260211
-0.00436972425524665,-0.0395363339186602,-0.0406527252694253,0.00163653659165242
0.0106116990820299,-0.038237361020581,-0.0366453730273263,0.00268409021233801
0.0189449033397285,-0.0546266621038842,-0.0199964106109353,0.0037618345477007
0.019216895391833,-0.0382085553520403,-0.00124173694457703,0.0023727813735583
0.016118542501847,0.0166970455843963,0.00974406329938614,-0.0023701565259206
0.0127852774876314,0.0644143754458657,0.0126307209163005,-0.00750930760224033
0.0055838533903035,0.0798147058787701,0.00969688061665771,-0.00882650109325644
-0.0100329045257274,0.0660617816721785,0.00563669472759943,-0.00599642898843552
-0.0223000715784299,0.0415471609272701,0.00395304562908069,-0.00242264571411434
-0.0184003900139411,0.0378148515517261,0.00365336945041168,1.26390029841659e-05
-0.00987426798102898,0.0641410342003533,0.00406629044895463,0.00201907051625344
-0.0114808769759648,0.0860559612546317,0.00416268994902612,0.00436506934758694
-0.017364866558399,0.0777918887635012,0.00388677052415096,0.00673861957672111
-0.0149485554927755,0.0558562912732027,0.00434837982150337,0.00795885633681939
-0.00415867447130263,0.0356127084784021,0.00413042414746066,0.00696932396584901
0.00776022443413667,0.016204422270236,0.00144894788384309,0.00395680855440664
0.0128854373080063,-0.00907927078223048,-0.00297494891297518,0.000157146878066832
0.00631076030316208,-0.0697277730428222,-0.0082759166016268,-0.00285032086921676
-0.00422297520158503,-0.145483835393119,-0.0128121481731966,-0.00386387235353439
-0.00746174375333821,-0.143223490383491,-0.0119999643953415,-0.0032186847624869
-0.00270997585147601,-0.0685394204537234,-0.0053921520000018,-0.00216827081053341
0.00542078165114234,-0.016711446434257,-0.00137759413632846,-0.0014504546548429
0.00743897918835768,-0.0112093233350599,-0.00366586295890695,-0.00102053821023066
0.00166137864716248,-0.0179908928255161,-0.00506594168409935,-0.000481181349985162
-0.00175718002275224,-0.0190248592805903,-0.00325814958888502,0.000224760109979615
-0.00132076650436673,-0.0166918447870668,-0.00250805210410223,0.000758041796753985
-0.000156959275426936,-0.0151987081192459,-0.00320871139011684,0.000967790579906718
6.56284602364235e-05,-0.0130037324296548,-0.00397363007945471,0.00104353919645122
-0.00113435733116211,-0.0087534370550573,-0.00411525763881639,0.000877149599616077
-0.00243657618610597,-0.00733536830342398,-0.00303643488968478,0.000243752472383662
-0.00126085813995688,-0.00896971690286606,-0.00123409863432562,-0.000424272447474267
0.00547280724110803,-0.010419435863504,0.000784294745017573,-0.000580089687886942
0.0154049586363767,-0.0126799178741608,0.00366504205085277,-0.000367646381742368
0.0256810690204807,-0.0200480695933567,0.00853729589708872,-0.00043225260664049
0.0330701859293021,-0.033688790277961,0.0128019363243058,-0.000963550750876265
0.0303902495259093,-0.0458952231948582,0.0111648381717249,-0.00129170876606899
0.0145301119305336,-0.0535745477807878,0.00351643453281476,-0.00100044860378285
-0.00550959489353248,-0.0593056205795092,-0.0035497008594297,-0.000705433345954851
-0.0259477587631244,-0.0573458414138193,-0.00192915733204059,-0.000649937071888348
-0.0447894550104393,-0.0429639954162471,0.00732386981002463,-0.000296878681402518
-0.0442418078500829,-0.0244082676062018,0.0165556082912089,0.000346543633018468
-0.0248394456617356,-0.0136133274304993,0.022700621325061,0.000656756272512845
-0.0100879773726435,-0.0153585336399583,0.0217693845198214,0.000357601786581354
-0.00799967319122752,-0.0172166088979088,0.0136637425136578,0.000146260383986226
-0.012717168817074,-0.00722212026155532,0.00733213940274797,0.00056290118483979
-0.0194104635502443,-0.00205941341350051,0.00221413129703514,0.00107866538870971
-0.0198688345626136,-0.00975885463820384,-0.00602741353431368,0.00109557316000476
-0.010427198662147,-0.00963399727628933,-0.00924766867304253,0.000611645608863128
0.0010959521409075,-0.000194897877664031,-0.00534317637907378,-0.000265531666916549
0.00801842507710307,0.00246865918442355,-0.00140165419101485,-0.00153275604731829
0.0115223008871284,-0.000629251629114037,0.00255196527342083,-0.00296332418718845
0.0115287198280426,-0.00163968324188571,0.00663660851534588,-0.00403020540608892
0.00857737218835527,-0.00575804584929658,0.00922600911828897,-0.00401016969434264
0.00480392870980872,-0.0189420631109333,0.0114243475101963,-0.00236329742768013
-0.00269433211684241,-0.0291654865523699,0.01316116164473,0.000325792963092359
-0.0084333208592924,-0.0206640212767374,0.0167635182759216,0.00251696359842226
-0.00155708438931338,0.00109295954201799,0.0225581095712847,0.00335644307078928
0.00954611203145329,0.012264554702592,0.0237875722776744,0.00322374051953904
0.0135193208738792,0.00414518512639686,0.0171644493307338,0.00286049721739683
0.010460456178366,-0.00331510906022793,0.00674397320099893,0.00261923098646714
-0.00222531200650724,0.00453906197086868,-0.00228491242434431,0.00247524033236246
-0.0156432551031651,0.0201637021369124,-0.00613075577136001,0.00228841306669483
-0.0158024324812641,0.0317833195785846,-0.0032884302686511,0.00158514077123381
-0.00823560125966204,0.0328320251093247,0.00182230102017514,-1.09816884258092e-05
-0.00340446736424791,0.0297986385460131,0.00652643468430894,-0.00201795091682548
-0.00111551871442275,0.0315771683924355,0.0100654823225317,-0.00371438911300384
-0.000614876555663002,0.0285298253729189,0.00935239486525869,-0.00423291387592723
-0.00288868141017385,0.0149591805992068,0.00837700070092627,-0.00274876821067432
-0.00288577338137507,0.00197236924077547,0.0105659599702288,-0.000510264617905635
0.00116269503634057,-0.00841403189851188,0.0111718309515463,0.000112634987970111
0.00265671806700786,-0.0174638655920758,0.00539506143291041,-0.00104362774465172
-0.00177725403587746,-0.014472888326802,-0.00413747282272401,-0.00224225399659383
-0.00389946837656564,-0.00309123746991971,-0.00944898866267718,-0.00136038339420578
0.00549000413001477,0.0012657085896162,-0.00710283233191589,0.00239415842362315
0.0199393438909973,-0.00315440803031471,-0.00156872109995682,0.00587872414989924
0.0260492420930786,-0.00992726745689395,0.00109305453210096,0.00500860021590463
0.0269853717439047,-0.00689958828753051,0.00135384719922259,0.000648804762374019
0.0322921443765597,0.0137266566950106,0.00354400256379266,-0.00343405422627118
0.037079833477339,0.0408220415396123,0.00459785049312752,-0.00549240413062068
0.0347066722897873,0.0546532245065614,-0.00149726322078627,-0.00493190111694067
0.0203771287391368,0.0420424054785903,-0.0100791857502612,-0.00168502270014506
-0.00971434669563102,0.0207674985641611,-0.0131463818362026,0.00264492482985945
-0.0349648194040732,0.0247190700257588,-0.00816305276570142,0.00548803192021368
-0.0328054480393423,0.0463799454605092,0.000444461221182104,0.00442483209619061
-0.0201460999694971,0.0564314709616646,0.00592799036243767,-0.000370165185492525
-0.0211667604107874,0.0493775501584899,0.00618476290560967,-0.00427180702790619
-0.0300559285846664,0.0350469374268665,0.00329715073403737,-0.00298562095455761
-0.0276670048973789,0.0212660815514307,0.0035029550786477,0.0015337891394764
-0.0118194078205967,0.010581606294023,0.00979934097044865,0.00445924621442021
0.00539472826405432,0.00504109685472379,0.0175261543475706,0.00411367826914669
0.0274587419023924,0.0033670071241025,0.0167150826630042,0.0017070297871154
0.0485216028914428,-0.00825029413779089,0.00588009849903574,-0.000837400891491316
0.045083717858709,-0.0438063875698776,-0.000485340462803678,-0.00220239711499518
0.0264506578232217,-0.0716005411809348,0.00540985852898583,-0.0027668236351314
0.0138915409268155,-0.0514899844613525,0.015453121891869,-0.00354472936328146
0.00928198804632259,-0.0163139167838623,0.0194264453092737,-0.00447950884491352
0.00912708481351452,-0.0105986888668954,0.0161662464416115,-0.00483537584118213
0.0155789864250454,-0.0087128006835349,0.010148643558708,-0.0044037622305828
0.0338263833799812,0.0262151386259552,0.00400805779273974,-0.00354177982743913
0.0483143326160452,0.0690667727410153,-0.00396452099742879,-0.00223224478859938
0.0378926472354734,0.0828043333465119,-0.0215970586460601,-0.000121243649969076
0.0136180376131768,0.0508601642180547,-0.0415927800588045,0.00262763270959072
-0.00159233189504782,-0.0167196631935818,-0.0451851526615918,0.00525379609656872
0.000317478282474436,-0.0499055283794964,-0.0339222210929064,0.00704827773582832
0.00124448575313051,-0.0110709967017509,-0.0178815652148786,0.00753857280128989
-0.0225764505421495,0.0420604387190149,-0.00645316932544102,0.0060255629959175
-0.0524905075501192,0.055042633834332,-0.00493596805677576,0.00264924871735539
-0.0590626028167557,0.0326236878155913,-0.00391654377335001,-0.000454768359717714
-0.0473248517890624,0.000782404890857048,0.00177037943289568,-0.00122774653140174
-0.0341933274716491,-0.0197801023910185,0.00736449698557263,4.92128474077571e-05
-0.0237271398080493,-0.0217988832577384,0.0105310628060236,0.00169065947423263
-0.0153833306380899,-0.00841274599575752,0.011976289368379,0.00238453653133135
-0.0107163865150319,0.0142459186073818,0.0120376823343351,0.00177915800459735
-0.00664797268316222,0.0264846413115925,0.0105632319046526,0.00022335414262734
0.00125390952084178,0.0135885852974468,0.00887624535894757,-0.00171002420842515
0.0091719617430858,-0.0144912784593353,0.00668433990926573,-0.00308406730311342
0.0127461000507996,-0.0418786385001439,0.00341114089607796,-0.00317292988006314
0.0132058838960604,-0.0637211562978642,0.00364566610909295,-0.00235896997944363
0.0074815971858064,-0.0790987299199015,0.00888511177973158,-0.00111976554326019
0.00508282052808732,-0.0745963731439463,0.01589310235931,0.000479893681578929
0.018680533389491,-0.0427463199139375,0.0232744969402385,0.00184304251576822
0.0282579692104498,0.000650946493297652,0.0265498159513875,0.00233859062805297
0.0182242159615368,0.0321363159029078,0.0224313274773259,0.00227796275645846
0.00365987914819358,0.0389350988177433,0.0149850011579112,0.00227725038595948
-0.00384819593256661,0.0341228196125032,0.00890780744400045,0.00238199270494733
-0.00538006122281493,0.0405903105377263,0.00339171643355916,0.00240700019594331
-0.00957012891988523,0.0429170457173329,-0.00701280917188994,0.00244368154888537
-0.021227531051501,0.0222754546887628,-0.017560014971011,0.00252598537619755
-0.031743765296482,0.0135775872233818,-0.0222106660685244,0.00239526292200938
-0.0288876006935672,0.0408807466336118,-0.0306111914019263,0.00200793679915329
-0.0117933989701179,0.0575687890588514,-0.0441627711829504,0.00162326384774705
0.0004381318890068,0.0205532565360007,-0.0492587896829964,0.00134548011874907
0.00038334226875229,-0.0442123091062042,-0.0395863796319347,0.00129156342276574
0.00636155364256677,-0.0743187659460295,-0.0208074696762274,0.00157694213472756
0.0103330752909359,-0.0370233798909296,0.00101664197443837,0.0011440472727741
-0.0105704848700125,0.0223134779542943,0.0203868991633505,-0.00163064267410781
-0.0363326756038834,0.0525670023979816,0.0284479092829552,-0.00593750691659084
-0.0399786759930697,0.0620379032127699,0.0263529374878386,-0.00884889439558744
-0.0292422772757011,0.0708973502831025,0.0253075895335221,-0.00863414860321159
-0.0225703007002712,0.0792879881267398,0.0273397219646641,-0.0058886146455901
-0.023455962169689,0.0811644567577744,0.0237997937331863,-0.00246850935153489
-0.0391360880306272,0.0699378734079017,0.00948410597510627,0.000267845776007518
-0.0700586042954879,0.0182091246416343,-0.0072642455181659,0.00200635850475919
-0.08145256242796,-0.0830573949290872,-0.0154251559225556,0.00287647782280342
-0.0678865839846819,-0.147618066129582,-0.0157341943654351,0.00351388197334171
-0.0541271197173665,-0.110125780215048,-0.0153666652726769,0.00422673665603955
-0.0228522034667595,-0.0426490207195556,-0.01657845910463,0.00436790757678523
0.0344057343800058,-0.00617215576802264,-0.0152952651874913,0.00352207270736836
0.0648544993409061,0.0176557264226527,-0.0109731297443295,0.00191025710461054
0.035170515808704,0.026861771957291,-0.00663747873235714,2.24516040162777e-05
-0.00748173963234329,0.0157161395684185,-0.00259092128186859,-0.00167078453789574
-0.00997060134048645,0.0135126599613638,-0.000113462434955239,-0.00316490347583172
0.00744246440822382,0.0204431953723573,-0.00334416212642551,-0.00431156061134994
0.0061498427450571,0.0135527280511796,-0.0106306356688429,-0.00501101312423615
-0.0013697490454233,-0.000874164153321789,-0.0122831142780226,-0.0057043346016767
0.00165067918372652,-0.0114636506023001,-0.00857447190417875,-0.00626949990308061
0.00471182492632631,-0.00964334530937528,-0.00782038530947295,-0.00602752824230698
-0.00188803819313947,0.0081403547509362,-0.00963055030343839,-0.00458153209142013
-0.017461585916163,0.0204317319287386,-0.0102455639391887,-0.00227441490902497
-0.0249876763085894,0.0195162867162186,-0.00648314507807944,-0.000180050457537854
-0.0130581939663499,0.0202770270686926,2.33768944546556e-05,0.0011743346734351
0.00405804220268762,0.0263042197442062,0.00396611604236981,0.00264088089718594
0.0117997845819388,0.0336044515300759,0.00535043767747407,0.004465784362051
0.0131052225669143,0.0444864600478212,0.0042130776781659,0.00516458986159258
0.01320094590444,0.0599722214490312,-0.00312276370225019,0.00391376509429945
0.00492843859096517,0.0657135068900728,-0.0151451086857962,0.00179690402031622
-0.0119427032727038,0.0387809504611762,-0.0209614559853949,5.63176983885893e-05
-0.0213985463309728,-0.0200366531972451,-0.0160816597050153,-0.00107317879525184
-0.0175201539040771,-0.0774454216084834,-0.0105835150028428,-0.00154398791885017
-0.0088706583294482,-0.0909895665838245,-0.00767178969566476,-0.00126851855409444
-0.00274222312520491,-0.0551980824082825,-0.00214590146953027,-0.000645683864063888
-0.00166845352097418,-0.0369108446128558,0.00134046082202187,-0.000183216101728045
0.00293908233693373,-0.0645776434648829,-0.000540244693718698,-6.01492479002372e-05
0.0225729668083072,-0.0730000454772141,-0.00268791940234894,-0.000313303152052571
0.045495759837314,-0.0368429139444236,-0.00273582598373823,-0.00101517641641609
0.0532726831783865,0.00250155827652906,-0.00243614461571561,-0.00200052737054509
0.0486924025348829,0.0128986031170572,-0.00144846959890823,-0.00271674363137037
0.0376818438722376,-0.00399357877214906,0.00525545696285733,-0.0026630103535614
0.0255372433883946,-0.014969045626035,0.0173085470827248,-0.00190590653893246
0.0227679534095157,0.000765174023382716,0.0237751721953976,-0.000919085335677817
0.0233713995818724,0.0222872025901209,0.0183210307380496,0.000232868319715768
0.0103619942412957,0.0340016337451107,0.00727878391965739,0.00181765107789304
-0.00995738708254949,0.0300226160769532,-0.00125720599869673,0.00376138630625768
-0.0140686833328427,0.00527488049907969,-0.00320431919867612,0.00562625996028809
-0.00100161132326708,-0.0111502395090188,0.00252348501764993,0.00669640867658915
0.0123698862835312,-0.00555675168598287,0.011527135715014,0.00611985887386517
0.0219002307225031,-0.000164740982747848,0.016105856827934,0.00366263581442542
0.0309822218655039,0.00123380807592672,0.015682240167041,0.000568824466944083
0.0369433963968776,-5.02041684173025e-05,0.0152408711373167,-0.001636512788144
0.0337242644792627,-0.00600882815238857,0.0121232944209983,-0.00275808653133804
0.0220910401659412,-0.0106985837666919,0.000135529065682954,-0.00297377026606986
0.0118818884517785,-0.0144549399220603,-0.012193436334612,-0.00217384484422579
0.00938780759585257,-0.0187102457486211,-0.0126755999051798,-0.000704917379431763
0.0116871745753263,-0.0122034620872999,-0.00829981863776838,0.000525267019936318
0.00861205198531747,0.00579518664674466,-0.0071962653186159,0.00059192711681658
-0.00274602797738389,0.0137645723415693,-0.00403172626045707,-0.000509737909383093
-0.0103774735698257,0.00790514794067741,0.000710709939174618,-0.00168625297186581
-0.00630924511595784,0.0016804487794158,-0.000198553896646694,-0.00191158601272609
0.000568254860831899,-0.00018996944220155,-0.00414328896999097,-0.00125882818232346
-0.00124741215646853,-0.000242080147669143,-0.00579369987808201,-0.000466397493265676
-0.00662150243448794,-0.00457407724373861,-0.00505892227173477,0.000337777269746836
-0.00760692747158312,-0.0098805227079948,-0.000685917320384848,0.00133025555095889
-0.00543281769091514,-0.00863897463029508,0.00682535678463813,0.00192291166100919
-0.00183913553924287,-0.00554735222489652,0.0126077579204567,0.00149919331603711
-0.000202594419045497,-0.00929492177439314,0.0146976845301038,0.000576792466904052
-0.000497886096469282,-0.0171390275294673,0.0159422686278236,-0.000143196015904049
0.00584066681261106,-0.00958999888203074,0.0191207541784778,-0.000663976242795043
0.0115480269347002,0.013034856625535,0.023422686216645,-0.00103679110935628
0.00477121883013739,0.0175090314095306,0.0250035387934061,-0.00112383628826877
-0.00146877266190526,-0.000430115729550137,0.0228497541067674,-0.000639679425279418
0.00518184420720917,-0.0150386630976661,0.0179836843061463,0.00111378921769609
0.0186256088285793,-0.0172454426649018,0.0112919156129793,0.00444461591393094
0.024341053941968,-0.0129259064797743,0.00695046570401813,0.00723966369026798
0.0189594370164444,-0.00833810242297927,0.00824791669852569,0.00598837434545742
0.0169771503014702,-0.00198255613564683,0.0115721496580698,-0.000181642170634187
0.0231713399471905,-0.000156015986152256,0.00622031129947229,-0.00825288296349446
0.0226421909535937,-0.0264622420060699,-0.0131108538676252,-0.0131224694897137
0.00978457563988855,-0.0552640582992714,-0.0329008468797679,-0.0112015837887923
-0.00528604938581695,-0.0341076266669187,-0.0363935634586074,-0.00472005394743639
-0.0171413399511785,0.00347695943944851,-0.0201395822054735,0.000713669743310278
-0.0196713656899462,0.0127809156982923,0.00553491487906133,0.00296699120617351
-0.0125745230570821,0.00969688348480931,0.0220277438386518,0.00346582069815749
-0.0117385078454301,0.00585869425487617,0.0252527234779436,0.00330852171260093
-0.0158357810010131,0.00730405030662156,0.0244177868792097,0.00237981777285143
-0.00852830166790692,0.0119878376798612,0.0208712449103731,0.000849160652563627
0.00491143839003535,0.00515304065978486,0.0171212215734616,-0.000227667448463283
0.00821641208045197,-0.000752295478413728,0.01848024849539,-0.000347001553947354
-0.00120103288851216,0.00821188659410923,0.0223301571496333,1.20818595563468e-05
-0.0128558525990027,0.0162171576144241,0.0247822278262836,0.000511735103123848
-0.0183253035299351,0.0127352580863699,0.0256931500370397,0.000941854560257332
-0.019988846857574,0.0163440360130193,0.0226207536802683,0.0011174396171468
-0.0183227810325011,0.0252876891453839,0.0104576766939612,0.00111907549127344
-0.00728101664207554,0.00619312330427952,-0.00491198552564572,0.00142633373413827
0.00989904414345805,-0.027200645898977,-0.0119370964389633,0.0028088696737414
0.0210056167004952,-0.0384777465645877,-0.0121213203127698,0.00436249428476446
0.0182397374722715,-0.0261288292408187,-0.0123353130047919,0.0033039334831054
0.00728925567374198,0.00148622459852768,-0.0100322792127974,-0.00151840405784219
0.00203810747879675,0.0314177387506024,-0.00196945100864672,-0.00735696603248219
-0.00253287253473991,0.052182147024004,0.00715716721267067,-0.00959032000728901
-0.00948875668429363,0.062776183225525,0.0119476122315873,-0.00641237876373639
-0.00232089962961891,0.0632267162246268,0.00674227722570931,-0.000831358376130985
0.00687581290781925,0.0502588205280654,-0.00518781701924107,0.00294323302729176
-0.000750140578135911,0.0200243304212592,-0.00860823770645065,0.0033345957647367
-0.00326310138924342,-0.0117955713989915,-0.000886660996478252,0.00105765499370334
0.0130792059797512,-0.0365340002961814,0.00440189013170751,-0.00238246689721414
0.0249877957749232,-0.0665717716581243,-0.00101767148006615,-0.00476613078191354
0.0180966624506247,-0.0740743272402737,-0.00893919116787669,-0.00366712420707719
0.00453536080556525,-0.0301274892208676,-0.00835573545379657,0.00120666390371524
-0.000950094307169747,0.0238990088209363,-0.00268548758784503,0.00671927689026484
-0.00293985272681488,0.0413299250122034,0.00114243788143033,0.00933237343467197
-0.0144590328262449,0.0323309497573435,0.001328460018163,0.0084144871853496
-0.0277782770705973,0.0294235327747499,-0.0019219165669817,0.00549962338024119
-0.0313113500125147,0.0359679599108375,-0.00434785426045312,0.00221402581784425
-0.0337275627170027,0.0391029538114905,-0.00555112507943421,-0.000443570965949599
-0.040157288995181,0.0426102800669339,-0.0072968779406295,-0.00179275065482351
-0.0394699014613855,0.0473594945439884,-0.00617403636958591,-0.00211930859395695
-0.0273574954768859,0.0413659112003646,-0.00225883177380592,-0.00320376993665179
-0.0144412070806865,0.0239029204339431,0.000187061562654821,-0.00557223295539982
-0.00493538294815466,0.0129464411432876,0.000741539579794852,-0.00710926760419736
0.00414791312683854,0.0140834621997188,-0.00202044997137703,-0.00614025204351262
0.00816414318483672,0.00587048353446436,-0.00867314852690218,-0.00335343011542216
0.00701152212962578,-0.0270094915240593,-0.0150090778809344,-0.000211177963383065
0.00720031372732345,-0.0567287177417867,-0.0188739525618935,0.00251223734204374
0.00722659247174684,-0.0451717172026276,-0.0178283661804526,0.00433468861905273
0.0029971684318331,-0.00908599271188212,-0.0117629769573051,0.00511833827654589
0.00115175871964708,0.0175059955774601,-0.00538428393704144,0.00448539203048836
0.00829300046746237,0.0330677339989609,-0.00244919843296627,0.00200076179145461
0.0127098613659957,0.0391395354669655,-0.00295875616833699,-0.000765803996733377
0.00848023384123154,0.0314410699587658,-0.00332304422267249,-0.00166873200046175
0.0104443100422971,0.0197598375813542,-0.00157357730186158,-0.000652114155970563
0.0180322529517872,0.0114333815660161,-0.000213116449563233,0.000868204504929134
0.0115541384198052,0.000926287233524607,-0.0022222240664069,0.00167884773124896
-0.00933009950170291,-0.00807345856075913,-0.00568888299058335,0.00151320371685244
-0.0232514566449225,-0.0102008279255306,-0.00706807914069352,0.000813919863697781
-0.0168321571409382,-0.00990628873348519,-0.00835167046241304,6.97799222406808e-05
0.000174409104665279,-0.00763503715230353,-0.0112221114204794,-0.000508856390827382
0.00880587273633477,-0.000928599887362505,-0.01050674257523,-0.000851981365363518
0.00627773013335215,0.0083404097497735,-0.00378336810471667,-0.0011165715950681
0.00101130068788095,0.0152665589058354,0.00508057149039179,-0.0015822299874611
0.000757962340634109,0.0177659193290431,0.0128669685091009,-0.00211949805314496
0.0083248842951159,0.0155182702655581,0.0169446496169294,-0.00194107807446045
0.0102563253643137,0.0126804818289691,0.0206420236287983,-0.000536400959507846
-0.000192444304745742,0.0178024314238087,0.0259338951567927,0.000845728975749356
-0.00839083729351549,0.0288811933972166,0.0250959222209031,0.00110924659379757
-0.0102176325822034,0.0454982035955794,0.018068716869919,0.00110765085337449
-0.0128781600378539,0.0565068437019304,0.00994158659399507,0.00156623043548887
-0.0141381440495478,0.0388174999968158,0.00368534775654263,0.00229689376327053
-0.0170478845763905,0.0133336596386112,0.00529242424150436,0.00256836296555094
-0.0307433357276735,0.00836160696736807,0.0119133848199672,0.00117117487086905
-0.0375837208844395,-0.0161067342109642,0.0145644517221005,-0.00222959279640811
-0.0151053646781975,-0.0831832429459754,0.0113622526555818,-0.00600903005843175
0.0140210202411326,-0.108367843109141,0.00113878917765334,-0.00721394342878174
0.0201597566831367,-0.0775364492073687,-0.0144412233502035,-0.00437566964285647
0.0211994802285689,-0.0892687333964643,-0.0253134459898547,0.000578394574701371
0.0376762215514222,-0.115987033345593,-0.0236649108855672,0.00473702387175388
0.0440460429224078,-0.0763005096566645,-0.0129598161797347,0.0066354010604444
0.0183332031743307,-0.0149486482280127,-0.0014202231986574,0.00611251460037774
-0.0068174756943062,0.0116197663546919,0.00992463618411062,0.00394842961450895
-0.00366903702167851,0.0184727253733514,0.0210123932340845,0.00119150584252197
0.00160121657575541,0.0309426628452666,0.025518230279119,-0.00111550362663106
-0.00691277736742793,0.047686050888125,0.0234972425259049,-0.00201568307624649
-0.0068927212768815,0.0555109074121418,0.0203800134786909,-0.00156987491387166
0.0077737767695097,0.0541006882590688,0.0139022923021041,-0.000589721286429037
0.0173775439511118,0.0477303697026743,-0.00153206728354529,0.00047354668065778
0.0138706956476407,0.0357258614471711,-0.0194361947346445,0.00153847825269247
0.00425541365247376,0.0256950320514441,-0.0227307024491033,0.00225502506453067
-0.00058120919758484,0.0273956570058329,-0.00921820206178752,0.00220185662420869
0.00295372220933757,0.0371127669135954,0.00146719327884756,0.00132454365605419
0.003926551127983,0.0461272207127225,-0.00243428467060739,-7.15148558014782e-05
-0.00118656330836429,0.0392670507039286,-0.00668041381660123,-0.00153880760864106
-0.00359717791367948,0.00409370481938373,0.000332836925251661,-0.00317900630014269
0.00132915761679539,-0.0377148958251118,0.00817646355288467,-0.00495249378671755
0.00534470287225162,-0.0584761789727064,0.0074716494418286,-0.00544013848203331
0.00210823160721562,-0.0649656231040072,0.00165779998283462,-0.00356839321064949
0.000463791028658003,-0.072122365989036,-0.00527948414012714,-0.000323339222977334
-0.00140493261519339,-0.0959395991237796,-0.0140022720963161,0.00275584967721838
-0.0104812222051533,-0.126619312766673,-0.0214226088129748,0.00471750270543231
-0.0157764748488081,-0.105313095619588,-0.0217701458768131,0.00490374352301617
-0.0108134344345481,-0.0311973201630501,-0.0178566569642488,0.00296664857615486
-0.0022778745440927,0.0299794489869265,-0.0159568361585153,-8.87551260061767e-05
0.00495931971051742,0.0548290206880376,-0.0170465977790676,-0.00181938544016244
0.00516212350180559,0.0542507952617941,-0.0174879854041019,-0.00115407518804646
-0.00252466502065295,0.0348434935475485,-0.014727225324579,0.000714047605087763
-0.0107963507242224,0.0144584590498394,-0.0104299587236969,0.00205093065803665
-0.0155428121158107,0.0111307783998726,-0.00663507350863931,0.00136136254710388
-0.0123477593565757,0.0158566357683378,-0.00388684921939817,-0.00115821504707867
-0.00449511681816851,0.0120266841609146,-0.00210132661480493,-0.00344805754377773
-0.00357816828476771,-0.00369393440227681,-0.00286732809953223,-0.0042057892672969
-0.00870054315464126,-0.0180100171478181,-0.00759183027207065,-0.00300595295473116
-0.014452318923761,-0.0157511534448368,-0.00789757061413254,0.000489825801288806
-0.0168111639420042,0.000731068654063444,0.00575129124228324,0.00454579826405287
-0.00609138618006066,0.0208949790922337,0.0223664899164523,0.00608504980195142
0.0132467532496905,0.0305263790150544,0.0283458796378776,0.00429386426979713
0.0237965654390327,0.0293150085084478,0.0249000241433215,0.000751280873136917
0.0247237044728621,0.0277586919762338,0.0178529917443829,-0.00262295115807369
0.0267597407165951,0.0261144398143523,0.0139306501355499,-0.00462305213203255
0.0317900706537714,0.0230087708074026,0.015107665604727,-0.00509757808514716
0.0264073048503735,0.0103091051547198,0.0162837306601056,-0.00468436318253042
-0.00205926285083414,-0.00547565715980342,0.00978500343737908,-0.00402243378814768
-0.0435089264907461,-0.0143091287594454,-0.00891459900376521,-0.00302442302969308
-0.0709722500763748,-0.0561482449470328,-0.0326248186131644,-0.00127021817572067
-0.0597319585606412,-0.126573253793555,-0.046386401144883,0.00124158103204807
-0.0181509925948041,-0.128873005112888,-0.0426430428750193,0.00380264654360043
0.0218403580243601,-0.0463414595408644,-0.0276152003619129,0.00531687806598112
0.0482265538095511,0.0325479490501543,-0.0140465690150189,0.00524784541660635
0.0517045624490428,0.0619563881402796,-0.00466197842443166,0.00373532030332123
0.0230302354968429,0.0571387837296927,0.00502404512403657,0.00124493551735953
-0.00777649130353573,0.0448637211840887,0.0117981554850052,-0.00144586708865153
-0.0109432749743577,0.0386404465569454,0.0090069710552187,-0.00334606950286799
-0.00395258678841861,0.0298802693810628,0.000705183903792645,-0.00378834783577853
-0.00785886889717206,0.0110187187244399,-0.000733648987237271,-0.00294094537000205
-0.013240625461814,-0.0112982477570492,0.006402429233257,-0.00166133574088537
-0.00827587827063824,-0.0310330985396329,0.0160181691232743,-0.000705905022734566
-0.00193586049626976,-0.0384143428958624,0.0232182580783861,-8.81953616159821e-05
-0.00165371284579676,-0.0253090416722796,0.0232029358650104,0.000601447231123687
-0.000632404666834844,-0.0047555405791144,0.0162440230889028,0.0013566302954982
0.00581791212966147,0.00637040134312426,0.00575397610496048,0.00185725100577183
0.0166023541560599,0.00562498615740104,-0.0036104721402619,0.00181739668318776
0.0237822799667353,0.00229188202312668,-0.00722134635885547,0.00130139078410127
0.0258112748267438,0.00451801407684721,-0.00508620272759337,0.000613568606213617
0.0331386732265115,0.0146122068229624,-0.000644370064656462,-0.000372455463314186
0.0388042441596694,0.0313932704278828,0.00183988242845776,-0.00139719680922899
0.0286220558312108,0.0376083892188448,-0.00207238092633233,-0.0020181063951051
0.00634543428675707,0.0112369619632504,-0.0146900256409874,-0.00217832374725996
-0.0156718635021388,-0.023265455242958,-0.0304986589797623,-0.001626474994644
-0.0250110342902407,-0.0231552692677621,-0.037382325441991,-0.000428749502383771
-0.0163301452079185,-0.00670220378765086,-0.0336146989669998,0.00132546852298424
-0.00354805671036842,-0.0123998114916491,-0.0281115989235968,0.00394050868418609
-0.00513179690636538,-0.0263836411926704,-0.0221371233280301,0.00628880434645852
-0.01239833771554,-0.0239080376563229,-0.0148794636627193,0.00597995322794744
-0.0111599922707206,-0.0168295759495047,-0.0102249433166298,0.00265992514628912
-0.00551281197381893,-0.0110786477605537,-0.00859260678940425,-0.00117218551410626
0.00223597192394805,0.00350449057921946,-0.00730824375185375,-0.00306240650277418
0.0153767576532199,0.020571826186004,-0.00476989564532675,-0.00293106925881457
0.0258438726412464,0.0309006939243222,-0.000310906347674207,-0.00185290729123046
0.0242619293450869,0.0324516213461681,0.00305601773541334,-0.000475349499231417
0.0152940175186891,0.0255815137256505,0.00196403625358553,0.000774835077225472
0.0041340447418151,0.0141740237692252,-0.00125921466482348,0.00158410231504548
-0.00924632882363418,0.00162047171897499,-0.00525740531054472,0.00134814894833131
-0.0176663272227218,-0.00807988635706859,-0.00986902165615437,-0.000194532077670405
-0.0140242702669263,-0.0117349934760117,-0.0124149080862046,-0.00197223573115436
-0.00646546914196897,-0.00913529192185112,-0.0127273181366261,-0.00297123934343022
-0.000765791284428526,-0.00109190922458167,-0.00997438641764054,-0.00331057152705955
0.00600678807610559,0.00614913043824806,-0.005087114758861,-0.00311541224747208
0.0104852255867975,0.0097752144826904,-0.00191447964958954,-0.00191780951657014
0.0113383851620445,0.0147338460525249,0.00112760909028667,0.00018499485669784
0.0101095057114238,0.0174666869219141,0.00548838220611376,0.0020332389090651
0.00431263584459806,0.00762117808342018,0.00467710144447121,0.00266811219601276
-0.00416226305671758,-0.00932458496628029,-0.0041926276369764,0.00254913886337133
-0.0105722381132986,-0.0171424939110174,-0.0100743369341153,0.00263879211117176
-0.0111854324053404,-0.0176398005067097,-0.00814116373508281,0.00262564160834849
-0.00470097669671005,-0.0180704349370935,-0.00645959195259502,0.00149622694756655
0.0069446472998094,-0.0140194787265979,-0.00774388494897619,-0.000583480363030214
0.0163768507607475,-0.00608374324241103,-0.00882683964416249,-0.00269197252825508
0.017654327521482,-0.00238150943268411,-0.00710327016004883,-0.00415778729910281
0.0148722491755822,-0.00492202355765397,-0.00436992387682622,-0.00398921525170639
0.0103622299938222,-0.00610763019487195,-0.00343131314338817,-0.00175947237319196
0.00320169988892537,-0.00197264563082457,-0.00102096941817123,0.00108851213092111
-0.00319324891908879,0.00181715177693379,0.00401467017372019,0.00276707294741746
-0.00575419241364975,0.00250248105839762,0.00758707635935948,0.00316768793010884
-0.00578534677207187,0.00359474343133412,0.00763693864683513,0.00288262228393806
-0.0098455964984103,0.00720305169072567,0.00710203225087856,0.00184605583854867
-0.0212793342887019,0.00958764516199497,0.00755706510644816,0.000378947462730025
-0.0262081059641195,0.00892726956854854,0.00648824548904575,-0.000419576095687397
-0.0109808542230058,0.00826472431172271,0.0039184442722497,-0.0001121918425763
0.0142226454587114,0.010577589257187,0.00109677200473275,0.000862052246150502
0.0285295748564364,0.0158471473746933,-0.000238432598923513,0.00213429386353971
0.0228133955966343,0.0182487587658844,0.000650974082890029,0.0017314558823602
0.00888507219355262,0.0175461062344786,0.000154304831930987,-0.00362952312913816
0.00489294323064075,0.0171752857008346,-0.00216214814518302,-0.0122214144530746
0.00706356122699275,0.0061799362487839,-0.00413259161253904,-0.0166771874583067
-0.0031266111669535,-0.0208627742366147,-0.00488911912884795,-0.0127069614502052
-0.0223124450819007,-0.0401441251544598,-0.00300040340473059,-0.00326440947286794
-0.0280906909690353,-0.0320972042105349,0.00132663160566724,0.0056483632912717
-0.0153683439693939,-0.00501449678647569,0.00689852200745604,0.0100024562026204
0.00195160225669687,0.0227318425993052,0.00944670628403605,0.00994775826064593
0.0135496814647488,0.0327111040735129,0.00691567242885414,0.00825933032826681
0.0158700085714183,0.0324322594480163,0.00464501926949031,0.00633826946768255
0.00873901632791623,0.0424673770749409,0.0040479593209006,0.0026064213019639
-0.000453498054409224,0.0522412377453906,0.00115262907271051,-0.00295302655430306
-0.00568926123522873,0.0531320863929986,-0.00364231143579967,-0.00587698830888195
-0.0103950543859646,0.0596283349210874,-0.00568698785335428,-0.00317464122228036
-0.0146466603217412,0.0647008037641176,-0.000278717024933205,0.00227352887407013
-0.0121663723854182,0.0422975806120764,0.0158339217167993,0.00564464354854423
-0.00551479177340218,0.00372462096251931,0.0344052543388483,0.00532312214199906
-0.00456815956816161,-0.0163669284147056,0.0416561042517227,0.00276753603950486
-0.00950116374617329,-0.0224038583321178,0.0379481604235615,-0.000966026813520854
-0.0168320979078656,-0.0567221323101282,0.0294045097020833,-0.0052362965436902
-0.0255441284373101,-0.119833406246505,0.0201751101100802,-0.00809958803627559
-0.0310945115412517,-0.138916851418166,0.0138474769751436,-0.00840216422684388
-0.0353093025535642,-0.0868324362736634,0.00804365767591272,-0.00740674099584744
-0.0384961670610852,-0.0265242993853733,0.00399143294066147,-0.00650568532393756
-0.0339911899494296,0.00882966737831556,0.00728359446688924,-0.00516872528085644
-0.024249535996703,0.0441394421512199,0.00806328489247417,-0.00215447836544316
-0.019227902092715,0.0892217854250865,-0.0087623440133691,0.00230470155871885
-0.0214057003447237,0.0944281725461427,-0.0280554850343757,0.00641293940098744
-0.0176906909657114,0.0321464063287369,-0.0277665790427871,0.0084959375914136
-0.00379704964606572,-0.0191161358986095,-0.0180952461946414,0.00835217594148901
0.00577488266793746,-0.0140640985820704,-0.00871448239556807,0.00684262948222368
0.00691115330555734,-0.011345551189746,0.000581103989630988,0.00489784636312876
0.00998777970755661,-0.0233124063670255,0.00298520547271502,0.00311714561167673
0.0161773525795045,0.00233104433777908,0.0011215056785854,0.00179432172708658
0.0118963126871243,0.0525929894979908,0.00177926494047163,0.0011147042877058
-0.00157033934181281,0.0751101631535295,0.00455184729673107,0.00117814196351114
9.30616805654844e-06,0.0665335464396582,0.00841472533809799,0.00116976747792756
0.0195750404515035,0.0464022513803686,0.0107125813793421,-0.000568997487612433
0.0281206584806826,0.0240534885156012,0.00954405523365479,-0.00387745455060299
0.016727615349201,0.0035613750283416,0.00825479555135656,-0.00624617330437143
0.00830476988998032,-0.00853094269344237,0.00722863987371644,-0.0061853460832015
0.00982314673814155,-0.0134597465394917,0.00185634819607603,-0.00426517391132627
0.00570126511980734,-0.0247908056699592,-0.0067748120554209,-0.00152024724913726
-0.0126345228443241,-0.0461371473026874,-0.0105172866148079,0.00108885048706133
-0.0389452700824961,-0.0656524705294174,-0.0108935221621578,0.00286448954608494
-0.0537644833617664,-0.0648700209439841,-0.0158411171315027,0.00382615753858028
-0.0402121066240102,-0.0397237133218913,-0.0188382683604942,0.00447460083297434
-0.0164185160752652,-0.0125368601816448,-0.013553752994827,0.00472240124619503
-0.0138767326418375,0.00626397673755629,-0.00885705868997359,0.0040910450356982
-0.0230407168903247,0.026410778381264,-0.00893520192436395,0.00284514965671279
-0.0178446763504033,0.045366575599652,-0.00893626659184722,0.00160344737804665
-0.000221133404243699,0.0581939472787637,-0.00912596433799489,0.000765681834410925
0.0129098486144152,0.0618757587611594,-0.0119768846324847,0.000346875122112129
0.0162158381350094,0.0534736461280231,-0.0116838856410495,-0.000280485751177463
0.0176138383735973,0.0465463178120736,-0.00409449006959926,-0.00175235597774601
0.0175815868313498,0.0443712406813026,0.00100798881638835,-0.00375438727659027
0.0104124981846934,0.0358520783752395,-0.00244966040310414,-0.00494341733659163
0.00774662505146516,0.0240763431831075,-0.00872668006744336,-0.00443179522381643
0.014277919460412,0.0169179998479561,-0.0142186643728535,-0.00257153884452249
0.008560133005132,0.0015724329640695,-0.018782612339425,-0.000109280096757152
-0.00814695054496795,-0.0441696733282547,-0.0216386246350171,0.00219637412245316
-0.012567300172806,-0.0822013250420525,-0.0201218612919562,0.00371752422542633
-0.00605939114994083,-0.0527967028928853,-0.0140370439311395,0.00421057755795509
0.00197215429434841,0.0040896774666849,-0.00817382540424251,0.00380917715181724
0.0106873222832879,0.0213731440233532,-0.00486721990398324,0.00282908202171953
0.010988165226377,0.00838321685946988,-0.0032355704655214,0.00164213195580877
0.000588796328557168,-0.00361563796516817,-0.001585955917345,0.000358099984498141
-0.00948251472708238,-0.00705719188453847,0.000606813226185516,-0.00111795268484208
-0.0160325284675523,-0.00588242102201481,0.00181863261477029,-0.002508357856635
-0.0195550891411071,-0.00504120792404468,0.00232969199560732,-0.00330995117003669
-0.0179118556187865,-0.00705624206542274,0.00353580387031508,-0.00317092395521071
-0.0143804310833513,-0.00979016037541162,0.00543749795666242,-0.00234180911003908
-0.0131294832129148,-0.0113057407255368,0.00677457947723045,-0.00159665909490104
-0.0149633680549644,-0.00807762070574245,0.00719387924373102,-0.00132365996641087
-0.0160396032696886,0.00364074936775364,0.00719814602951139,-0.00133783005762072
-0.0109887332582872,0.0164200959238,0.0075844031353267,-0.0013633126540065
-0.00217521931730654,0.0202741121918442,0.0100319059938985,-0.00142044841412276
0.00355558411691862,0.0134069720014496,0.0141584881895888,-0.0017108819817747
0.00373964705144192,0.00205809780985212,0.0174287333319299,-0.00244198305846952
0.000299185824088128,-0.00657154694033586,0.0187837810651604,-0.00367371929040462
-0.00209723003388094,-0.0134908168704694,0.0179806796073823,-0.00495924338298191
0.00336880446739467,-0.0132089475174526,0.0130875972902144,-0.00537449904960188
0.015867495897564,0.00648765971773275,0.00558133491477935,-0.00423777696273518
0.0287162715662763,0.0167139146703406,-0.000397613153883376,-0.00148719536505275
0.0399446621742272,-0.0129308116187128,-0.00203129295280091,0.00286426807742452
0.0505354717358692,-0.0389460930070298,0.00512733707271636,0.00808118383441849
0.0587647089137206,-0.0227798493338752,0.0180744338227898,0.0112803181992108
0.0572051801107606,0.000394800917959826,0.0296856529488216,0.00954387686397785
0.0423350183092168,-0.00502414118962532,0.0380693060102663,0.00379509864342671
0.0256850751045865,-0.0204389406795959,0.0400230207073105,-0.00190608109155702
0.0140744792794235,-0.0313027178807095,0.03582495661164,-0.00476041104072678
-0.00970017421332643,-0.0661878632137233,0.0272356764535672,-0.00514993509739477
-0.0478747684520264,-0.135793768256951,0.0107856276676049,-0.00437819444348341
-0.070782179540242,-0.184210489669981,-0.00466131517740762,-0.00275054962024216
-0.0648251729466607,-0.143136650418562,-0.00354036220126551,-0.000684895088436668
-0.0437938209723047,-0.0272457923564734,0.0067677157508118,0.000599623359491837
-0.0211893262437241,0.0897811809579958,0.0076772109520042,0.000364876884632659
-0.00122845893203923,0.155516743550513,-0.00700286822876243,-0.000538669517661643
0.014882548855319,0.163687683038007,-0.0308700362689377,-0.000299609777727833
0.0274913470897575,0.138907398831273,-0.044710669468356,0.00152050456231439
0.0346265291620469,0.0943705663310972,-0.0313437855010892,0.00321176820259212
0.0341750852276108,0.0444523187107773,-0.00281374964025117,0.0030425704812379
0.0300012148145198,0.0133720273855032,0.0174348395510097,0.00132332453222014
0.0275896071850372,-0.00188703536265138,0.0248551582429224,-0.000484093698964283
0.0284445283790108,-0.0192431639256561,0.0236308755123538,-0.00162755990683218
0.021807077785798,-0.041116234810935,0.017875220415657,-0.00193779000265285
-0.0048558265287965,-0.0816753029813296,0.0125673733112702,-0.00144511965597554
-0.0385416886441381,-0.148535462688792,0.007917315406248,-0.000427561489935602
-0.0515245979542176,-0.17717773120764,0.00317861224937582,0.000748425184772451
-0.0321673351238334,-0.125452844398486,0.000203867036801322,0.00182358096010758
0.0111020862595104,-0.0528449674246796,0.000198384516591529,0.00277373077005777
0.0518366612648155,-0.0130315623044439,0.00324637547092297,0.00333056513566368
0.0581579784443511,0.000648496166426163,0.00759277998878216,0.00332480498137482
0.026960763295921,0.00788069913853216,0.0118602660671115,0.0029902051833442
-0.0142747044015214,0.0125818702746601,0.0135909545235124,0.00218708696654483
-0.0437177866603166,0.00554066563064236,0.0104921799898912,0.000899076206693378
-0.0514641183099918,-0.0176446318665763,0.00744610615310561,-0.000585620330484433
-0.0371544008713494,-0.0443717703011149,0.00995827368598582,-0.00196538621873861
-0.0169492426150849,-0.0556097448758483,0.0169332253529871,-0.00263566763000166
-0.00504474558338633,-0.0444798819469383,0.0232663239151011,-0.00260004018460057
0.00162955552128164,-0.0165894098431019,0.0255132755128327,-0.00233619168889961
0.00859620611818495,0.0105098953731104,0.0207895855353028,-0.00125545330717207
0.00810340061521832,0.00313203942428614,0.00203968327457352,0.00129728682804653
-0.0107351765307373,-0.0345858092675316,-0.0228715539602547,0.00455474876740905
-0.0261859845905149,-0.0546337561134098,-0.0298415022717285,0.00695438645506762
-0.00488947052086343,-0.045246822762741,-0.0221222529885871,0.00677343716604814
0.0240709918165762,-0.0209841724499536,-0.0221604329078678,0.00364577120458575
0.0187273861824461,0.0196797784497182,-0.024705399835128,-0.000443586336846463
-0.00118731186620151,0.0606772587660713,-0.0198699191008701,-0.00394527236175131
-0.0110601699336881,0.0659470675303605,-0.015989864348931,-0.00703857751153252
-0.0127394535204664,0.03662864169345,-0.0121083679151832,-0.00970684427618939
-0.00504210667945445,0.00501056928790182,-0.00284502163041144,-0.0105512935449294
0.00435811752576195,-0.0115590885243046,0.00462402943082012,-0.00770876135340604
0.000549128705404485,-0.0156788027253081,0.0059383411888844,-0.001755580426678
-0.00527406137679175,-0.0210506185059866,0.00704658790215802,0.00392384405109762
0.00335062894175904,-0.0352244843844827,0.0118476630463319,0.00614971124137221
0.0124802950460503,-0.0501497406288301,0.0171395624278595,0.00442962494268142
0.00901883511530331,-0.0594608044358268,0.0208729567176065,0.00130151145416599
0.00640618736373407,-0.0563947261108191,0.0235456989527795,-0.000333963107792381
0.0129219112191244,-0.0371427493893792,0.0219744449189428,3.91541674257424e-05
0.0181763200043508,-0.0162076113078309,0.0170049379027119,0.00139801975456948
0.0147534416899498,-0.00421908395032117,0.0148120696487778,0.00255677785008492
0.00527487703611854,0.00312372447289314,0.0146995396204773,0.00220314661198937
-0.00549166551592393,0.00347760633043991,0.0121903772484645,-4.12215626557394e-05
-0.0159959795188307,-0.00306111425889124,0.00897540235589301,-0.00304185142965445
-0.0222205027337707,0.00185133519656871,0.00409354650405636,-0.00524219516905162
-0.018546216500494,0.0315383871513761,-0.00846397286483517,-0.00535652120261022
-0.00930412896976446,0.0673621793086373,-0.0262741952825641,-0.00291957110456884
-0.000791315606897929,0.0791112265543257,-0.0380999172893762,0.000813117536974058
0.0102026774489886,0.0687899047194498,-0.0387719854654978,0.00350661649741751
0.0261254050110693,0.0548838242487771,-0.0343096587373992,0.00391436944152116
0.0362274405243617,0.0412239087862184,-0.0241285940969735,0.00270427839241653
0.0323031339088922,0.0252410648433776,-0.005642487860986,0.00105779318319683
0.0241914451528526,0.00928432794018302,0.0117964891599684,-0.00066053105227331
0.0217199348325094,0.00379306300835624,0.0181976746896304,-0.00242281628606656
0.0116093208557871,0.00984537217544184,0.0116999928514571,-0.00345098388945528
-0.0180069527202088,-0.00389547598348443,-0.000210778000071224,-0.00264684701095127
-0.0443573384318818,-0.0404655588674292,-0.00992566024001205,3.17174998847843e-05
-0.0463374033070158,-0.0501583165828393,-0.015784609835548,0.00298323337343723
-0.0312324210031911,-0.0192349043185877,-0.0151982886755946,0.00396064416836111
-0.0105483555917491,0.0212913819321725,-0.00998967222733059,0.00260897468197008
0.00342060026310997,0.043206612819492,-0.00731259726295493,0.000763329136449975
0.00394335904589361,0.0445654355098587,-0.0103980752254699,-0.000305165382500349
0.0013434213742718,0.0449362234974348,-0.0185866973761044,-0.000808081021073863
0.0037492722691758,0.0476735148509885,-0.0245013485009158,-0.00112898557839093
0.00726553870108611,0.0369710118164225,-0.0225797218288664,-0.000963939805594167
0.00651583050786756,0.0154884685689207,-0.0160158228121129,5.56861417359523e-05
0.00205076059193284,-0.000805939101316856,-0.0092670056105376,0.00155603478687889
0.000270638796651094,-0.0121094670783473,-0.00584296738869139,0.00271583666286985
0.00293527274013077,-0.0227466450243168,-0.0034206969351593,0.00264375134508426
0.00506853436773152,-0.0289141845396498,-0.00113976795398651,0.000770977986814613
0.00222476770708555,-0.0265427187565843,-0.00203488503672238,-0.002027004063236
-0.00615118767456997,-0.0189679562435246,-0.00442316145802082,-0.00349441934908278
-0.0130210217614208,-0.00775552311508068,-0.00723562041207962,-0.00264387865281319
-0.0116034931322396,0.00465365565471194,-0.00973413368430414,-0.000560012447132738
-0.00338121251071374,0.00858258287499664,-0.010025855654357,0.0015123255820632
0.00728329832794625,0.00627726915949942,-0.00955072529002246,0.00303088554268504
0.0151956520405861,0.00718567804445046,-0.00875469982991168,0.00361004907087671
0.0169959052050648,0.0129220917475665,-0.00552899532749673,0.00211364413579365
0.0128028010807666,0.0218157223721491,-0.000294911722235598,-0.00167408129951035
0.00174764256828592,0.0283135619626798,0.00420681250477249,-0.00459631723585233
-0.00862705053929566,0.0251276042236372,0.00476305986133999,-0.00325113397293617
-0.0094310352117812,0.0171644055434764,-0.000392061684924491,0.00125517623762473
-0.00921632500822402,0.00963567621403278,-0.00732118157798948,0.00491310608229463
-0.0159187230310205,-0.0107541945005646,-0.00979290645809424,0.00555465088108701
-0.0215429471285521,-0.0344195163021917,-0.00905523369231686,0.00396401378565471
-0.0146215583136155,-0.0246543342554808,-0.0085652342022971,0.00175064217669863
0.000822548102623194,0.0151231019793787,-0.00683596586429859,-0.000186990501871086
0.00922299621199136,0.0436588864167862,-0.00312062952227319,-0.00167929042814382
0.00996827091377051,0.0449894642032467,0.00261687173949518,-0.0028453971388677
0.0134661187420211,0.0391423793826617,0.00795641765894517,-0.00336605728895713
0.0182776819556105,0.0421095552421507,0.00804257971815646,-0.00260971501150447
0.0175837729192004,0.0429194820936753,0.0051650194231688,-0.000782291652168286
0.00885008516718901,0.02139304822505,0.00336978907410213,0.00122462694287545
-0.00635441878208996,-0.0220226035617713,0.00133411727549736,0.00279619224394013
-0.0183363743008098,-0.0568295385835936,0.0014317683246914,0.00305729471676853
-0.0208253794474956,-0.0510771347286671,0.0053736716165541,0.000442404262631218
-0.020978643090686,-0.0235094785819195,0.00709842491613483,-0.00538726649989941
-0.0254701762902767,-0.0219407114338586,0.00135331488839789,-0.0112961016794298
-0.0263588090970842,-0.0478640036596147,-0.00904982070259621,-0.0123895294710994
-0.015266448621909,-0.0635107125980385,-0.0133767067500607,-0.00724067403749092
-0.000721404829526588,-0.0539735622713821,-0.00778433820249286,0.00100166761653264
0.00627738987417448,-0.0281406167848702,-0.00323667527753345,0.00820428905811005
0.00697132146206223,0.00582251848293019,-0.00390564524683683,0.0119330623850713
0.00794685873888615,0.0374649253208258,0.000324702818296352,0.0120042596199802
0.0107264070699353,0.0543994045964311,0.00943089405879137,0.0086901640549546
0.00941101387726317,0.0470749123716152,0.0159953785270271,0.00256970089567867
0.0024749521860907,0.0219745190132673,0.0214609822745072,-0.00381796618494623
-0.00250066714210519,0.0045169307527954,0.0260406022441319,-0.0081849754026645
-0.00470961240323931,0.00717603517970069,0.0253548469645207,-0.0100651670420827
-0.00732052408250051,0.013830794905116,0.0194705075192734,-0.00928582596489179
-0.00721786199838971,0.00700363460763035,0.0119413883665388,-0.00596303992935127
-0.00583773334918709,-0.00923782478630532,0.00401851633847533,-0.000899762313268155
-0.00685859689625151,-0.0308224254863381,-0.00330696844444937,0.00430090659377659
-0.0107816761072634,-0.0697359885669563,-0.00689966731465241,0.00737239286307571
-0.0117083404306784,-0.0954369580666379,-0.00310604749531678,0.00693204079071188
0.00138271513220766,-0.059111848747944,0.00323647446871381,0.00372500978538591
0.0158470503281962,0.00524783719691704,-0.000867865104829463,1.53083505512542e-05
0.00821362514576921,0.0359248401767139,-0.01563793250832,-0.00206418575544871
-0.0113306034985077,0.0283281632351624,-0.021932163569815,-0.00209348106924284
-0.0191926164358977,0.00402123354052913,-0.0107176151806621,-0.00141596151819866
-0.0187927003039886,-0.0172316507900827,0.00153287766956311,-0.00109036614681409
-0.0215278976321004,-0.015628673024535,0.00841688745744607,-0.0010556465534101
-0.0243630985296874,0.00315583701175595,0.0162895881130374,-0.00176343789276269
-0.0269216243593079,0.00892208641346642,0.0178387787530947,-0.00342490798623019
-0.023017063684665,-0.00520472228905892,0.0111425461716335,-0.00441039326440545
0.00255120104312594,-0.0200784041607356,0.00572183365045506,-0.00347525814653775
0.029581264721611,-0.0320724741124655,0.00199785349176615,-0.00112545794350251
0.030376943226866,-0.0548661400014434,-0.0041437966101789,0.00149822471874781
0.0261855709930824,-0.0627326801243759,-0.00936999446173972,0.00338649473524137
0.0335491849339493,-0.0148602244734449,-0.00982574379048275,0.003993945410074
0.0358115064391968,0.0518562137579627,-0.00716487395440656,0.0027210766186094
0.0334811166859506,0.0773930396732513,-0.00378158099861879,-0.000403004636254366
0.038701215045011,0.0618253778314564,-0.00116213719061311,-0.00336147621005761
0.0475748747878779,0.0333626168877312,0.00382150251958703,-0.00424146456414113
0.05082744800976,0.0120755502918374,0.011330706430425,-0.00327514731722321
0.0379771266786587,0.000977583606535458,0.0143773610776487,-0.00185130140980346
-0.00548615211585893,-0.0176533088085521,0.0102023594070774,-0.000324537727541769
-0.0539330756133173,-0.0465722809995825,0.00160212401358177,0.00244766418400584
-0.0571551255752337,-0.054761747471301,-0.00526861011771122,0.00654915050110872
-0.0384481221273614,-0.0380133048448702,-0.00444613325711253,0.00968120041274012
-0.0424021229182793,-0.0221301673245625,0.00270613102434568,0.00926892730637941
-0.0513614522009106,-0.00819506634994106,0.00997502078226769,0.00505977442203641
-0.0403736602723802,0.00854764763142543,0.0170431497189127,-0.000825034975835829
-0.0158316917959178,0.0244495833342118,0.0222429718649424,-0.005554908554405
0.00544063506552777,0.0381197168613713,0.0238654364909903,-0.00743321563667384
0.0178367926432158,0.0480675448350257,0.029682383102358,-0.00680627276165149
0.0242433814555791,0.047270023263162,0.0387014962532479,-0.00534127657213143
0.0253875247342326,0.0262994002366464,0.041148014836983,-0.0043799124504571
0.0213037562128565,0.00143058479552557,0.0381169977082335,-0.00398456646271089
0.0144029488909733,-0.0337504139292878,0.0351795625646485,-0.00347406873197035
0.00894508530635042,-0.0852913897009373,0.0284974574390093,-0.0021296899830993
0.00610722128946061,-0.0859022365200377,0.0115004737955521,0.000936157719721217
0.00762382991949396,-0.0184241707989387,-0.00987697912719791,0.005952136489032
0.0132928931152562,0.0536969144811016,-0.0221394141308803,0.0107748061610438
0.0107678278142339,0.104805724383474,-0.0264063102158445,0.01265502588334
-0.0056931225637453,0.109612092857759,-0.0299990877678025,0.0110314118988153
-0.0196858298963025,0.0479060826155944,-0.0306461268801189,0.00750088011512133
-0.0169443638959621,-0.0125109937682811,-0.0234209445075298,0.0042495517778485
-0.00606114275243796,-0.0168533753222786,-0.00467921136913507,0.00183708496366527
-0.00367939099512058,-0.00800558261336961,0.0140985214054451,-0.00033188882301988
-0.00950405229022895,-0.0256948238580145,0.01658502126656,-0.00197794828626561
-0.00673018233894039,-0.0292314012376231,0.0105061855896967,-0.00278111646179881
0.00884608251849354,0.00316725896978294,0.0083686259711841,-0.00335698445728904
0.0164891585146,0.0167065012387035,0.00664560844519542,-0.00407879600647609
0.00699936858446065,-0.0151633375186109,0.00276543078842867,-0.00470281786554974
-0.00138728757226982,-0.0398830834106967,0.00273270580825616,-0.00472672883521147
-1.75114292572387e-05,-0.0186429587014638,0.00634301658532414,-0.00317461134009262
-0.00156284247647526,0.0100762593373619,0.00679938342682442,0.00014110005082082
-0.0121352683063989,0.00772196200426677,0.00386325570161773,0.00348106016784953
-0.0272119058124769,-0.00564484921789993,0.00128885154347546,0.00501954658791864
-0.0444762741931171,-0.00204866776739837,-0.000590078966479217,0.00439223903688732
-0.056242525876216,0.0108379371796861,-0.0023260362994955,0.00219123608305763
-0.0569820899274613,0.0199315433270813,-0.00356396038490666,-5.29821460465826e-05
-0.0543613212854655,0.0271299719388636,-0.00287546666276289,-0.000972819911025929
-0.0457184638070834,0.0327512840205036,-0.00174560974474348,-0.000840318436420075
-0.0197541420297037,0.0367946127910163,-0.00561892509127351,-0.000230476619086988
0.0120106911664357,0.0391068070852274,-0.0129164156595382,0.00102839043243174
0.024143795391624,0.0357839144229082,-0.0156194802449803,0.00273173429754559
0.0216083263645399,0.0246815678044968,-0.0135193578385689,0.0038644868893264
0.0298148317288768,0.0124497881092602,-0.0121231618773325,0.00372865815511654
0.0361019259114746,0.0174571817517659,-0.0118109186226627,0.00271354902275992
0.014904148477376,0.0359969143706357,-0.00996417995080108,0.00136810673168786
-0.0166350061980179,0.0421812215695146,-0.00783458682401693,-0.000180823276132941
-0.0328030425291661,0.0304912777513634,-0.0100930420000256,-0.00154168620595194
-0.036946627427161,0.011413154598335,-0.0165295512607836,-0.00217273674593036
-0.0232450375089117,-0.00325512108794317,-0.0223455590340555,-0.00208716170830343
0.00555627857565814,-0.00443132380312784,-0.0222227654558267,-0.00191164841113557
0.00921282450874967,-0.00538216473541409,-0.0150954840547695,-0.00209176354829048
-0.0130865183766961,-0.0316877973724408,-0.0107386601323969,-0.00248454443494289
-0.0196295357467402,-0.0741722124827133,-0.0153413750731578,-0.00273874121490024
-0.000357609719284937,-0.0914369110234735,-0.0176412416596999,-0.00256892317408408
0.0274430112184623,-0.0664298736419475,-0.00998126254260901,-0.00202404432155147
0.0499137954862172,-0.0211467175613588,-0.000119817341107196,-0.00155393612944765
0.0534837986989066,0.0155438877395331,0.00609876516856733,-0.00164753100637784
0.0329591804343428,0.0246680109199813,0.00780563497487935,-0.00231283006044384
0.00439282769233591,0.0121298875877847,0.00542362608990747,-0.00288010923530183
-0.013272248310024,0.00481897057302147,0.00379888747516632,-0.0027778781965171
-0.0173432758769968,0.0141971603765122,0.00415602787966099,-0.00213874396496049
-0.0160688711034268,0.0303304851660659,0.00526414912112865,-0.00148584307405892
-0.0133452119383181,0.0365129360856588,0.00985515595912679,-0.00131344983543217
-0.00255306980036018,0.0239321597300446,0.0136277724854981,-0.00171440390647647
0.0151479179437361,0.00665584358223478,0.0102266786844695,-0.00201602436779161
0.0235757124603613,0.00391154415566118,0.00369050307633969,-0.0014651602196542
0.0168865837899163,0.0113054868191745,-0.0043476733563152,-0.00038203017263574
0.00785291161137201,0.0128658365159768,-0.0163556922242841,0.000442513414283283
0.00754147248236619,0.00614354257108078,-0.021413512362749,0.000760489197385069
0.0145910775742026,-0.00231796173600559,-0.0121661717946618,0.00062258178330845
0.0193327487726175,-0.00214166109714473,0.000511750362504365,8.50457834594826e-05
0.019375655641614,0.006029585258152,0.00802034406287601,-0.000766693081229515
0.0201933030494574,0.00700834759306917,0.0120460303481319,-0.00145523935168139
0.0236736657867016,0.00224813725629722,0.0171584549932933,-0.00126412875402551
0.0293047798596017,-0.00117514959756201,0.0212608805495197,-0.000242895689382727
0.0312359271594998,-0.00628582947841413,0.018321917808166,0.000936402189690888
0.0280863823065038,-0.00984650552671938,0.0125473512424913,0.00149665134211549
0.0281048425340143,-0.00922414963498452,0.0113059915910478,0.000982010511812384
0.0302090687203513,-0.0122692586446045,0.0107909819487084,-0.000375008531020099
0.0271388948906393,-0.0294856091740081,0.00420195820319255,-0.00216848070145864
0.0209403225887139,-0.0647445219504005,-0.00481089594643108,-0.00367758774432385
0.0170429415047574,-0.0766298244754017,-0.0105484946042819,-0.00360680718769115
0.0156314435536881,-0.020540623189082,-0.0188221397929134,-0.0014405189604576
0.0125248451770074,0.0509346525003139,-0.0291479897728078,0.0015702718497728
0.0057151058136657,0.0691493030800125,-0.0252434856292309,0.003579141961945
-0.00204296831188567,0.0463090313235832,-0.00751069590733821,0.00375183444500402
-0.00486233358237892,0.0229349226720569,0.00572902958589539,0.00276859182696931
-0.000248485711074636,0.0202259951968707,0.0100658609256223,0.00173652789232294
0.00792383688927207,0.031770363223042,0.0138139312098732,0.0010148946430278
0.0220915861677829,0.0336855774368702,0.0220037246725012,0.000315434355521469
0.0406666700821432,0.0190406031968503,0.0299159604874517,-0.000837574586773922
0.0474651077414124,0.000335424346969471,0.0299505094342447,-0.00225221980876773
0.0393460734408709,-0.0144093142600467,0.0231447331085964,-0.00307660541574618
0.0266205212779661,-0.0235744564298787,0.0155139615559559,-0.00246019947444126
0.0133331606094666,-0.0325059092905134,0.0100594131341544,-0.000308124261138348
0.00478689174931488,-0.0385301592852045,0.00746733504707814,0.00179487281979692
-0.000671490604817832,-0.0223175952071186,0.00763589994916023,0.0023093676000128
-0.0160395286019083,0.00970023927028407,0.00731769098629429,0.0016386421133716
-0.0365740512221455,0.0256425582008503,0.00250378039857498,0.000983089823363651
-0.0467085180361618,0.00582491878746668,-0.00716515716276764,0.00105734261561998
-0.0385836799378666,-0.0147188864964206,-0.0198213435055845,0.00198154866083739
-0.0208161594961088,0.014458382760426,-0.0298648405400217,0.00341369006428574
-0.020390545293246,0.0597714117153568,-0.0314872258556691,0.00425100605215047
-0.028489889795772,0.0667146542536294,-0.0278805717328967,0.00365429402579491
-0.0107976780741562,0.0400506757003669,-0.0218487844668123,0.00270808842628645
0.0171761580839547,0.012327909397285,-0.0114821790300806,0.0017310542140003
0.0242135474463183,-0.00424189492587346,0.000269434445196975,-0.00104066381951581
0.0169333068242628,-0.0160195802639288,0.00886624577523719,-0.00460480377539255
0.00890812755678215,-0.0236348667504528,0.0132442204031288,-0.00540752838216111
0.00121424107268225,-0.0271537264990924,0.0139976364127235,-0.00321561078424774
-0.0055706029519512,-0.0238092844277502,0.0134996819068758,-0.000359057967141655
-0.00906149754055145,-0.0155965241276225,0.0140844126676647,0.00209703391523472
-0.00887577942218812,-0.0104220738488766,0.0146942600391466,0.00386880884843126
-0.00700444643487824,-0.00954850900705727,0.0121082026112261,0.00457891053665681
-0.00614954947453955,-0.00909120167755939,0.00630072567698385,0.00390003991167644
-0.00668890476208338,-0.00753585664039762,0.00159326967973063,0.0016711614238419
-0.00424327056009223,-0.0052834127845517,-0.0018231275855937,-0.00141929605921982
-6.75364922805644e-05,0.000500372791775151,-0.00610575129182557,-0.00375563494871642
0.000384682755382413,0.0100138374823579,-0.00977828085627377,-0.00422317823076471
0.000138501764534238,0.0217483035019402,-0.0135234362289826,-0.00306548250342798
0.00149691920179338,0.0286997366192236,-0.0166871291512387,-0.00127263957669825
0.000408492561995794,0.028387711229251,-0.0161178400267109,0.000283931419196461
-0.00171664602995324,0.0287855974515011,-0.0142502400388107,0.00118049479394631
-0.00170030737207069,0.0278731680515685,-0.0106217873023335,0.00132364131672605
0.000552568549738883,0.0289699809113803,-0.00274972808493166,0.000834991506134586
0.00451906790277154,0.0376438754467609,0.00380112420788823,-0.000143334253366672
0.00093056923817875,0.0448903183901071,0.00781586611146559,-0.000952622965412065
-0.0166970259470482,0.0482197176211325,0.0134655165282888,-0.000888182597987358
-0.0284154136966601,0.0423406739127927,0.014476893651403,0.000214582640029371
-0.0171041941679331,0.0198545710653706,0.00769108906912442,0.00262912080640549
-0.00100696959388057,0.00152074338775378,0.00165906927301916,0.00510075314596762
-0.00109906218100817,0.00191122903367322,-0.00169616975796677,0.00517212765829343
-0.0100060845429192,-0.0190707030790557,-0.00616542746503549,0.00253188171617723
-0.0072850892337089,-0.0690543730763948,-0.0131483775885266,-0.000619290386834562
0.006646388428476,-0.0762369906217272,-0.0199680588806079,-0.00159948768840298
0.0166860165035124,-0.0282302618523812,-0.0230896960225132,-0.000488741445911468
0.0175194293809822,0.0144907876494562,-0.0230481183308322,-0.000213100947181987
0.00974302450643611,0.033041908936657,-0.0181643605104099,-0.00208125226718879
0.000581108458085174,0.037414197097259,-0.0097331007831131,-0.00415331224448538
-0.00275657574409698,0.0172252741867212,-0.0045226861978661,-0.0038608461954747
-0.00387774475855496,-0.0163317926933877,-0.00293863287681835,-0.00073533648826999
-0.00724831899010451,-0.0187251403753063,0.000441545393353018,0.00315240573895557
-0.0106109937251667,0.0121701520736113,0.00639767326692396,0.00505542315472852
-0.0104482289560802,0.0358960016805646,0.00797446383101478,0.00377212048209596
-0.0113366418146865,0.0391888798953847,0.00454803086503508,0.000207854909381536
-0.0139336729474904,0.0296449149991149,0.00143597648066789,-0.00350805658201009
-0.0103639658878384,0.0121301006828896,0.000229287259524811,-0.00503124301765456
-0.00254861737973374,-0.00370437959634961,0.000763153320575161,-0.00371951875438569
0.000246323296066785,-0.0127792866599553,0.00117626034194574,-0.00127616057882387
-0.00297770702345879,-0.0164595919269855,0.00107919435522958,0.000527287473601534
-0.00621721453799843,-0.0171431494741496,0.000533395421573062,0.00134052672424651
-0.00503022413751936,-0.0168011258989571,-0.00183127567931332,0.0014318430270448
0.00131612443113782,-0.0149082418038724,-0.00410367674509776,0.000838650856933129
0.00919231177294304,-0.01349395792115,-0.00469114523245059,-9.0063443652727e-05
0.0137230587900075,-0.0139649794950871,-0.00410441621884934,-0.000702340254742728
0.0125013853183572,-0.0156729575071188,-0.0027720604881425,-0.000756200019282295
0.00804545056053346,-0.0174692205843125,-0.00163720960288772,-0.000523656022221166
0.00964357880264508,-0.0149416819885945,-0.000990995619740181,-0.000426849903507076
0.0190161544356716,-0.0103418413333845,-0.00146363464515922,-0.000490476136169961
0.0235702876988833,-0.010077801588069,-0.00251610021912802,-0.000454993009361485
0.0202378730953881,-0.011912956337784,-0.00207635926068739,-0.00048756092929351
0.0152723131054349,-0.0126261366936021,-0.00294902749591812,-0.000857511927069027
0.00629496563185943,-0.0146068271749601,-0.00857841677649861,-0.00106795857468269
-0.0111196649960936,-0.0134496273752368,-0.00959157512302785,-0.000682882847211582
-0.0290763281347054,-0.00716024356443394,-0.00184957342824604,-0.000775104750759252
-0.0377694158606542,-0.00944414155526647,0.00155445783424348,-0.00207964949722717
-0.0419118530287366,-0.026196242784598,-0.00278367037546298,-0.00283215580447872
-0.0441744477891903,-0.0453538067024861,-0.00575683954958154,-0.00159078935233891
-0.0383082110144253,-0.0526756319195598,-0.00319417066275393,0.000550396326345668
-0.0286054905861572,-0.0422911444266421,0.00353200909009807,0.00211010797086326
-0.0212482777684265,-0.0263031812017167,0.00893867550895677,0.00266129936886002
-0.0114550857813471,-0.024029340802002,0.00929121534051187,0.00227932490029658
0.00246293535866578,-0.0293642189429785,0.0100205490498802,0.00113837370973286
0.0149303093738945,-0.018950411720185,0.0149472367291407,-0.000279870796307207
0.0217526950934142,0.0190504367537081,0.0234157633771628,-0.00167781302435931
0.0206150754883328,0.0788700572384633,0.0323017194854576,-0.00352649593114466
0.0126800285026265,0.130792281238186,0.0315589586650635,-0.00530620358383009
0.00497732632770753,0.144610879253375,0.0195836211663019,-0.00540203879409947
0.00292630820170967,0.134446643171158,0.00697882202867505,-0.00353299062807159
0.00450194054575046,0.125523215341898,-0.00179616851943371,-0.000901451969747931
0.00316120263803707,0.10969689292709,-0.00659623926874005,0.00118259134687296
-0.00936668278199102,0.0780604192614624,-0.00414041769132102,0.00220843424943443
-0.0346405660897299,0.0335841223153279,0.00461963084504603,0.00238611314121101
-0.0626812981761369,-0.0330968324831884,0.0111177440592146,0.00204471445231867
-0.0824556659974744,-0.116875677757495,0.00458878137907037,0.0017640076402464
-0.0813777249769785,-0.16870755914813,-0.0150500485515216,0.00200271844328768
-0.0524505682399127,-0.164258845491933,-0.0312582335059723,0.00268117540990971
-0.0111106136199944,-0.111394374697962,-0.0291757254093316,0.00349146832762383
0.0273862533439342,-0.0172655602346247,-0.011685856047789,0.00384760950832028
0.0650012167211883,0.06515844249527,0.00720919129103091,0.00330443420157044
0.0898484891837607,0.0936844141688809,0.0170121329924381,0.00195853128740419
0.081874729884336,0.074563199700253,0.0152132313870243,0.000209999248956144
0.0487772243935371,0.0212224085386125,0.00647824673252147,-0.00111805832321896
0.0206525286950962,-0.0158187994907151,6.847981343794e-05,-0.00131867083500807
0.00572987580577962,-0.00751065303214142,-0.000552759332355338,-0.000631112083764423
-0.0212658668858836,-0.0080354374967366,0.000676321993824516,0.00032668092127083
-0.0565971442482528,-0.0350507905626118,-0.000108061953424964,0.000770242271799033
-0.063151792248598,-0.0372592468224434,-0.00109284114278728,-0.000619531899771663
-0.0406943638030611,-0.00847760074316171,0.000904995003800181,-0.00423957947524024
-0.0210446814775537,0.0162811781397304,0.00227709287756648,-0.00760376643572239
-0.0170566353910092,0.0245089942133001,-0.000834993260599142,-0.00737348801451406
-0.0185138716215891,0.0226386641502504,-0.0072021110630433,-0.00330780202265916
-0.0156870987894332,0.020588126766245,-0.0125360388326863,0.00203056352624069
-0.00584876894711523,0.0142233490755352,-0.0119036618640899,0.00596361479667295
0.0097109764261574,0.00116080309085799,-0.00906538226594895,0.00724093291576315
0.0202026257247768,-0.00188280081187062,-0.0120770651348914,0.00640757419004328
0.0153942306389989,0.00630231290688666,-0.0196711130514263,0.00482956211307591
0.00494241506984942,0.0107119613081256,-0.0288886159011762,0.00346157496077164
0.00467762350946716,0.00626559068894944,-0.0339833142342601,0.00228651653704722
0.0148367288269991,-0.00466466935745387,-0.0290486002823154,0.000989367948552512
0.024846331941078,-0.0167157768244033,-0.0216405049067443,-0.000312556174802797
0.0251780620875483,-0.0281508503151639,-0.0167086176193099,-0.00139359826497261
0.0220655222706191,-0.0416152226214782,-0.0113113430565996,-0.00221881376888498
0.0319271244948137,-0.0494197020082292,-0.00730869676880947,-0.00286883281075962
0.0494796463862336,-0.0452747175737013,-0.0054805450827737,-0.00314379231396056
0.0519360189156903,-0.040470911969755,-0.00309868903592387,-0.00278024637724456
0.0367887391174506,-0.0401993268542606,-0.00120771647056095,-0.0018528837388376
0.0158745328103309,-0.0405746698659498,-0.000270069494847498,-0.000687080555964169
-0.00476144119394335,-0.0531281369163174,0.00170469112086414,0.000252268405212021
-0.0134271283594754,-0.0675264188036412,0.00360150214782503,0.000872253305934585
-0.00421915622831006,-0.0516790008954551,0.00358954448224529,0.00162484078832221
0.00567695084335011,-0.0214054964297899,0.0038137965815481,0.00251243617161091
0.00502718461951774,-0.011818387699191,0.00506605399067097,0.00262987578449964
-0.00115186753785426,-0.0166470049456654,0.00441809693100936,0.0012076998579092
-0.00664961749198186,-0.0101943433367,-0.000326992287389426,-0.00100884471915304
-0.00539572177957755,0.00970515602459782,-0.00703497002123068,-0.00233199619789458
0.00255861504264351,0.0203000496067624,-0.0102976385416192,-0.00217185997884827
0.0121777843654841,0.0151486927285666,-0.0113948516172511,-0.00120982908223874
0.0164686079144979,0.0204485084770634,-0.0148310804572292,-0.000533369041920854
0.0149169396133632,0.0389648357193908,-0.01527307738387,-0.00076586355980437
0.0152320329505447,0.0435080727058728,-0.00613856951057762,-0.00127028380149946
0.0183615070904468,0.0375888751374271,0.00542981696669318,-0.00139866478417435
0.0221524823834468,0.0382583188659253,0.00951580417966491,-0.00130126745463472
0.023631332316676,0.033533951037358,0.00652762331327152,-0.000222311130228536
0.0183790925117066,0.00713926598961794,0.00350401147421678,0.00258758498958421
0.0119410789416544,-0.0185455779485699,0.00566294348085346,0.00522784621061668
0.0100925173772554,-0.013504778534159,0.00998015290068082,0.00519805174942229
0.00867100750179263,0.00915068734347495,0.0103615176702551,0.00282279126552523
0.00325061553792571,0.0231231865111785,0.00800462701860738,0.00017490837615547
-0.00538326849283675,0.00615665821317251,0.0060112052643949,-0.00151466706341056
-0.0116764339539274,-0.051483955738674,0.00327303911675471,-0.00211068678443699
-0.0102352842079251,-0.0990112274761321,0.000635347106819151,-0.00175206537994521
-0.00456358754221374,-0.0842924802939842,0.000170830330951145,-0.000818146721123896
-0.002238899746161,-0.0333003470665635,0.00116746796671195,-0.000158642390459066
-0.00467928279263275,0.00924056961762777,0.000990115687683781,-0.000190479358583385
-0.00963403902536248,0.0302466046652114,-0.00148276939795108,-0.000348072928505787
-0.0105709052787222,0.0325260902662075,-0.0042923693727523,0.000119486999103732
-0.00370212830618507,0.0238519236149896,-0.00525338328175001,0.0011082534973483
0.00636033306511417,0.0122212140806857,-0.00279987098700183,0.00150064627129559
0.0147556797673414,0.00315951239357389,0.00329117848064153,0.000491981187429132
0.0172377937692725,-0.0016976003560221,0.00907218140479536,-0.00191801464655075
0.012199142923776,-0.00400954565685429,0.0103848898707953,-0.00509641897560186
0.00606596710033115,-0.00598186890560827,0.00801552624689267,-0.00740623802728458
0.00313510519523761,-0.0129641252383352,0.00368434308785875,-0.00702612436886866
-1.08598960924453e-05,-0.0282206274032113,-0.00321541458690861,-0.00304628680531108
-0.00343305125196538,-0.0345428431282499,-0.00863125826202307,0.00373525052167104
-0.00369995008592444,-0.0128991079164858,-0.00565914100353202,0.0101423351675966
0.00205071268927708,0.0185546839939184,0.00269976876786326,0.0123372589399992
0.00846968344069056,0.0322477842283857,0.00520946089355535,0.00946059784446418
