0.0198901971287163,0.0384920079757911,-0.00938859025926247,-0.00517988799582887
0.0141827664266729,0.0298960267614667,-0.0147039600647872,-0.00562641067282396
0.00674033211925234,0.0104462295869266,-0.0191046787185019,-0.00598427664346629
0.0062334812832292,0.00291843493681503,-0.0191510817297111,-0.00574684832243286
0.00862541971099588,0.019370256235248,-0.0128774748636973,-0.00434953024121
0.00833111785088559,0.044624110472272,-0.00576999980523019,-0.00186726640546874
0.00919722357645357,0.0601287776380459,-0.00290740411476014,0.0012076727984326
0.0117149202523696,0.0646055189469548,-0.000978314189037142,0.00399381141506251
0.0103419169306929,0.0645194873672807,0.00197713779570864,0.00576086627777732
0.00479144788244825,0.0625216978367081,0.00310892390039274,0.00656895981570467
-0.00283161319953225,0.0577189162725843,0.00329784723517117,0.00672625652454008
-0.00897759795160585,0.049476899496187,0.00552698088322137,0.00622027778042036
-0.0117602902707158,0.0372573513237129,0.00680669203709741,0.00483770836265921
-0.0167404538484377,0.0228187138121214,0.00614312973807736,0.00294028391516197
-0.0197835505134547,0.0096718054497428,0.00438635361095341,0.0015181081990614
-0.0153310029162461,-0.00105217240919857,0.00141178794058744,0.000971002926053791
-0.0106763933019907,-0.0010068343499723,-0.000310676809613339,0.000605895104614376
-0.00472407418388664,0.0138492318398649,-0.000474374047283213,-0.000169727875936341
0.0105834073472535,0.0239622594462379,0.00260900020232983,-0.000940208598785644
0.0286246415450307,0.0142832389412873,0.00875732113277439,-0.001032381928859
0.0373608209600768,-0.00565231912350557,0.013559587739356,-0.00053694044625097
0.031143227114163,-0.0224462443632229,0.0163297146361704,0.000165283988598096
0.0108480902720406,-0.0341702132235896,0.0179027474381163,0.00119525993440019
-0.0126429048226121,-0.0395674853610571,0.0182332895469615,0.00237901104290011
-0.0300346944405178,-0.0335325329331652,0.0181196495545366,0.00292436164751921
-0.0390148560338043,-0.0229467116107237,0.0186891587609557,0.002466556951293
-0.0397574888477547,-0.0214799109467934,0.0185271267901984,0.00138842603082018
-0.0354040732638217,-0.0291044592525338,0.0174401440655037,0.000122087977114285
-0.0285040826851218,-0.026636953162021,0.0181291241948145,-0.00117523639225192
-0.0205178236379432,-0.00496435580150532,0.0184111672688838,-0.00165925830371355
-0.00995852682413226,0.0156265972301186,0.0149866553093164,-0.000760604044459769
0.00399927863193527,0.0199183067571377,0.00995968366103276,6.5495486856077e-05
0.0170294872912793,0.0165406504837894,0.00565739156802616,-0.000536336645565279
0.0267133288979425,0.0185928954752398,0.00128411175090166,-0.00205185103396842
0.0312974008483728,0.0268763579080325,-0.00205794199508012,-0.00328913768162728
0.0303986219751709,0.0296473190507714,-0.00275460308838828,-0.00353831855301114
0.0291833230653274,0.0213080007303837,-0.0024032122251037,-0.00266938271053931
0.0290066932931421,0.00997574574185495,-0.00139956700998248,-0.00126433204540188
0.0253055934910463,0.00200534009131818,2.02515891480053e-05,-5.48786645491479e-05
0.0169076754937748,-0.00405421802107381,-0.000381749296247909,0.000964954350857753
0.00445486464122856,-0.0102996874810267,-0.00210185653727974,0.00185009092326763
-0.00724324477455676,-0.0113880228486333,-0.00173696401620943,0.00246630154820443
-0.00711958185829599,0.000279853920795447,0.00257787616951649,0.00286406974816307
0.00474752035890171,0.0170916767110141,0.00910829768823996,0.00328636541724314
0.0118839435318372,0.0247031009890536,0.0142979645002131,0.00366679200274942
0.00419847252305838,0.0217776380560207,0.0172498467269198,0.00350930769964757
-0.00610111397485632,0.0126297124496564,0.0194140966038475,0.00277696330187425
-0.00519435454377198,0.00191929299487795,0.0205258592436655,0.00167955455525523
-0.000773282422881286,-0.00806710984064788,0.0209919329113686,0.000325926740560445
-0.00817657074682596,-0.0230137586242649,0.0219931272167898,-0.000910492953317234
-0.0264084940142801,-0.0384076800230748,0.0214640184571016,-0.00163077545048144
-0.0406541483829318,-0.0395502282662896,0.0187711625264213,-0.00188531253014716
-0.0386613032067256,-0.025566088909873,0.0160399375006445,-0.00198322936849153
-0.020195993008408,-0.00573263155372875,0.0144369284066027,-0.00203932770331647
0.00370959233455852,0.0113321700116271,0.011840412164178,-0.00218885169895195
0.016180451503793,0.0191725051630067,0.00722177803853963,-0.00273570107678104
0.00990754613955743,0.0168336797944095,0.00293840181941672,-0.00343712944849836
0.00192218637915743,0.00716791710323694,-0.00108201448298658,-0.00365082711337344
0.00925230125436146,-3.81657088702053e-05,-0.00466152223743993,-0.00325741889167601
0.024518981173656,0.0159686022955565,-0.00659378179658865,-0.00248132712032746
0.032656554682429,0.0577068726998459,-0.00782653887999764,-0.00168476619746067
0.0271410970790325,0.0904795869837611,-0.00992838622780292,-0.0011945635463127
0.00877952503815948,0.086185384085797,-0.0107739838546778,-0.0010042608516842
-0.0117101424389254,0.0585718598567741,-0.010273311995287,-0.000854988168920365
-0.0215746307629849,0.0349329920488679,-0.010178818638518,-0.000330044193428944
-0.0225428729380622,0.0180907585205843,-0.00723863143259837,0.000631036849026597
-0.0270257197011538,0.00143357925316856,-0.00153750625125312,0.0015551575853345
-0.045264086265536,-0.0133100501299241,0.00326993135949007,0.00210093244338771
-0.0693582744152144,-0.027451470134581,0.00406473961838365,0.00224208534137125
-0.0793443590187168,-0.0345799297711223,0.00143063904638083,0.00186972036199402
-0.0750748939686558,-0.0229069241933393,-0.000501904370318298,0.00109718352534906
-0.0668216139624045,-0.00241007790341028,-0.000459549839079275,0.000690345436966754
-0.0533736741968504,0.00835005684174195,0.00134678403370284,0.0012516565068049
-0.0399495146195675,0.00944066335978031,0.0034023633168097,0.00218280811140677
-0.0343322930152721,0.00942834916205365,0.0039397023509931,0.0024166985488553
-0.0310567880359073,0.00854166115879533,0.003290818056536,0.0017453506027726
-0.0209783121380123,0.00230982154578825,0.00241053564866907,0.000667668144899442
-0.00379936964958211,-0.00780483108834822,0.00114202869842729,-0.00051862111619199
0.00933730609453503,-0.0185743652822889,-0.00239367351943926,-0.00168459225858751
0.0140705716392026,-0.0324925379278953,-0.00713762670347909,-0.00238012895777673
0.0154296958123006,-0.0388244005086803,-0.0104339361514396,-0.00262528447517089
0.0227185068720955,-0.0166970335642238,-0.0120036115793601,-0.00332069130249618
0.0419116671391611,0.0258007790085386,-0.0123404453836399,-0.00466168566720923
0.0554967976070487,0.0524586163325213,-0.0128452678702817,-0.00535112983511043
0.0488803826788164,0.0466727187223245,-0.013419762178696,-0.00457029509409724
0.0326406129660079,0.0338182964094519,-0.0125858320736906,-0.00320171612100101
0.0173141199409177,0.0386399821615934,-0.0108064869604292,-0.0020181469484174
-0.000311011691839183,0.0529391988052849,-0.00920074697691947,-0.000571503413164458
-0.0256833794456096,0.0601810493365036,-0.00816352107627583,0.00144276511704623
-0.0492727084860101,0.0523030370954449,-0.00904344581115175,0.00327908862595401
-0.0565587388347587,0.0236353090943624,-0.0128109040010611,0.00417250635786384
-0.0480686596192211,-0.0214403937554132,-0.0166614356063287,0.00415780292960677
-0.0350714793785718,-0.0656513240534268,-0.0179666558842284,0.00346011745450704
-0.0264090322881118,-0.0941486965395675,-0.0186154601859343,0.00223785065788584
-0.0213722813104766,-0.100983005034213,-0.0202495177379383,0.000835732358231273
-0.0169893428318509,-0.0881350456370445,-0.0210082750918906,-0.000456549104954128
-0.0114122253958395,-0.0645948034575345,-0.0186002855941453,-0.00143895219299573
-0.0031616295664348,-0.0435529095752408,-0.013807078075031,-0.00195098774594029
0.00683332611690899,-0.0405005407053815,-0.0108503953176136,-0.00202132166104888
0.0204672448447001,-0.0536710707777627,-0.0109765709812612,-0.00192321669467401
0.0375282228827256,-0.0548321516910271,-0.0110746314324333,-0.00218750687631651
0.0510520823221535,-0.0327546813840523,-0.00983360382478006,-0.00296988515546244
0.0573379088933797,-0.00780743085132475,-0.00965610484606004,-0.00320209168331497
0.0556920966776294,0.007574949893666,-0.012814599807875,-0.00163476352036506
0.0446645154097075,0.0179017582702356,-0.0183068304710498,0.000927223351145185
0.0308669295652741,0.0246190268951039,-0.0257463602457078,0.00252305808451157
0.0209469771806662,0.0231817814108414,-0.0336817856953292,0.00200425674317674
0.0136683200677006,0.0129539939503592,-0.037731406688064,-0.00103100138064781
0.00752272622267338,0.00113169321911664,-0.0373281432309652,-0.00519548993025921
-7.50160047131177e-05,-0.00340354941648291,-0.0355951993071272,-0.0073833838616362
-0.00901173869264951,0.0010335314790639,-0.0351859618209627,-0.00588528088772932
-0.0163661399648718,0.00677129832266062,-0.0355562229166537,-0.0021625229599321
-0.0240523651322653,0.00302126492688119,-0.0340978449210658,0.000910572696350556
-0.0304895152755975,-0.0136727059192705,-0.0295850953210994,0.00193113053353075
-0.0310120279749782,-0.034992634404841,-0.0211828695882255,0.00174697976800184
-0.0267177709427248,-0.0501968663476962,-0.00931612799837802,0.00229853213675248
-0.014673081905853,-0.0589211975209227,-0.000497925859482579,0.00486349076240811
0.00491964849038588,-0.0664725316818271,0.000574409948452776,0.00874195710580325
0.0174224499436515,-0.076233954707294,0.000436202354566836,0.0121034054514634
0.0177917915734862,-0.0870328946271202,0.00428319590673571,0.0131611155728708
0.0202009914224246,-0.0915838484627765,0.00803121530331688,0.0108968178817399
0.0313584436386962,-0.0899684870006262,0.00840936847326418,0.0063164358514811
0.0402908364357753,-0.0866599453044563,0.00758538007511525,0.00132252670138341
0.0404756239959906,-0.0751633025601812,0.006360405783001,-0.00340479200730342
0.0361530612353965,-0.0493678727290154,0.00323926807737521,-0.00791276488680209
0.0244391519182651,-0.01612407120224,-0.00213582248893747,-0.0116179907532067
0.000760724280795738,0.0135919672065326,-0.00972283154218425,-0.0130506956415747
-0.0209184655832,0.0386453455786148,-0.0160739570381422,-0.0111946406364493
-0.0196456137681081,0.0594086879505341,-0.0184231747898191,-0.00759802880792124
-0.000279661076501594,0.0721933495311306,-0.0168254390492995,-0.00458462929244472
0.00957044557182078,0.0782671246595388,-0.0109454150069328,-0.00211568649007693
0.00037068635462955,0.0763722057833876,-0.00586896542755339,0.000606375704580263
-0.0125913950180816,0.0674119812021193,-0.00509972152746386,0.00293934875932231
-0.0158589473469073,0.060522737063513,-0.00588988242546056,0.00374015500187651
-0.00338884668572294,0.0569170701272725,-0.00624514342641085,0.00303277783537613
0.0219073738399737,0.0534294098689591,-0.00442218490985063,0.00251122333736902
0.0414344274351998,0.0497064483169071,-0.000404721554430431,0.00416586753469144
0.0402717392891086,0.0408760772078076,0.00457017820303555,0.00798048153529887
0.0252914932561917,0.0268520651662865,0.00963868765083536,0.0117997587235317
0.0112594567546815,0.0128663323624502,0.0136522696184613,0.0135522138357997
0.00248607368468128,-0.0024946610229524,0.0154796678164284,0.0126310181933957
-0.0046902756450639,-0.0212663729767354,0.0160756772176551,0.00940910483759518
-0.00667269143145526,-0.0391903825812374,0.017924908222495,0.00482830709231553
-0.0008931748907854,-0.0460512003708216,0.020985769720426,-0.000238212537687507
0.00412051155842307,-0.0339785356751393,0.0247031868909856,-0.00502324486387151
0.00617272047455687,-0.00895613499926645,0.0278484426794206,-0.00818669041338259
0.0124207151889295,0.0237747856376222,0.0278692435236205,-0.00880567943996486
0.021053136086949,0.0585882313006044,0.025168581980442,-0.00739959479157211
0.0223305480566699,0.0746115245281212,0.0229032930556783,-0.00536580738976924
0.0155752970727896,0.0676393888877356,0.0225416025720826,-0.00373539416076437
0.0111823026993613,0.0617185052382133,0.0236774569129346,-0.00262693270678796
0.016644709915208,0.0711607017506123,0.024943921274947,-0.00158339697926393
0.0231406810137079,0.0819468177823831,0.0243381580629616,-1.74769151749261e-05
0.0229581434234005,0.076330347986768,0.0218487056803399,0.00197871772029756
0.0210550357248836,0.0546499096028808,0.0168801927564491,0.00290556046264301
0.0187050260950403,0.0144687402685572,0.0089754201867685,0.00178357162691612
0.0146208599073764,-0.04224253211232,0.00202078754255772,-0.000641748871429167
0.00338800535039904,-0.076750563729365,-0.00101866495864537,-0.00354708174666083
-0.0132925476685312,-0.0619366688150814,-0.00138208226235463,-0.00545181025368944
-0.0182789925607193,-0.0261241676813489,-0.000652365158043343,-0.00450707175758627
-0.0114171764478048,-0.00659580793577387,-0.00116408890219124,-0.00128118883607925
-0.0093331330150778,-0.0117647708096714,-0.00288768804794043,0.0013504290564913
-0.015524517591984,-0.0323976758318058,-0.00136116374516475,0.00152345252798594
-0.0201068646445112,-0.0449950650445662,0.00319112692193826,0.000402573466882031
-0.0197328883941271,-0.0249998787759993,0.00564362005423038,0.000270682974278482
-0.0212805002750892,0.0170978110379345,0.00413261346752262,0.00199522262961434
-0.0259668105955386,0.0479963648623137,0.00182004001097733,0.00476482695260234
-0.0270046086206842,0.0585050299933292,0.00102094284965557,0.00710154570731874
-0.0223036632392452,0.0573265062325304,0.000317404037019601,0.00763486282379734
-0.0169579694867638,0.0416277782635919,-0.000434354746239018,0.00602475139092526
-0.0134491313910961,0.0136129464355536,-0.000696340663700524,0.00332887910426259
-0.00798217136019705,-0.0101847724748882,-0.00175367189486867,0.000454222330250248
-0.00226356863161402,-0.0245185839833202,-0.00249317939824697,-0.00249142710915536
-0.00222537935889878,-0.0350011305543592,-0.00217825485109199,-0.00510767102305817
-0.0037587662080018,-0.0434602195435806,-0.00138743174709325,-0.0065543598940057
-0.00338602850666589,-0.0525680911919135,0.000170842114272998,-0.00652674012530838
-0.00631693286430707,-0.0670767065194092,0.0021304207037597,-0.00552538207267841
-0.0147784392028399,-0.0895882911384057,0.00488063976413845,-0.00423489107291568
-0.0211314017359985,-0.110850288851621,0.00738497058266612,-0.00318059091603569
-0.0175060613815409,-0.115687625812075,0.00858858393677213,-0.00242500474814395
-0.00760517196418277,-0.105230603228535,0.00818390391254089,-0.00186063898683263
0.0020139915319583,-0.0909606833545728,0.00570817757595235,-0.00162261777408913
0.00699875347482029,-0.0746189076206358,0.00264512469902568,-0.00151993204229961
0.00737203103197417,-0.0555785520329788,-0.000477688684796522,-0.00110613749598772
0.00962337632371315,-0.0414135363002075,-0.00470336621389608,-0.000386723296121284
0.00854605112927834,-0.0365989597222727,-0.00948707957163481,0.000341047280180229
-0.0130385067778388,-0.0340649086950692,-0.0116822437921069,0.000815646986183962
-0.047239535614348,-0.0183437451613818,-0.0108982536414498,0.00111937882674429
-0.0629456772862837,0.0147591757016277,-0.0113086087140336,0.0019832399238249
-0.0564004259159564,0.0440276244525413,-0.0124160295752319,0.0034772871025071
-0.0515681990308095,0.0441612517741823,-0.0121379202768802,0.00423875437610311
-0.0555737100456962,0.0163520023052919,-0.0109005344982271,0.003556711253364
-0.055689141740015,-0.00901251367765711,-0.00836429270439304,0.00231647559042586
-0.0478395615335105,-0.0162716635085135,-0.00485573153090645,0.00151271363108259
-0.0364888839429143,-0.025380727502118,0.000471621546564388,0.00106310494402462
-0.0168267910955878,-0.0453557238782244,0.00680368768090116,0.000277046434050895
0.0150098514504997,-0.0615727991280997,0.0112409860419281,-0.000859125867378312
0.0422580746034211,-0.0664279702291183,0.01550493992527,-0.00192630451818159
0.0449344299575453,-0.0681277798261138,0.0211108216705826,-0.00251248717110933
0.0267368895360476,-0.0781282790183378,0.0233067602042798,-0.00227140870815752
0.0116237011439175,-0.0845133863575786,0.0187926726821334,-0.00158539610602463
0.0153576181734824,-0.0591247411578774,0.0102894918502519,-0.00110410414262578
0.0274666410425683,-0.00119828050851632,0.00372060237331051,-0.000926243403034646
0.0271260475198444,0.056489411114384,0.00191669427652394,-0.000584227815148316
0.00856505692670199,0.0826958373794,0.00190741224536593,0.000811022586713809
-0.016854636749931,0.079034795734118,0.000321572745609637,0.0032524350394203
-0.0360349329115683,0.0699244586328567,-0.00311440426142217,0.00525833632139623
-0.0462473098284675,0.0672227704559407,-0.00545478463544731,0.00556397436766975
-0.0537332402851698,0.0587552652405964,-0.00420099220599047,0.00419518799155515
-0.0579578289215038,0.0357220298914659,-0.000369711575301589,0.00183900329002153
-0.0562618648501977,0.0189563712848199,0.00173340923309255,-0.00120012214164123
-0.051066897794945,0.028726028884267,-0.000455966957376999,-0.00413352212218277
-0.0379924344610313,0.0502063371220787,-0.00429531304457717,-0.00544839625939386
-0.0150461870339341,0.0508922144286958,-0.00595177867179831,-0.00521654969181815
0.00844657360254533,0.0150195839421287,-0.00444906168884303,-0.00471990857463771
0.0256318488623169,-0.0359576186296843,-0.00122657858037499,-0.00431116940591073
0.0375218919395011,-0.0655161636682279,0.00338928831160293,-0.00309065084179861
0.0473495233632663,-0.0601162091977639,0.00796709497399465,-0.000182008868042313
0.0541037921641978,-0.0342112215210964,0.0083131974584472,0.00363477965360305
0.0529761023068466,-0.0100753779837594,0.00533221186859597,0.00646785316959651
0.0479206290683863,0.00872253295424966,0.00440965733803853,0.0074227695730004
0.0462037552958927,0.0310424533555682,0.00584533421170228,0.00712914949908082
0.0447972055699265,0.0495842827066883,0.00663655404932605,0.00592364821747718
0.038088342336445,0.0522330419496722,0.00770796678986942,0.00344562632030817
0.0266944317520942,0.0497039744092479,0.0103145274597337,0.00024507963473428
0.0173560617551049,0.0594197689879731,0.0119713835935491,-0.0025420255641913
0.0156298319976813,0.085002699042529,0.0105323189302712,-0.0042072894080088
0.0192793043432555,0.107893837751655,0.00687118598736299,-0.00453467053199446
0.0180366106375854,0.0995570161942186,0.00394436117999918,-0.00388755121950576
0.00973149972546337,0.0617045262635784,0.00490016497692592,-0.00292109906540679
0.00749846038535455,0.0155842560973775,0.00942828790706069,-0.00209027363540996
0.016082073186745,-0.0149489172805047,0.0127178719687307,-0.00146654866997997
0.0248776349477355,-0.00796775630052934,0.0131474108370324,-0.000958139644954286
0.0189694261059219,0.0224639466321456,0.0122838059111017,-0.000702014855399472
-0.0133722776193708,0.0391058017972703,0.0111078645915361,-0.000753527946230346
-0.0521155816337079,0.0331127527679235,0.0110790407502443,-0.000710060952992018
-0.0538395299894753,0.0252406490403187,0.0106731293696022,-0.00016249603563225
-0.0191016670013486,0.0198399170724887,0.00866115246702726,0.000990511232920435
0.0142832711529998,0.00537181662722587,0.00652652600687549,0.002248963850684
0.0326985774268707,-0.0111634884453656,0.00515760744816643,0.00242072107316782
0.041170422560044,-0.015217200633901,0.00345510643745512,0.000944108928273611
0.0384997960367366,-0.00272422812723421,0.000792149536247923,-0.00120182996331473
0.0267242176068645,0.0165357605532316,-0.00239713376764378,-0.00286631044088357
0.0159951687860965,0.0214557879059405,-0.00876653739269779,-0.00391754337134634
0.0219890760982689,0.0117462391315417,-0.0146440735562191,-0.00472021010323293
0.0459242988940809,0.0110860796558388,-0.0137638310470857,-0.00503281608709996
0.0620255992155863,0.0224242217117224,-0.0110291185426852,-0.00424901458772988
0.0617979891968953,0.0385501656607325,-0.00879264965711488,-0.00236880855456723
0.0627589480268878,0.0584142793967133,-0.00497469966860977,0.000293473539818625
0.0648832410435508,0.0687610290501348,-0.00131765258609003,0.00340385342862883
0.061160514361051,0.0609556649473201,0.00440089765538005,0.00625516609651313
0.0526837767012824,0.0394959169290787,0.0144976380199735,0.00770801554985749
0.0353970219720032,0.0204431899146187,0.0233420756231768,0.00730773922845356
0.011647419670251,0.0116221825426509,0.0253840996223477,0.00535241402496218
-0.00640665575131109,-0.0115642385471638,0.0229161897435796,0.00184454954652902
-0.0200475687738921,-0.0568649044368117,0.0205760811004181,-0.00292466900858937
-0.0447608240625029,-0.0948289747782733,0.0184386578952339,-0.00737025792879596
-0.0781749257904299,-0.110017488110271,0.0138062829219296,-0.00949969393693935
-0.0948099418995067,-0.0971800163393321,0.0064688134663545,-0.00904889245143654
-0.0842080661937932,-0.0475264060598621,0.00138468887220226,-0.00732225540358309
-0.0672100692767982,0.0191289394338527,0.000103829869813936,-0.00517537347006802
-0.0603765915147694,0.0618453101231145,-0.00264495165022711,-0.00264926745511406
-0.0577480264936236,0.0748824076942291,-0.00796720685860091,2.48502132394642e-05
-0.0479662528017319,0.0865725875445001,-0.0133818598600899,0.0022209795911173
-0.0309647130116795,0.0928086639300039,-0.0188825851294615,0.00362668768155322
-0.0206738307149153,0.0686772533967916,-0.0238457619504979,0.00431349907870159
-0.0287348129744796,0.020996921230878,-0.0242284321562666,0.00415099983553326
-0.0452327601817339,-0.00809371722940583,-0.017855793919289,0.00314414339203457
-0.049862835849981,0.00227173961495525,-0.00574634366230093,0.00215262735195894
-0.0381319208832957,0.00997511166767003,0.00818343168459915,0.00269333066940593
-0.0237483134718723,-0.0151276169539191,0.0161831353278691,0.00547230289904879
-0.0225949197942863,-0.0463516079161666,0.0155585305629893,0.00856307943426609
-0.0260641370495728,-0.0571873125978151,0.00913873313011019,0.00824558270183426
-0.0125226332008874,-0.0442792505077053,-0.000521838300218343,0.00283983746708065
0.016561393046381,-0.00958998568148531,-0.00921829189439186,-0.00516503051192266
0.0464008986001853,0.0354808385322085,-0.0119459711583493,-0.011242522993801
0.064999098216824,0.0720532388271795,-0.0101678753989759,-0.0125550751287941
0.0638180582147882,0.0890521761647729,-0.00883111180413921,-0.00956181415880893
0.0482424364958622,0.080797951388881,-0.00692388717357585,-0.00479894154288113
0.0246845677660592,0.0464471132631044,-0.00525633482199002,-0.00112938150858958
-0.00975634519254157,0.000119771206743544,-0.00710113855676962,-0.000232856158455639
-0.0378494921762332,-0.0364125494691742,-0.00932207579480481,-0.00139877878402985
-0.0415849096593861,-0.0503948529574358,-0.00959188298604031,-0.00184829919138953
-0.0425244786762159,-0.0425875185274426,-0.00853548831892829,0.000871228582183262
-0.0554043421928428,-0.0239750957821387,-0.00482175392491773,0.0060553356187193
-0.0676495601597568,-0.00558238707351472,0.00023580197980673,0.0101489865183752
-0.0689351577950707,0.00273837060772023,0.00302290958250456,0.010182041543751
-0.0549379006922354,-0.0150425151782017,0.00292790735880188,0.00658156019527771
-0.0375997166661685,-0.052283220729353,-0.00191129583561445,0.00258446342543371
-0.0282319285298852,-0.0712686628346469,-0.0107443940232782,0.000307979444935529
-0.0164620724511125,-0.0468155470058005,-0.0171427416665968,-0.000955614909412896
0.00218773482303051,0.00649802609737279,-0.0204214701603965,-0.00228404313927661
0.0161927553175187,0.048354219801774,-0.0219323054799365,-0.00383456590216736
0.0217808906575973,0.0494137438160449,-0.0172646859309997,-0.00467946960216075
0.0224920295768519,0.00835527101005658,-0.0070909423252112,-0.00295015312712714
0.0190038217084546,-0.0461905308896598,0.00233057078743419,0.00133098613912499
0.020427620277051,-0.0734080243816986,0.00868541378501315,0.00582601060122918
0.0341042749746258,-0.0602834984965439,0.0120432669850372,0.00878277156429568
0.0520743450009749,-0.0340696339178623,0.012737057375291,0.00956211865666465
0.0676139311111816,-0.0262951828243779,0.00933222111235617,0.0077746884988707
0.0803012500196818,-0.0395209298033024,0.00239885201334084,0.00345402939775447
0.0908590603062234,-0.0529763740182757,-0.00303660595702982,-0.00233269355676102
0.0942351420437569,-0.044355737381029,-0.00409000285102231,-0.00786732963664933
0.08346611248032,-0.00939767232298523,-0.00236269037725451,-0.0111779101137799
0.0551419767028898,0.0332997891245881,-0.0042361555694395,-0.0109494288736409
0.013766685829405,0.0580611165669796,-0.0121467817740053,-0.00816477340720068
-0.0176282158476821,0.0424075188231827,-0.0189952854979765,-0.00490825598381364
-0.0174479046495498,-0.0211178881854546,-0.0206104688308006,-0.00190280853025118
0.0104304901994544,-0.0894288074036561,-0.0191302433784027,0.00129694191180666
0.0342511807011032,-0.103410006956909,-0.0170470935111433,0.00473966844321751
0.0274501507204882,-0.070411132383374,-0.0143397286952684,0.00731922606704055
0.00292653309157158,-0.0420560018450406,-0.0107863768359738,0.00826787922863478
-0.0125957854086156,-0.0458371842129602,-0.00516114778389299,0.00846986594362408
-0.000893446560346324,-0.0585602374207912,0.00501298567870334,0.00848412944749907
0.0411062603236652,-0.0279498079333716,0.0156610330856056,0.00753835919734254
0.0740415477399629,0.0340322491060325,0.0198066636611747,0.00502195111966506
0.0637287651690421,0.058732703845084,0.0184645141061058,0.00186679796283678
0.0310395174447236,0.0414860922064019,0.0186214083850886,-9.60815577303372e-05
-0.00139139936316306,0.0171155696371797,0.0220792571309317,-0.000581247373238594
-0.0293382224968979,-0.00901611112881859,0.024455197077152,-0.000854538629124377
-0.0555969542629393,-0.0438341880834318,0.0211495862941904,-0.00160314219089755
-0.0844414014472674,-0.110661512062924,0.0145870541690298,-0.00265567219213807
-0.0978812531551619,-0.192900395341282,0.0099792899273499,-0.004428990180769
-0.0779662340592285,-0.191619459635466,0.00803657737939958,-0.00773205326144856
-0.0432393953121607,-0.0861729915765972,0.00598897907814046,-0.0113474974328828
-0.0257169105881565,0.0112988205918908,-0.00303928234241864,-0.0121418918832955
-0.0247643211077776,0.0489117418899316,-0.0148835908283172,-0.0089863796401451
-0.0113844646541903,0.087492484700184,-0.0178573187618032,-0.00352404516259637
0.0322990088276009,0.153331055989696,-0.0179712321814392,0.00264126589528984
0.0856640899768685,0.202871703040857,-0.0235692721190389,0.00797581097843923
0.105600089783883,0.209721786730772,-0.0288416405217304,0.010772766334972
0.0832588268669097,0.17252194306116,-0.0309249214994045,0.0105696294366293
0.0425871368223069,0.120209651823341,-0.0338164051013606,0.0078941437172711
0.00615411631371861,0.102618653407201,-0.0343685185515349,0.00376926347481991
-0.00555247125999474,0.099272291641202,-0.0283664103188397,-0.000208556955536728
-0.00211248090349409,0.0602191612162938,-0.0203633611122414,-0.00347481060466949
-0.0215359648411652,-0.00725304862743673,-0.0123514494799358,-0.0067681847032136
-0.0638284766966923,-0.0975764946912775,-0.00275658098162359,-0.00960642663656164
-0.0912298202024406,-0.214442598947154,0.0080061559852169,-0.0101660221200509
-0.0825868479788712,-0.305541626293012,0.0176228177959715,-0.0076202628701968
-0.0525579068014825,-0.320428019186897,0.0231328401068673,-0.0033353149016916
-0.0318551543690618,-0.265642646239431,0.0268952104693054,0.000440104138693522
-0.0269409616048585,-0.173460371072542,0.0326648720653925,0.00284979000652743
-0.0227653977353254,-0.0787271842288288,0.0363893289005819,0.00445103034969399
-0.0115781981083681,-0.00659176571264047,0.0352298403757842,0.00595782173673223
0.0115666964031469,0.0408230683230868,0.0321690588177253,0.00734833206965519
0.0516476451934329,0.0859680955396986,0.0273076390947772,0.00791358723311303
0.0943667877188711,0.13785802151967,0.0202026214645089,0.00700999850791447
0.107186662209957,0.170286124394327,0.00913758623528706,0.00463209543096173
0.0886550341307184,0.161495324740406,-0.00416443277745276,0.00135621566707805
0.0644016917974742,0.129478387317398,-0.015888635838876,-0.00243607141725844
0.0203352571042729,0.0928175076659992,-0.0303616746896814,-0.00621173396518186
-0.0487547402933291,0.059752267080459,-0.0447200299567165,-0.00870644431599994
-0.0903718158567,0.0610435747910346,-0.0445550077947962,-0.00851075208142191
-0.0794510658771542,0.0808348390345859,-0.0292917504817909,-0.00509698885591878
-0.0538342147160386,0.0329136967815405,-0.0129493911753047,0.000184802182372237
-0.0447624882205128,-0.0989608027395676,0.00121279764068655,0.00427382861498894
-0.0511385260459115,-0.223819782070817,0.017180417314213,0.00461019787773817
-0.0643295993047147,-0.295306045912873,0.0306519596762082,0.00186724513762193
-0.0633035092729804,-0.350274387006586,0.0363733062581002,-0.00100365087261573
-0.0464946761323611,-0.386282799482645,0.0364108918684675,-0.00226813995011248
-0.031992495545925,-0.361814836690246,0.0310959580476987,-0.00196207743657927
0.0109703817102655,-0.28416223305442,0.0204380569602762,-0.000652938542889061
0.0953582244782289,-0.191566085420708,0.012797084981749,0.00111054931634136
0.16945567373703,-0.107652054401405,0.0123821037558797,0.0030483695599151
0.209477740020486,-0.00739939307940812,0.0118144016708607,0.00478325656724126
0.217719661550454,0.13145484958523,0.00433119533977855,0.00573334919451069
0.192065615747736,0.27233349095767,-0.00802383436978703,0.00569325440394382
0.142589403962866,0.37341006111923,-0.0211553939831279,0.00511881362953407
0.0759969570155789,0.39322830630405,-0.0354494394362798,0.00418226757055866
-0.00529171245965321,0.299922559888758,-0.0429827461609922,0.00226420235730389
-0.0827635361994529,0.141115567775697,-0.0282492179002735,-0.000299287530315924
-0.131853864113371,-0.0017363175078306,-0.000897798245664466,-0.00179118541188412
-0.147999612524972,-0.118986709289327,0.0164934992477806,-0.00159030933942469
-0.139468473782506,-0.202471116325269,0.0222566696964085,-0.00115539350541373
-0.118853723196845,-0.202768653204905,0.0221951124283104,-0.00173316876094814
-0.0970715840545835,-0.148517083429921,0.0145197847229565,-0.00279641315605575
-0.0732366135808677,-0.131359794203511,-1.65988672204756e-06,-0.00373783473818844
-0.0571379069238612,-0.153715923900385,-0.013098268942595,-0.00506080821344201
-0.0482351448611565,-0.134407487919127,-0.0238488870463708,-0.00689021073570561
-0.0324468850687616,-0.0726420342566447,-0.036025981072597,-0.0085877658328798
-0.0180354045429414,-0.0338562609121191,-0.0435902520599379,-0.00951328881915058
-0.0142151350099825,-0.00611741259312044,-0.043959267456223,-0.00901975698762037
-0.0224253078592302,0.0387714943931619,-0.0421609954387731,-0.00683522593905968
-0.0391100876919016,0.082843968398285,-0.0399323363638852,-0.00324285522408323
-0.0511641366792285,0.12137462191185,-0.0406014011864418,0.000755018110230665
-0.0521329971576323,0.141608459477926,-0.044403765336903,0.00344023884833416
-0.0457348799595101,0.136356211096428,-0.0453020434860517,0.00426706901074226
-0.0310708982294421,0.145079389124511,-0.0421387927293646,0.00450669010953592
-0.000761579832501025,0.174460082719721,-0.0362500545040058,0.00507960060339681
0.026087540887215,0.177981414216131,-0.0316856591143815,0.00572665166057015
0.0222098657987605,0.143390091978569,-0.0329705315855773,0.00568604566403685
0.00402081254297144,0.0933131238161545,-0.0362251508006639,0.00458328499635878
-0.00979667284869989,0.0446445519852643,-0.0385007599793374,0.0029377960562153
-0.0228267874666288,0.0320829417552757,-0.0414452239750653,0.0012984836972587
-0.0241956137143792,0.0811864715500101,-0.0456603057369643,5.48578012510327e-05
-0.00741491785728793,0.167041656342658,-0.052436658867674,-0.000907964229990539
-0.00966239198494879,0.247400229627114,-0.0607928985065242,-0.00316037205683396
-0.0586495275738364,0.271357606002346,-0.065049927542446,-0.00729163350945609
-0.120939946710301,0.200794492468357,-0.0627446564258607,-0.0110113879017437
-0.140148278066986,0.0635680862322103,-0.0542452491373382,-0.0120576716858635
-0.0981838465420431,-0.0725947797937074,-0.0397272342136834,-0.0101053704176126
-0.0371779361143259,-0.169699668360495,-0.0232535133303587,-0.00602288048824608
-0.0028465265579752,-0.220722412557027,-0.00762381792974675,-0.00108951011968883
0.00717421822658454,-0.220111688454407,0.00760431301982551,0.00399511495362379
0.0176252676542255,-0.208812468779051,0.0222692465324912,0.00884080423600569
0.0340738313394879,-0.233064552084188,0.039344934422006,0.0120956246910248
0.0575283819157215,-0.267797107406437,0.0601476520577873,0.0124556957693617
0.0859384545648907,-0.285642613806606,0.074228911031749,0.0101747409826053
0.0979129657203562,-0.261473862456096,0.0724714066882537,0.00624168147749363
0.0811432873254279,-0.170294243360124,0.059128650171214,0.00182348978308063
0.0369515101076534,-0.0451526446765066,0.0394540848073445,-0.00134924144864487
-0.00268331614405165,0.0540373767244453,0.019342767812123,-0.00240040625761898
0.0134905582947415,0.122152174303251,0.00298712626314265,-0.00205776468939024
0.0614868540027276,0.197692602427954,-0.0163415687320765,-0.00141672426452598
0.0837544504871423,0.278623924699119,-0.0404933923546222,-0.00196567970278788
0.0828532988070382,0.323152732893285,-0.0597967960231816,-0.00461714142010794
0.0723388111651432,0.315787199979305,-0.0711453683210323,-0.00724694575475997
0.0396080487084866,0.280198052860085,-0.0752277371016625,-0.00658630116823023
-0.0210515637605689,0.20534688413928,-0.0623530122649325,-0.00245957213848695
-0.0835241644093588,0.0700369099491119,-0.0318778553139477,0.00272628943026444
-0.111051700059978,-0.0986415668131757,0.00293218550715532,0.00724735212259489
-0.094730478573266,-0.250476741929463,0.0354068035740811,0.0106972309864137
-0.0449551956424273,-0.310592411776221,0.0637237495689996,0.0124652639596069
0.0321679292543937,-0.267149949289743,0.0870070553061666,0.0114760330535177
0.127456975084378,-0.175438188131946,0.101757333637572,0.00795980333058773
0.192124150207014,-0.0752559390501937,0.0967359894365281,0.00409695140131396
0.185265624143281,-0.0113286752954713,0.0718537202977291,0.0019996247542737
0.156289674936565,0.00575159868255493,0.0392662399952332,0.00217445685616466
0.144069372940167,-0.000844333565546251,0.00758890769521779,0.00309566756360505
0.118322898558147,-0.0171131333403398,-0.0113624038051361,0.0020588078559177
0.0888673015146182,-0.0502734807438896,-0.00937710012822841,-0.00163086276160791
0.101506222389647,-0.138434187589629,0.00409801521258502,-0.00593361143118528
0.139999642444486,-0.262215507625909,0.0185589959180609,-0.00868835043824804
0.1453080013555,-0.341635550854903,0.0341289233409154,-0.00937757536236293
0.0856244707004925,-0.335327161065576,0.0481387849462394,-0.00872977633087083
-0.0314934451541874,-0.224879109044445,0.0569068172408945,-0.0066500276335165
-0.15758789621894,-0.0515612343392566,0.0614301737466467,-0.00269840751582495
-0.238732175594532,0.0565306518687633,0.0616950761462076,0.00173695195742757
-0.263624148684203,0.0377448030787974,0.0517748437988545,0.00536659717252335
-0.23452236441539,-0.0221231819028867,0.0297434523378082,0.00841751858991637
-0.173124237795016,-0.0123693004258555,0.00268344605412087,0.0102185878166502
-0.131384509318449,0.103238964966986,-0.0205667129769155,0.00852742346133793
-0.101699207104414,0.266927804749777,-0.0316155091545049,0.00278073052184007
-0.046174246758049,0.340712488269594,-0.0307289761808814,-0.00433115703983064
0.013710343476178,0.267716508949462,-0.0226662573925243,-0.00998008790539915
0.0484179168085782,0.123255988692405,-0.011763113477402,-0.0123718071949667
0.0588761819309945,0.0167322156310337,-0.0061157506011455,-0.0107905298130191
0.0363237733634162,0.00710381582024869,-0.0167420801637298,-0.00701942594734104
-0.0198461767935344,0.0518479819055958,-0.0436802833207606,-0.00356443447162903
-0.0660600902134765,0.0938427396551401,-0.0701690937402666,-0.0014436860872325
-0.070638450998567,0.120931510383498,-0.0879500024213768,-0.000989329289043547
-0.0513440761300377,0.118778707717562,-0.0930971296777409,-0.00248439109765357
-0.04680391100499,0.0451089048553178,-0.0772409766780129,-0.00468671491615843
-0.0627319583767188,-0.0545862303406022,-0.0486547137337619,-0.00516268042524056
-0.0433922551515061,-0.0664842915791231,-0.0199044068147632,-0.00336790191041068
0.033223818413226,-0.0127804748443386,0.00503400051015782,-0.000565621595549249
0.0947588596406635,0.0183216651479262,0.0228265246718642,0.0025309050456434
0.0902551371047846,0.0252642888510301,0.0324457786045631,0.00522098454974926
0.0447558773063981,0.0382804036268921,0.0316277107876432,0.00605452981613616
-0.0214967705573469,0.0650407017375287,0.0196081263447951,0.004672192684031
-0.0790683010343769,0.115921697251223,0.00745536789875859,0.00224219124909834
-0.0767594038466082,0.179628703486606,0.00300014896145005,-7.90911259650959e-05
-0.0213926927512464,0.199636940794629,0.00386578918391453,-0.00183241318073495
0.0373529826544487,0.153822267631275,0.00771678481016734,-0.0029233948316431
0.062963541857794,0.0721527134534248,0.00904065213346997,-0.00237895144816494
0.0511306577822992,-0.0263785309272507,0.00288649455523689,0.000979717363940154
0.0185522807643918,-0.103991515106962,-0.00795993128369172,0.00568109032416596
-0.0278184133217835,-0.105381192417412,-0.0195871729493123,0.00797689545407453
-0.0613719408530667,-0.0416469689031507,-0.0281741238740559,0.00615385057034922
-0.033427567622571,0.0223790567055421,-0.0300635279892356,0.00233818456081154
0.0269380002258258,0.0533476777879843,-0.027874395248352,-0.00128507393384111
0.0224737491034128,0.0604595443176627,-0.0252535838444161,-0.00556573160867164
-0.0542674236042168,0.0598450284327061,-0.0243224962241293,-0.0119580715805402
-0.119272253681052,0.0826955701328015,-0.0267226064042539,-0.019024991266691
-0.145939705626785,0.151796711273217,-0.0339376178171462,-0.0230879183190696
-0.131858851712613,0.203471302618602,-0.0394831033615878,-0.0212329950406041
-0.0280194815290421,0.160615485815746,-0.0294575977816871,-0.0130346467612735
0.145034327612567,0.0982016947960881,-0.00503665705678887,-0.00147718085831862
0.279834014483638,0.114955360330923,0.0186970168063112,0.00869014832686286
0.327849428287035,0.146934808873859,0.0294183643519649,0.015266922413833
0.318874213795175,0.0989453878076948,0.0232667736512538,0.0185761869786029
0.257278876303697,0.0065458194382369,0.0128558875048548,0.0187933804090854
0.136446279791934,-0.0353653901518569,0.0168845158327754,0.0168739609079924
-0.000326770628600648,-0.0167869629530779,0.0329658314448368,0.0153701082610715
-0.0966774770815361,0.0156970885064101,0.0403960244877935,0.0152929159115455
-0.134267167884262,0.0727268179138983,0.0263258260153628,0.0139849644731569
-0.132646266847685,0.194056397470313,0.00312068978750491,0.00859738737042129
-0.120744420593112,0.270648251935117,-0.0122053640769426,0.000216695790021149
-0.110955438479354,0.144233730236019,-0.0180776144931881,-0.00687993597659508
-0.108758824739761,-0.0972657769580338,-0.0135727737287034,-0.00966609695022167
-0.122332880542271,-0.260613224281652,0.00412653728681402,-0.0091811925641815
-0.125914817950917,-0.315048302468584,0.0294910048901496,-0.00811232498252382
-0.0912955619375063,-0.321462603533517,0.0522019220582319,-0.00671047206096981
-0.0329628726491437,-0.290422874090651,0.0659227873342783,-0.00331965730074017
0.0372685488788701,-0.216437641981914,0.067938841387698,0.001461748607582
0.115631527879865,-0.134340460715186,0.058320049751381,0.00460853799018041
0.156444763313134,-0.0616267361596576,0.0403528996634639,0.00485226228984069
0.116218384442561,0.0357398998054631,0.0154073666073854,0.00355034942436839
0.0428087425666389,0.175022246510333,-0.0181757928867489,0.00154653671765953
-0.00123303855365192,0.262847227282316,-0.050143150429734,-0.00103274389008021
-0.0457044504051283,0.196687830820678,-0.0628792715887418,-0.003545096760953
-0.118025043832404,0.0681898142406937,-0.0583178718557363,-0.00560922691558551
-0.156499156334942,0.0324450603217432,-0.0503738064463908,-0.00725394758052196
-0.127124498305713,0.0876995799254794,-0.0434022940257009,-0.00832058958513292
-0.0681110597228626,0.141493856305454,-0.0331655730084207,-0.00780303285782315
-0.011714059253949,0.143801318876261,-0.0182300504357619,-0.00473175389453202
0.0244454337257297,0.0989221519436674,-0.00279066728675977,0.000407280840366569
0.0497522082910958,0.0468326315195779,0.00910374554907614,0.00596777511663847
0.0696169868834609,0.030426730810486,0.0153298061181135,0.010162818198481
0.0721528114580168,0.0409881083715256,0.0172404965452921,0.0122321590963081
0.0745655138567581,0.0470976277425774,0.015810544757349,0.0120473406567168
0.0933792399447584,0.0412823176231196,0.0119286578374606,0.00939436278532057
0.09162729402306,0.0282619425599297,0.0122805202287682,0.00491852772459508
0.0346323691165993,0.00802579413766863,0.0181650737725463,0.000649924219058516
-0.0159792930731042,-0.0235452534700714,0.0229976662441361,-0.00178957371574654
-0.0130551560055392,-0.0726945004153314,0.024559633611248,-0.0029602345443457
-0.0212449232175023,-0.115466135781538,0.0263341134932468,-0.00398977763262405
-0.0793357875228718,-0.116331007320341,0.0295095722607151,-0.00460160895366082
-0.138180012657098,-0.0946947286378575,0.0257008057335894,-0.00413331348705065
-0.177499539258204,-0.0909824372279941,0.00892088300575522,-0.0031502980774883
-0.212378390179417,-0.0943978890986801,-0.0121239257093958,-0.00220267862055597
-0.201218663024888,-0.0606153486644559,-0.0282063633143313,-0.000493093184384573
-0.0931414303768257,0.0230837661631587,-0.0364650754890134,0.00232984174008356
0.0792584401909602,0.144456591437337,-0.0338153985738548,0.00552671587916666
0.222840854566884,0.24794061068217,-0.0239143831522191,0.00780288817094566
0.274013592401771,0.246015461750584,-0.0143312056377234,0.00646074337057966
0.256080403936704,0.147186961181352,-0.00417551173106397,-0.000134286445263124
0.226923356542801,0.0497291758825417,0.0131671644496143,-0.00839588819601567
0.200170358964267,-0.00624838361885872,0.0393842322840172,-0.0129119726589173
0.172598329203777,-0.0740854716162184,0.0701718450024018,-0.0126679238736691
0.135599568059804,-0.16439724884761,0.0941534194130027,-0.00930841990029931
0.0596301844156714,-0.219022754140191,0.0963687985355838,-0.0035357864739191
-0.0553262311566639,-0.262852047265325,0.0839802393521975,0.00342924717544612
-0.159144108532185,-0.335383548795405,0.0708492087054451,0.00915912388344475
-0.212665876053158,-0.34412599889944,0.0516397293544737,0.0115184442422979
-0.208356450384431,-0.2072523957454,0.0275515519815221,0.00973390982606438
-0.128286632306236,-0.011803435868585,0.0101191912758483,0.00566005047620859
0.0022931361334915,0.105549367626153,-0.00209867812299275,0.00223654241031874
0.0971340178093043,0.160207460485599,-0.0195812468780919,8.81389532009684e-05
0.135969817067106,0.219230460213388,-0.0376867925316276,-0.00207172976355347
0.164419484914594,0.246182546526679,-0.03937548987497,-0.00427578043876735
0.17683032221573,0.206042076726069,-0.0254129512851895,-0.00477467189033561
0.136234439886556,0.111452638892231,-0.00921541575464564,-0.00327939050533436
0.0584929459669407,-0.0101343633014127,0.0120246600336392,-0.00166178222627076
-0.0149729358624486,-0.107309626423525,0.0439068115437305,-0.000543184753532255
-0.0712050836405063,-0.172474581746377,0.0702038559833936,0.00107440297252421
-0.109787923221167,-0.226143796024515,0.0769638228002252,0.00280365312330713
-0.128040399838701,-0.243650626504321,0.0739107059510437,0.00308509582020581
-0.134813216309098,-0.235809130615206,0.0699969813385985,0.00173662967322333
-0.126083286914172,-0.260269507985453,0.0577714557711984,0.000217200913743775
-0.0756009517315801,-0.269415653620759,0.0310583925761884,-0.000612235717202228
0.00272507318455623,-0.152603772876167,-0.00643666759014234,-0.0017077306065894
0.0555380433287828,0.0556973048039637,-0.0427576304117926,-0.00454870147829259
0.066947082779381,0.213571525475786,-0.060547158154952,-0.0087759987074271
0.060417423058408,0.23597843269974,-0.0557569302443559,-0.0111126453724607
0.0515577875040717,0.190421866770597,-0.0435227605442493,-0.00894763861892667
0.063010413208877,0.223420043909317,-0.0375962611807609,-0.00406902171654189
0.105366013699338,0.309019193875269,-0.0388799939997563,-0.000654783566669313
0.108713222013369,0.311571693828895,-0.0427344848511031,-0.000351669690308418
0.0341273378973047,0.233811169315188,-0.0406842620744943,-0.00151607059658899
-0.0333278363500949,0.148152092640286,-0.0294428568195131,-0.00267230632849534
-0.0427572298400065,0.0702803850343151,-0.0177022631667052,-0.00335047772698605
-0.0510412485681205,-0.00828470204089515,-0.00883153787742007,-0.00309642150737018
-0.119008129873175,-0.0777715047797982,-0.000920487891265864,-0.00132124897702953
-0.220295378093427,-0.118145764226702,0.00209429648440359,0.00253714790136627
-0.28340523191226,-0.123108457368308,-0.000308804028454476,0.00760400605396996
-0.278938818978719,-0.100482430502741,-0.0029928981630833,0.0113441986288104
-0.222798174004594,-0.0494251543370333,-0.00295595887508782,0.01180719919231
-0.153348809535061,0.0184187255638967,-0.00193440397972149,0.00851091472481841
-0.0707138590484072,0.055413285242223,0.000473002937895088,0.00242594777830349
0.0515599580772608,0.0551937311661289,0.010648042287009,-0.00387318485168548
0.167414568759962,0.0495740051203731,0.026540709420037,-0.00759237802041489
0.216815587373396,0.0147323647297218,0.0377035166294209,-0.00746889759223588
0.210104789634209,-0.0775758898158117,0.0381853239978418,-0.00471714411754835
0.164535526895155,-0.170986927559915,0.0312659632032345,-0.0019854340146005
0.0819353151415414,-0.169918135845317,0.0287135696286246,-0.000686568886246801
0.00189433841654485,-0.0765630110577787,0.0372543258114003,0.000253892202253529
-0.0213035123969437,0.00206478290307055,0.0514715453183517,0.00250314958582188
-0.0063945435544791,0.0222412963499489,0.0601283722760645,0.00543036305861927
-0.024355881304696,0.0325350939295177,0.0545027786393054,0.00723519935100044
-0.0853853732244625,0.067749224788729,0.0423995392031728,0.00767317740839684
-0.125846566000384,0.0907091092013034,0.0382971792507494,0.00701354025771246
-0.106788757581797,0.0423602282853889,0.0453859967376719,0.00518827582196398
-0.0494335834073076,-0.051873011948011,0.0598042308786159,0.00320757271402236
0.00783434989817601,-0.142148256751671,0.0686610419785227,0.00253398599586698
0.0469811002855997,-0.240943465822847,0.056900442556829,0.00255800736672926
0.0805696650039883,-0.312652226706302,0.0357553610015041,0.00101946022155502
0.120913783512451,-0.288983697666392,0.0257960594001481,-0.00267245992871968
0.153330405882401,-0.192191693971985,0.0264181115602644,-0.00650031228310232
0.149293013480829,-0.105227233184376,0.0256115103355869,-0.00810988585740914
0.092161603360207,-0.0885525483206494,0.00726450136320008,-0.00712722733693682
-0.00717468831300871,-0.115854581591699,-0.0256785141385692,-0.00492142398823353
-0.0926399750834443,-0.122538113613577,-0.046792990987843,-0.00227962427573027
-0.115623557541035,-0.0413011496746563,-0.0456845350347578,0.000848512266314166
-0.0986890604773745,0.137449764094932,-0.0308112060754299,0.00380246068316613
-0.0635307651894663,0.271204797599125,-0.00493942433011474,0.00551743110068452
0.005466231421212,0.256140230252247,0.0250102331500529,0.00573592503064809
0.0907606813674563,0.161184534364774,0.0444690248111043,0.00467510039264783
0.149625644275849,0.0632944893039641,0.0534053855827997,0.0023365278079993
0.173897360826065,-0.035607733266716,0.0624211849494711,-0.000610484228583917
0.169812811594262,-0.150554755200086,0.069663765549994,-0.00259496944697025
0.138376818366375,-0.2336807202414,0.067629796379167,-0.00283762633037471
0.0926029488309147,-0.215886554149718,0.0611042590662306,-0.00168951400947633
0.0369614275969815,-0.136572021786714,0.0553444290803083,0.00031542413484533
-0.0239503934685514,-0.103410844516408,0.0487048011854709,0.00233036643594449
-0.0632929142339512,-0.14332633051107,0.0405178448571111,0.00328514557469561
-0.0644156420079849,-0.171298189833584,0.0279030454337656,0.00236228767471745
-0.0498306432601439,-0.128064515510255,0.00897595739051211,-0.00031563721600034
-0.0584611180601179,-0.0564374919575281,-0.0114103574776119,-0.003840926520271
-0.0910812424598492,-0.0386450760462267,-0.023955629975124,-0.00760318954379495
-0.11761227861754,-0.118163286387298,-0.0217691267164893,-0.0106724717292983
-0.130452778013325,-0.215516823658051,-0.0155897506612493,-0.0120199462081735
-0.115285984247556,-0.202694106985668,-0.0193739551013224,-0.0125988161104122
-0.0244661077795167,-0.0810155249461785,-0.0264778932113154,-0.0139170789984675
0.124470866975335,0.0402825387061231,-0.0190637298851886,-0.0139792030121327
0.223723020636272,0.0888949370461383,0.00849132911143338,-0.00821674938266101
0.215632363375849,0.0678333892766521,0.0372524025493172,0.00375213966130414
0.130888455767493,0.0309554095305284,0.045237242188661,0.0149552354688414
0.0227655219372146,0.0333249170514655,0.0355904774424699,0.018638830617063
-0.0679009735562343,0.0710773538492249,0.0169436736557269,0.0156270680841771
-0.127303374160474,0.129382771877141,-0.0092701380177011,0.0104073954930997
-0.147101326295163,0.210447436265131,-0.0319891266505581,0.00545967078722309
-0.132829973489728,0.318973510931874,-0.0467780568292899,0.00136918852723179
-0.118019307846682,0.42690641320629,-0.069391555192393,-0.00232799813884316
-0.108873383857013,0.416904366884632,-0.0984967753198659,-0.00759114436951992
-0.0326060010299524,0.263282211450009,-0.095157271168291,-0.0150119932695486
0.124812537566755,0.104663158378072,-0.0436629158780049,-0.0193458464788279
0.226735796636919,0.0142118208962764,0.0168971657873378,-0.0140468677402412
0.182450011932385,-0.0427265754690312,0.0537735557429277,-0.000729159111943347
0.0514870966672736,-0.109392659267676,0.0773441335215355,0.0127381932664901
-0.0600453237192468,-0.203922158939229,0.0987341870347922,0.0208699558868819
-0.107285592449486,-0.298059960242366,0.102582284581768,0.0218973517081799
-0.111344180610488,-0.315813682673078,0.0834226925121909,0.0162542960891426
-0.0962857812778814,-0.219190104168725,0.0569237151185804,0.00720727014672174
-0.0440988926020985,-0.0699345142139617,0.0297489694039206,-0.000716741453531882
0.0506180197716659,0.0832576959320807,-0.00958820355160715,-0.00516543898917848
0.120088010033288,0.237560001817622,-0.0608857978347738,-0.0073881253909744
0.102199896284909,0.302659388319341,-0.0973990441679029,-0.00960527800063206
0.0425942994442204,0.254997561727292,-0.108739370343745,-0.0114982167285613
0.0311860772497613,0.216029480162114,-0.109319443776569,-0.0115459423652379
0.0510318275595555,0.186159428272337,-0.0985527707555005,-0.00935250614058696
0.0595814963621388,0.112222186881886,-0.0722550063558859,-0.00480550704089351
0.0531007676392826,0.0107965065677188,-0.0429091494399395,0.00160705434215831
0.00790399408670327,-0.0879652698510172,-0.0234238274272313,0.00772833550095301
-0.0397038837438211,-0.0997685536499004,-0.0198753038467054,0.0112286537451392
-0.027506037070776,0.0281280918445483,-0.0299539627700099,0.0116422125172978
0.0157648021036568,0.207331653960147,-0.044972322434907,0.00984488607477308
0.0466157363572934,0.30552318215084,-0.0557029774644034,0.00673925470095412
0.0773926730531111,0.321198242340849,-0.0532269238504126,0.00319332571988407
0.107500017233682,0.362152012764827,-0.0391442240943469,0.000142435258220044
0.107385142485365,0.44258944968764,-0.0289283334306104,-0.00190986930980495
0.0731375171983416,0.467574092200821,-0.0300426241951631,-0.00300264861877885
0.0316009387913021,0.398668599384527,-0.0318066652851732,-0.00288673011569829
0.00997426190863585,0.294010668856455,-0.0276089320698917,-0.000956076580279941
0.0106933851525985,0.205662501717416,-0.0245052008538926,0.00184864210844932
0.0401168122415711,0.132118575426197,-0.0276639677551243,0.00262619338761973
0.0910804486031908,0.0309508531372849,-0.0335110710824312,0.000685872110954548
0.0741147056471352,-0.151998779295519,-0.0457736907915783,-0.00163953502047855
-0.0482363136225311,-0.358313222178459,-0.066423418307306,-0.0036050676874172
-0.170705770547036,-0.419250772842101,-0.0774211357215387,-0.00558898691705926
-0.225034277251759,-0.264112102255756,-0.0704124180635357,-0.00623585659158789
-0.250998089115998,-0.0529127132056431,-0.0574052031304565,-0.0043358674312847
-0.300764598561562,-0.0502439336430925,-0.0479906050479356,-0.000977427098128267
-0.375418937961696,-0.221416995296117,-0.0439039289808684,0.00103206892043868
-0.41949423176425,-0.240266844836373,-0.0427375663315069,0.000127448297419487
-0.355409323101003,-0.0360443854976097,-0.0406180742238364,-0.00228499240696432
-0.160628128895492,0.149610729304716,-0.0378662377225413,-0.00417835089826995
0.0859344273497039,0.197727584859555,-0.0393571111266644,-0.00547865580672175
0.305497964558553,0.193500853907419,-0.0479138611674301,-0.00693350606430743
0.439042183197787,0.175971698837893,-0.0575011528274045,-0.00750178809362184
0.405818484331022,0.106270440952643,-0.0481675452866598,-0.00527920524016138
0.247589708435181,-0.0211483042033061,-0.00983167494703621,0.000625301599289479
0.10669507515884,-0.171987847092594,0.0360542600908381,0.00922510927197258
0.027274782680132,-0.263849059876546,0.0664857472352262,0.01721067925138
-0.024892244159056,-0.232519087389999,0.079430748651068,0.0213270511275641
-0.069882723314832,-0.136009930778259,0.0714369365377941,0.0209584988086695
-0.124934322005588,-0.0581966411761319,0.0389164026317768,0.0170141394774914
-0.176189218706632,0.00761377936561337,-0.00128340922386276,0.0103126192296034
-0.208033994657032,0.0218071367099644,-0.0324259597177595,0.0019413657558602
-0.253239246097282,-0.114184226635697,-0.0480198434686845,-0.00615999068635713
-0.278850334253081,-0.318054025290126,-0.0450576159929873,-0.0114933081807675
-0.212021301555156,-0.443982331370876,-0.031415241335503,-0.0130923464540174
-0.0826510541821925,-0.451066495484656,-0.0152605759410503,-0.0127139583113816
0.0369248091257968,-0.295405867126273,0.000117034432790548,-0.0120648208081317
0.123994299646013,-0.00970037411346636,0.00796426080348329,-0.0104999233428304
0.169396669270995,0.254182058577077,0.00269341476930504,-0.0069501195797352
0.17887741184187,0.392798314982908,-0.010173508129954,-0.00202216317174564
0.184466107259059,0.383757040527799,-0.00878702546607206,0.00238635188930622
0.193529218259888,0.268707506634423,0.0213674907363952,0.00521421641712436
0.163574257782896,0.141503598649254,0.0601831225792547,0.00731270842531075
0.0583034061022792,0.000688115368474018,0.0826589962415004,0.0092410171245649
-0.0822402783404432,-0.216888073967396,0.087452624739927,0.0101188768572092
-0.169852204027008,-0.3896978952137,0.0758873268677257,0.00933381692355769
-0.167737322721496,-0.363835248325684,0.0420225624542246,0.00760005296999096
-0.136701830171626,-0.253127445762202,-0.0139425985945432,0.00525123266934206
-0.161560902280139,-0.170507959106913,-0.0753104603050643,0.0013704752226939
-0.284423782624135,-0.0786297764497317,-0.119051156990908,-0.00362060430191313
-0.397483432725243,-0.00170791235056866,-0.134930952137475,-0.00794697136612834
-0.270443815312614,0.0816790966632738,-0.12817156216601,-0.0111677981559785
0.0798497894247582,0.229195943818517,-0.114446832567678,-0.0138335819646778
0.382612616247486,0.366608715920795,-0.110096321197349,-0.0152572528793714
0.49011116217991,0.382544899484819,-0.107927210126276,-0.0142283262045047
0.427000324600976,0.248283321704305,-0.0846831162103509,-0.0110064260910169
0.291716640116831,0.0720790010305328,-0.0444783127279159,-0.0064903808825719
0.167969835588732,-0.017269831190838,-0.0129538434340364,-0.00185748319930309
0.0762613370499434,-0.0355646817543027,0.00122181520254426,0.00122594479223317
0.0232407200376021,-0.0467849783576151,0.0103071182691201,0.00326924522432114
-0.00279653668438432,-0.0448404637595475,0.0237305563331478,0.00737727703932804
-0.0126724035837295,-0.00588746217388143,0.03473284205788,0.0142739692645746
-0.00396846938301776,0.061638028984494,0.0322487391741703,0.0205138059514013
0.00900146018222928,0.149643150226337,0.0175031082706879,0.022171522741822
0.0094150125315686,0.253531564489046,0.00273405529451578,0.0180027492948634
-0.0222444310199445,0.305734248422698,-0.00587279963328274,0.0105243584333045
-0.0991412564419811,0.227390394033773,-0.0121051062880998,0.00328488751732263
-0.17459656444523,0.0747442940945737,-0.0179242448128463,-0.00319500456806589
-0.165739690506126,-0.0470362921741402,-0.0205444756976174,-0.0102424203454276
-0.0517265418386144,-0.128624520346095,-0.0202072251677077,-0.0183400107287426
0.0814927060219306,-0.192559117965287,-0.0240830666170621,-0.0260714397838546
0.12215438728087,-0.201670571889534,-0.0365415288779734,-0.0287153496726702
0.051829135787598,-0.141961580082973,-0.056405787480343,-0.0229313914524328
-0.0242276046461503,-0.0819309619034213,-0.0730537111732866,-0.0133724427921517
-0.0158626400712217,-0.0312068705396845,-0.0737248100632142,-0.00742695893856703
0.00483004225599585,0.0169198134264985,-0.0679074964691705,-0.00594270736689671
-0.0101283801228291,0.0447723115141949,-0.0638619193882887,-0.00456781740047576
-0.0142549354473814,0.0659424955598915,-0.0512937327723995,-0.000314189247954625
-0.0488854065883635,0.0739581385265905,-0.0250953427768388,0.00641108917496512
-0.126450865659666,0.0699776563149119,0.00696060604970229,0.0129398084011969
-0.172696074993324,0.0649608445634724,0.0332269548910528,0.0167523422389622
-0.204599142556401,0.0474017072621187,0.0461533677955447,0.0178188341723147
-0.274191204455445,-0.058265236057706,0.0426528530638956,0.0170954741750562
-0.308787574727783,-0.249199714398159,0.0274072677634761,0.0144693221793459
-0.261424439334287,-0.349719340976009,0.00700384984153408,0.00993139449947439
-0.201826212083448,-0.333454797290639,-0.00498162572117994,0.00461133027751288
-0.154912383363338,-0.334270928097339,0.00914546100457431,0.00147359191339959
-0.0776016821223672,-0.352644375211892,0.0340121810502157,0.00318625669099793
0.0746885476593774,-0.292347669620368,0.0486480841888253,0.00726397405747319
0.250384495057,-0.125367505804416,0.0550535452319059,0.00814728119728331
0.336755579431672,0.0923025077971527,0.0456315615428261,0.00340188994305163
0.336584673666493,0.274134152787585,0.0225571252073566,-0.00520601432909443
0.288412585009056,0.268546392238961,0.0160490823205683,-0.0138873023009104
0.189823388609162,0.00935924273181996,0.035465683330852,-0.0189308220323921
0.0827516860535002,-0.281762662814909,0.057049655053896,-0.0182487183635102
-0.021940537036956,-0.388999746395777,0.0591199785891079,-0.0121113621787964
-0.118309744321218,-0.358757414371509,0.0407836112255947,-0.00394767563451186
-0.122015300728378,-0.26651993492805,0.0241982774624112,0.00168471145129327
-0.0493286419116685,-0.100109257354893,0.0268468997545314,0.0041811144120642
-0.0115903151771529,0.0729191063032015,0.0364553645383444,0.00639040051517232
-0.00625712513115712,0.182427583545013,0.0359486480437738,0.00942579152297997
0.0194324341470277,0.30173598754902,0.016753364184071,0.0120181272535237
0.055454614164054,0.418045599320981,-0.0180936491828191,0.0123571500563168
0.0682259934696102,0.353997892866465,-0.0380535319038314,0.0093240096578953
0.0369236292671981,0.11553290781883,-0.0212963748282012,0.00417245343291987
-0.0327711776777097,-0.0892683500501251,0.00818564874780894,-0.000644830422305436
-0.125033887109487,-0.166299595753047,0.0184394497651712,-0.00412549358477109
-0.215804654253818,-0.178352958309068,0.0183975734397164,-0.00659475052137695
-0.261295764183314,-0.178265376059319,0.0220679675927612,-0.00783444140830454
-0.225997458021532,-0.180643656328105,0.018358278676175,-0.00649321356657793
-0.119136692019252,-0.202396397632393,0.0144673423262989,-0.00235576119364304
0.0248731455032271,-0.201060589726113,0.031314527635385,0.0020154048559428
0.162923407093206,-0.137278460722534,0.0603405270824555,0.00374724335639648
0.222924674403908,-0.0712289152873444,0.0727057642019322,0.00297929526147883
0.184668676493242,-0.061839555502037,0.0611180408721542,0.00201781412012655
0.135610428908716,-0.0661905510862071,0.0404357773148608,0.00153825998306141
0.137314744292567,0.0471613176611307,0.0152831728894992,-0.000238653761741177
0.154716017893169,0.321479352904014,-0.0129691278049354,-0.00433888475212067
0.179374830012164,0.573318670754445,-0.0257789507310706,-0.00826969851585787
0.232771410529296,0.64656074142785,-0.0148989903985764,-0.00831898761359151
0.245696144082847,0.556471602108097,0.0057712570733051,-0.00435550031747412
0.185800371017696,0.332725306092297,0.0324918744868295,0.000983138193067017
0.14875934022509,0.0768405808207258,0.0668152994197396,0.0058466158125247
0.164837644893759,-0.0240258375927602,0.0927878044749708,0.00926078766624707
0.141035554073842,-0.0100887705005974,0.0966585725024621,0.0109469125571659
0.0215359274566051,-0.134588207048214,0.0802739357613882,0.0114123678138305
-0.10471481646593,-0.35121793880748,0.0518657510502218,0.0105085624243107
-0.163558123152723,-0.345548090888331,0.0198465502913761,0.00716924607875574
-0.205419704340676,-0.144826516548242,-0.0119764468645239,0.00109209605981326
-0.217001715207906,0.0128968796778737,-0.0409966749692484,-0.00626756496404879
-0.13369510735599,0.140159744280006,-0.0634984208844709,-0.0123430040185189
-0.0190306707204031,0.29854386917746,-0.0725024173029403,-0.0154802769018882
0.00974751522598277,0.421680546239138,-0.0575797642729605,-0.0162027711596749
-0.0583756330090557,0.426237504778166,-0.0208609749803758,-0.0153799444987706
-0.12947040457862,0.29880905918389,0.0144251007795166,-0.0127684253135405
-0.128242032206338,0.15462424571413,0.0350290683956917,-0.00834001649220342
-0.106962423167813,0.106253606138071,0.046429928057643,-0.00231289831087701
-0.12793939230564,0.066144519101558,0.0472861645762279,0.00534070623326613
-0.101182641476091,-0.0878791598083353,0.0362893360128705,0.0129063105956276
0.0147917537555858,-0.27042538908726,0.0229362423100426,0.0173097345439414
0.098470790008623,-0.33554325677079,0.0099537921035028,0.0175490372915334
0.0759780328127967,-0.276135678440606,-0.00401788882283744,0.0141654856301894
-0.0120201101208978,-0.177070281476795,-0.00342796055377043,0.00744025927515985
-0.07329323974475,-0.100656337198851,0.0157802384584482,-0.000333779556981462
-0.0736734037023945,-0.0522444933424762,0.0281339399715276,-0.00575571809785762
-0.0658361826952899,0.0153263866842854,0.0183008852419096,-0.00833653239075534
-0.0653445883885215,0.122939402979057,-0.000671344365622613,-0.00959139598000152
-0.0562531411264069,0.211148662836486,-0.0134759822503583,-0.010074520625146
-0.0475541351421832,0.221662224661221,-0.021721278653182,-0.00886525314146414
-0.0522307102652865,0.156780576333462,-0.0243554332352288,-0.00532351043398267
-0.0675488414641968,0.0615081303400247,-0.0161864872399855,-0.000381774615668847
-0.0740092336831101,-0.0178089837790168,-0.00347873587650644,0.00422907828527075
-0.0563469340596061,-0.0638308361540529,0.00830387466942499,0.0071692121119433
-0.0161645682097276,-0.0923849210955388,0.0191647262806648,0.00791402324614747
0.0380604574477247,-0.132583022053222,0.0283768047080372,0.00643508251974716
0.100472999155836,-0.177180555223596,0.0333689277583053,0.0034368173579869
0.142147260363213,-0.174727115880959,0.0358496796595651,0.000421432439920486
0.120656779161696,-0.112905819780272,0.0408026017421662,-0.000834311994407968
0.0459739241539985,-0.0803348135240696,0.0407457924210171,0.000163354203074895
-0.0190979618385108,-0.159238120068875,0.0289060696678169,0.00110292383236873
-0.0293046822498397,-0.261345644761755,0.0146477074405705,-2.4763948023151e-05
0.00691945657834614,-0.248770474598243,0.00115275832240135,-0.00213360713557074
0.0560951374003691,-0.141519150592264,-0.0132175219574793,-0.00348631599455617
0.0841574522304922,-0.0376072205442716,-0.0193697958733613,-0.00344207110575927
0.0794450328641806,0.0297200598659451,-0.00784313814846238,-0.00243627648444064
0.069873183316299,0.0758485821887018,0.0193521283705965,-0.00151780470628398
0.0864753835402228,0.0945410385141219,0.0433033949533184,-0.000821577251154271
0.120875615629947,0.0594120398573547,0.0429986577245028,6.99732178616314e-05
0.143362265605113,-0.0281621757746951,0.0255731234290769,0.000725768771799191
0.153698417182024,-0.102718209900344,0.0150436171317075,0.000207153437342271
0.16157013802513,-0.108761531561396,0.00693688440088103,-0.00163970257490079
0.138602843998463,-0.0728845671612534,-0.0139964480246101,-0.00377669944223034
0.0578932980260842,-0.046723484745551,-0.0286183123589567,-0.00487453253160461
-0.0694207939004897,-0.0742432834936764,-0.0184769677918736,-0.00419376731495797
-0.194599537050987,-0.118981345079779,0.00219154586195951,-0.00226725442988189
-0.224845198386495,-0.10046490579751,0.0212404533091881,-0.000213725555285726
-0.129076277894156,-0.0479314422939361,0.0391701130629879,0.00222049611860845
-0.00291699529540979,0.00654847471695603,0.0515358229364833,0.00578233278902245
0.0832832396182057,0.0661004177275652,0.0488081320961702,0.00860767661348807
0.140791426275165,0.0653642538622276,0.0338828600959094,0.00742411274664656
0.176650086824999,0.0139702208349854,0.0178545505391888,0.00289322848129656
0.184830576026929,0.0278585027244032,0.00558377008760755,-0.000854029989953446
0.158246258190784,0.132648744601875,0.00174352657112436,-0.00161670678775519
0.0917566540271066,0.22462239722005,-0.00125750134440823,-0.000482323295164149
-0.00564011121269972,0.20349660475179,-0.0041337018204157,-0.000122921564974496
-0.125438848612488,0.00713972987957079,0.0139224471431444,-0.00153215143622636
-0.257013159913321,-0.285173775541274,0.0543176924502227,-0.002449787254926
-0.36015943471009,-0.408376326877391,0.0899307830889734,-0.000549649899379135
-0.390672565482092,-0.320321053030793,0.0984509850071806,0.00344262708567053
-0.325093122705513,-0.235688705558236,0.0813528392074528,0.00605868969087405
-0.190010577643198,-0.197237597686549,0.0459791696595918,0.00437799025257843
-0.0500513093633452,-0.114574275167288,-0.00351113648216608,-0.00074834538474285
0.0775849166895364,-0.00460262252699933,-0.0579058281287645,-0.00548961873853174
0.183099125386469,0.120167877476059,-0.105996189704622,-0.00804594692930849
0.228091054862642,0.268156109063794,-0.132754491792104,-0.0102575858808711
0.24863417682383,0.317156772511442,-0.120819375190649,-0.0119619361978216
0.296916327397151,0.237135522948792,-0.0751369067469555,-0.00992141085380674
0.301080607255867,0.17949154999941,-0.022444833959635,-0.00353819424697315
0.215163629930979,0.189858725964886,0.0164816208712008,0.00395835071687511
0.129680532886385,0.207953533451823,0.0338633370262645,0.00844755085949991
0.0779206454210606,0.232573210015358,0.03388463026306,0.00814231804079532
0.00510538932831855,0.249089116595704,0.0260896389943154,0.00502029185518837
-0.0983452301536163,0.189601512769473,0.0137365671856595,0.0017745714758348
-0.218318733526505,0.0871974181078706,-0.0060673122507469,-0.000352586500264377
-0.337855635705003,-0.0256264821635971,-0.0238826459261837,-0.000429699151336894
-0.426602265082553,-0.206964866886721,-0.02633359318035,0.00190985830395808
-0.440230691586888,-0.329574551889669,-0.0128864089872553,0.00493594204800388
-0.331119036512594,-0.245071565366983,0.0101804669600933,0.00678672558594935
-0.156530029951944,-0.125253710252276,0.0235578413923421,0.00757871890036276
-0.0538986166977309,-0.105751385369407,0.0164449526334524,0.00699801483906724
-0.0309572151714433,-0.0720511312061764,0.00649060480748039,0.00433751663490014
0.00784256757565757,0.0169467955375886,0.00785355828051502,0.00104499383225745
0.0752356276823564,0.0454377292702082,0.0138108918477207,-0.000619236724276172
0.134636387175971,-0.0222363797364779,0.023169586604668,-0.000853963595119969
0.160289888019842,-0.0571598900855143,0.038761763803597,-0.00190433085247994
0.151127563310352,0.0292973047336552,0.0494113659803587,-0.00447523095871518
0.157707129568215,0.152577725554763,0.0499985354540282,-0.00683815864008732
0.154696363585826,0.120372840796084,0.0457309317800968,-0.00743347263329892
0.0814260031508267,-0.0538366472959782,0.0447394147880755,-0.00692617916565915
0.00993765756469723,-0.106738806531119,0.0495280786664155,-0.00598099999522912
-0.0145943129342346,-0.0119001621315261,0.0515765297418061,-0.0035056821253572
-0.0240014608789131,0.0879686814186122,0.0516912689063058,0.000940659004984294
0.0426610394472777,0.128009809137987,0.0515160827639346,0.00630379400997041
0.192360778331024,0.0560588472498822,0.040208708558021,0.0108165316192931
0.29329361758336,-0.0145625498858112,0.00966481620618947,0.0122040174967632
0.303328490012357,0.0300737623670625,-0.0300052734912418,0.00931655791645715
0.235224238860847,0.0828375483360297,-0.0604732744826952,0.00446270700797555
0.0779696478367911,0.0555582052922569,-0.0807285985233341,0.0010814326780045
-0.109288574763154,-0.011436268994915,-0.0922728782427325,-0.0010709446309288
-0.264766033946421,-0.0445324874007192,-0.0823038515212733,-0.00460366510141749
-0.310344412429456,-0.00808888944177137,-0.039557637554613,-0.0101888608144725
-0.214245924710741,-0.00134182112931585,0.0190281385760054,-0.015118684903019
-0.141631319320963,-0.145550271915927,0.0601682005056928,-0.0151143771613562
-0.151774286467961,-0.313876328625084,0.0829763329963017,-0.00833328995590572
-0.107266443557586,-0.289196726989362,0.0987797172210908,0.00279986696257454
-0.00287823339916801,-0.153514674104309,0.089018531527156,0.0133738442433983
0.0751476938727475,-0.10746845102224,0.0590050062446767,0.0189393160771611
0.0949265348432189,-0.126015649393325,0.0569996199803813,0.0185371904066886
0.0301158298350583,-0.118419086912932,0.0788689273294483,0.0145796401471236
-0.0584340620437781,-0.0664517040258042,0.0884669501654384,0.00878813768628666
-0.0573407207134256,0.00457794878355366,0.093552305127016,0.00155277956019044
0.0176123459322598,0.0480745651701649,0.0911883155494582,-0.00521168142563395
0.110437324910591,0.0895929970242353,0.0550821409443569,-0.0100024272939638
0.194973025984126,0.183461449929151,-0.0093422809873715,-0.0144117905738947
0.203363280437203,0.272955456356397,-0.0769942168478261,-0.0196173871384755
0.0607555432968514,0.224479560285074,-0.124622064744648,-0.0234332255881375
-0.153970923749821,0.0244281739426245,-0.140480789268599,-0.0229370002290123
-0.214009158470466,-0.132419191007839,-0.129365341040305,-0.0184667993503055
-0.0658767985400513,-0.101738592094294,-0.0957741169594609,-0.0126318147048363
0.112058482931631,0.0235555081449879,-0.0529766828533945,-0.00605746656190276
0.167006167930975,0.121570751146822,-0.017633687296164,0.00173034066404244
0.0762866778318568,0.154435762412385,0.00223198580475741,0.00908834336301619
-0.0536435077415547,0.145511348511622,0.00228614257400554,0.0131994865348846
-0.113393163971158,0.12363856081271,-0.0118690137302321,0.0129208634147216
-0.113876721521442,0.0399583932524831,-0.0203061401719193,0.00979127669339906
-0.0972880808833307,-0.0846335962509149,-0.00607895834495107,0.00629728017112889
-0.068064485421075,-0.139065451037084,0.0154363138385717,0.00408642985943253
-0.0210042177061687,-0.128677353407783,0.0186746681551207,0.0034977700439798
0.0299730011411924,-0.111622169363007,0.00981850954445077,0.00331790871808155
0.079320965312115,-0.0552080633997374,0.00831710041191727,0.00221069514365078
0.137617064480948,0.0593116691101905,0.0100290536999373,0.000622435045966407
0.194401637759222,0.166217981383917,0.00280698164460574,-0.000371475811313554
0.191252287461809,0.218452278941804,-0.00819416611164218,-0.00121832216926049
0.115733399127088,0.226476789706855,-0.0119604556290578,-0.00299752787195919
0.0748650983005876,0.218791087664396,-0.00336568487346035,-0.00507892912180418
0.0977040331907169,0.19773062665393,0.0124720986028187,-0.00535289200022451
0.0697385045414073,0.0974853067600751,0.0187627068608753,-0.00291003015899396
-0.058714153841611,-0.0592646182668529,0.00910619632885926,0.000266076235731168
-0.190750711903613,-0.101439431551463,0.00335775051420446,0.00167946268518463
-0.21685104298414,-0.0838552967746122,0.0202758935047337,0.00234525205182785
-0.127429709330949,-0.257600870096626,0.0540076645580737,0.00530854005050702
0.0130966457997612,-0.576582745958634,0.0904282300418046,0.0103673778883856
0.114864568708683,-0.72683231189874,0.119935257680812,0.0139481330925325
0.0863358460523976,-0.580292161023047,0.122667033950284,0.0134696612598274
-0.0593260185250024,-0.325918668133291,0.0752902039008217,0.00934340679227116
-0.162152086128743,-0.054671387271678,-0.0114047387341142,0.00291463215168679
-0.132417056697747,0.386094277533611,-0.100811206014398,-0.00653641954815135
-0.0569188246195819,0.866777862727784,-0.166877172772801,-0.019557136369453
-0.000192801038725238,0.942672317869335,-0.197976701385678,-0.0309099349321376
0.0522518147528838,0.569664267009902,-0.192598956556653,-0.0322606779453094
0.102118214185583,0.243424146951787,-0.150038229565474,-0.0209566996283833
0.177228462528474,0.238637886334017,-0.0795297972873489,-0.00229149510724669
0.277572086030865,0.233101709638226,-0.00949249759229187,0.0157313428503878
0.315178946751751,-0.0416957744169162,0.0472382931891203,0.0276191912166141
0.25104394757921,-0.345603807778067,0.0945073266288226,0.0324372758208772
0.1354078448097,-0.47404463716764,0.120973603862295,0.0327208375908153
-0.00176996271793323,-0.540092767357085,0.115736418215141,0.030093794974958
-0.176561471640712,-0.558663222625557,0.0905689088355047,0.0238116115618095
-0.347885521483602,-0.477785096682658,0.0676555674842302,0.014162779999404
-0.404107617338299,-0.330132736542341,0.0540085274708811,0.00419407047054351
-0.305378692102471,-0.152593888634199,0.0344748734342754,-0.00275594471985061
-0.128489036519734,-0.0179959022672421,0.00719725009680294,-0.00663851698234226
0.00970024220735632,0.0434133484421366,-0.00762586770056334,-0.00964024135045362
0.0756657600995658,0.0631896612147808,0.00385872992293359,-0.0126568081544262
0.142085151496264,0.042665797279367,0.033000535603722,-0.0151766046909499
0.220663101030696,0.0231791724838787,0.0497042304378927,-0.0166248983296665
0.215898271097822,0.110268498432746,0.0414647261185885,-0.0165096638825299
0.099214989740812,0.289033245519463,0.0201031683059688,-0.0138847461918778
-0.0577931569849522,0.411988272085867,-0.0087405387332085,-0.00878869437073583
-0.208538414401017,0.364887194098742,-0.0422968096072529,-0.00322739837524385
-0.316677698600753,0.214180675819513,-0.0898869321890408,0.000708591063150884
-0.392315723347314,0.17245870307704,-0.149708225177528,0.00139019492274281
-0.48075563732595,0.221166753681322,-0.182901083951996,-0.00105386307979441
-0.502548997729935,0.149022733761755,-0.17001042515092,-0.00373318677608911
-0.364361872043437,-0.0196583343492587,-0.133077103318312,-0.00506097011151707
-0.0959941457175942,-0.0901465743976034,-0.0913870545623065,-0.00648898363211753
0.240452044049925,-0.0432021763306329,-0.045144850347484,-0.00810641067529121
0.513923789522612,-0.0163601323093394,0.00127354072661659,-0.00754588813289781
0.550984907690193,-0.0705999913364064,0.0421852289359862,-0.00343602702801884
0.382918522978606,-0.192129258985213,0.0753540769944396,0.00347577185652294
0.197801760394862,-0.3086166959209,0.0918621342085179,0.0107968133063404
0.0852140035747583,-0.338012277639629,0.0883002264164518,0.0145019630628779
0.00392128657427687,-0.294526969375469,0.0698201655038125,0.0118124210328671
-0.0851544320994571,-0.182936388447368,0.0381294356682508,0.00529099160358344
-0.19513262616013,0.0394672213030235,-0.00599373127348107,-0.000476187774221209
-0.342920313042252,0.310175485334367,-0.0535065377929045,-0.00497406804998162
-0.438232555234837,0.433554124571541,-0.0827195240165961,-0.00911966667028692
-0.361579607505567,0.317751376436398,-0.0796225509728486,-0.0112506757193868
-0.158982818476038,0.12114650047083,-0.0611072094751003,-0.0102655099269345
0.0348767255476465,0.0407608131925461,-0.0471242649900582,-0.00773041456175308
0.144479648186373,0.101747223939622,-0.0392425130103548,-0.00507696582305067
0.181721942886789,0.192579565122779,-0.0299292090526576,-0.00192594367754077
0.180176183892859,0.231401139339284,-0.0162558570670262,0.00173744557403932
0.15423858268023,0.213364116849232,-0.00602028844860352,0.00443389402630942
0.119798966147218,0.163482752027095,-0.000589913691787288,0.00523715462859939
0.0932455100337831,0.132310557333724,0.00767327223625305,0.00470565775123503
0.0790980510355528,0.0893699743893571,0.0144642772543194,0.00399515976406773
0.0554315418657644,-0.0556694858035826,0.00824404433277296,0.00343062683099582
-0.00355131018213958,-0.235384007008973,-0.0067028689972653,0.00193034069897357
-0.0843645026542727,-0.305229547183974,-0.00871457272484802,-0.0012227392613763
-0.12254001977135,-0.288175816432114,0.0187594707505475,-0.00418945974301294
-0.076081145517149,-0.331518421927796,0.0582708891105108,-0.00351178160749682
-0.00351983551237245,-0.464211106694039,0.0734162242699637,0.00162392975973814
0.0290325933776798,-0.49809880439896,0.0543620825300449,0.00721478046485108
0.0450319429471203,-0.287876647334511,0.0181264279569188,0.00864413350810343
0.084523053907015,0.0392893473274872,-0.0213522619707783,0.00574988272515191
0.125377562665849,0.274072619450452,-0.0581164250074408,0.00166281644215349
0.147434480667796,0.352581261986363,-0.0874877478839786,-0.00122705272851927
0.162289564101106,0.357119711411553,-0.0997774598407643,-0.00305309866154906
0.161060332513095,0.352873076921717,-0.0834141723747654,-0.00496618460973198
0.137078017733589,0.276203160487397,-0.0372290896263424,-0.00576724627449764
0.100898104442546,0.115656559026156,0.0275767567837388,-0.00248038950865715
0.0504405245510659,-0.0289274654852689,0.0874761731558628,0.00520096688767098
0.014387873387898,-0.0673323156732731,0.122021607466553,0.0139227592325387
0.035754499886736,-0.00465667582120156,0.12519975527763,0.0196440354158775
0.0990498256808322,-0.00256415284068649,0.102428565833498,0.0199749844481419
0.151130367073224,-0.191151140611683,0.0668542312738943,0.0150531331911774
0.130267275389108,-0.473961193539636,0.0331390265273742,0.00713846315728935
0.0472073319868938,-0.559680117374946,0.0158702337735066,-0.000530215575688459
-0.0291507033724256,-0.31259675900463,0.0130799444265352,-0.00465604113260115
-0.0796325277901365,-0.0214016403717375,0.00513604440603321,-0.00488191229339352
-0.124392749441259,0.0798785611669268,-0.0205168119520631,-0.00505510751287761
-0.177643261467811,0.111802769893615,-0.0593531328367557,-0.00872715817236339
-0.247319428003036,0.22583091812706,-0.0791491251465193,-0.0153691509408162
-0.310200632942683,0.379963714809445,-0.0552225979199473,-0.0198996229626261
-0.2541013672294,0.380696523783208,-0.0126281613427471,-0.0162363731418394
-0.0545105789542499,0.178303445340535,0.0282736748192963,-0.00470974168776716
0.172324572016385,-0.0215997862524694,0.0684480549065011,0.00728405350639647
0.351387707920753,-0.0226525218948086,0.0932923243661177,0.0137098064508113
0.401375315118435,0.133992225378733,0.0865909527825514,0.0148989327459736
0.258147847677536,0.174897809602913,0.0456589335326175,0.0137703797620621
-0.0259283216638951,-0.0221919107786432,-0.00916787711265139,0.0110442734235605
-0.309588759219746,-0.190017094586811,-0.0374985011956619,0.00695857915593242
-0.416494653650539,-0.203421270287077,-0.015063163106298,0.00380581549724151
-0.262932489040198,-0.27372841676974,0.0453692314443564,0.00322027877340705
0.0359997948620757,-0.422879525577521,0.110719908133245,0.00356705929120269
0.242692597788172,-0.418351889376829,0.154105428370394,0.00179620338542467
0.241083299875959,-0.143473539750107,0.152826131496755,-0.00306426623593523
0.172025166027638,0.292560993264132,0.0950029981674728,-0.00916786442662236
0.186014565282791,0.689794423992989,0.00767475003449128,-0.0135396000644059
0.202850475503967,0.83288039947381,-0.0618411527027509,-0.0143421058406258
0.0709311977551536,0.612707292004189,-0.0960118921380695,-0.0124447501018684
-0.216158307716386,0.235912227213609,-0.117580107546914,-0.0105274795001388
-0.479323346377609,-0.0205229604702407,-0.127266180964593,-0.0100075840138642
-0.54885815064952,-0.180880073025324,-0.0958262059315472,-0.00951421579043872
-0.478966455028999,-0.275572532031194,-0.036028265041634,-0.00680845811348755
-0.390464270586409,-0.195958648326614,0.00604830991598793,-0.00152004385733464
-0.282329227962198,-0.0683561101890424,0.0199740929137171,0.00369548686254805
-0.129485567813483,-0.150071118928122,0.0298106045508894,0.00607891753534155
0.0455373359159162,-0.375206384317509,0.0421314959308575,0.00500882633032137
0.175550448755176,-0.461751258386447,0.0631381346806832,0.00131035293628462
0.181297567795362,-0.308566820519038,0.0968022986717492,-0.00140929589920726
0.088716354397053,-0.0150249553543972,0.106980042311491,0.00102058851714314
-0.0167897775459598,0.263366815969958,0.0765517836238015,0.00804697203060431
-0.0721130315677534,0.390279837405998,0.0347436129800714,0.0148295568901613
-0.00930234839849008,0.413657568095608,0.00147510168127139,0.0170544383363625
0.136105332565229,0.467369127222374,-0.0251180924287542,0.0132095937201425
0.219518283975183,0.499542197250515,-0.0437626491846275,0.00406535724127832
0.198747936826833,0.384086090941473,-0.0406126243469309,-0.00657077948387683
0.190930522341247,0.137523143633627,-0.0110282285010081,-0.0135185517014958
0.260893535056289,-0.116155625459292,0.0172665417652462,-0.0146794608415538
0.238582519902205,-0.355069411881632,0.0124422330449507,-0.0117203154213252
0.00212072918407946,-0.594649642417991,-0.0149069730852061,-0.00788951672783395
-0.284164489442951,-0.667148741988117,-0.0395674440987705,-0.00572766144002643
-0.426867122183655,-0.421752763229743,-0.0479010184045395,-0.00506216353471462
-0.382631084268189,-0.11412417757525,-0.0234711331050657,-0.00273583285378297
-0.243061321956309,-0.00844731730980108,0.0136364955481295,0.00341682952323293
-0.10939011123137,0.0359192437417415,0.0190903717377595,0.0090369257332633
0.0166150927159208,0.0256517734600447,0.00435049148672939,0.00771525641106235
0.124623398377959,-0.128442647150181,-0.00169377488719711,0.000266305499459269
0.16225366614837,-0.190593445195036,-0.0170915944350299,-0.00747195453336903
0.167751275659215,0.00865941482191454,-0.0479363736102271,-0.0118611483552763
0.218513361720124,0.282871567175185,-0.0645715118665077,-0.0124149532914494
0.264072476083698,0.391764667470729,-0.0571479777797307,-0.0100148861235569
0.227132304593591,0.28578920087179,-0.0371724679430432,-0.00636417725957944
0.166649432019159,0.103822713907789,-0.0159663361325719,-0.00241452361357177
0.127624208230044,-0.0231739693558471,0.00103626135851918,0.0032688302116955
0.0202697873850453,-0.116135334781032,0.0191173612967382,0.0113297855438431
-0.159074886147483,-0.222622884261718,0.0325868739737469,0.0184227412148302
-0.263415750781447,-0.314738110454685,0.0217476436032446,0.019997226356588
-0.209611740763595,-0.258100894912503,-0.0091652649207168,0.0144311762771951
-0.0847491662510439,-0.0434298484422216,-0.0332888399712313,0.00438274030037233
0.00693660234623755,0.0812710526290736,-0.0288615820176462,-0.0048632985180358
0.0706812882362139,-0.00579381966187716,0.00301342619066183,-0.00912095922150546
0.0945796331146989,-0.138720364369558,0.0294275766987644,-0.00808552748883848
0.0808492236182878,-0.167112128480202,0.0352052156192585,-0.00436599153801923
0.0861767189744635,-0.0880145474135447,0.0301458556760478,-0.000591446909316261
0.121264428398509,0.0703148775316407,0.0110279151383453,0.00178234848598434
0.1968128733007,0.204320849444807,-0.0132788098501837,0.00244725108892423
0.289005274898432,0.159606973636696,-0.0233126896537388,0.00217669877971114
0.269066380652956,-0.0265261829519471,-0.0173837544263052,0.00212123691894164
0.0428117099029574,-0.122060801025201,-0.00788978732414067,0.00265406935375855
-0.245213684675462,0.0181621788152802,-0.0135528989476832,0.00309585492254987
-0.291154829194826,0.241027902883261,-0.0184568640744214,0.00224087280093134
-0.0449288154574419,0.247221554411411,0.0248013647999152,-0.000338214486067622
0.205994070316325,0.00400292373635486,0.104585338375515,-0.00259629470631447
0.274961744638604,-0.213741771120576,0.155704990368235,-0.0017046554368021
0.217097273664216,-0.241192625404717,0.149051013004257,0.00189734335844949
0.118403727252581,-0.174682613209949,0.0915412246866438,0.00461301862578214
0.0460056055498704,0.00129927090204998,-0.026461360069442,0.00343557743824985
-0.00553970929336908,0.353765942981326,-0.184863050401714,-0.00251367185167062
-0.0933912783536425,0.599431822193506,-0.277546440622653,-0.0124874066513742
-0.155862946139769,0.430108825883373,-0.225115376413228,-0.0228731344371914
-0.111036773412712,-0.00798414626629496,-0.103406463806518,-0.0269203495362204
-0.0140496429753909,-0.297768107539616,-0.0370691355958998,-0.0206920845732234
0.0235726505686735,-0.293330287750964,-0.0278473517309482,-0.00763532738817119
-0.0273386998580575,-0.146652807132914,-0.0105557571282142,0.00671920617909
-0.104102161670153,0.0116168424594102,0.0169899469134745,0.0192790299193104
-0.173736070471796,0.0835585941311457,0.0215115100499826,0.0271594892886886
-0.207848782042289,0.0974687385382001,0.0093839690977711,0.0281664862200288
-0.162551060720975,0.143996915762517,0.00176832061725085,0.0233617962435605
-0.0629523489320037,0.149617107904205,-0.000928692788729146,0.0151819922287845
0.0406717792777221,0.0737576573332503,-0.00201530383330088,0.00549375172587901
0.131209641757256,0.0147080410923311,-0.00411128322310961,-0.00295701754869093
0.178564331464027,0.0135419118305955,-0.0102828924302456,-0.00747721544913422
0.149100695922029,0.0449487633380238,-0.0192952348935763,-0.00901629959761311
0.0836125943132047,0.0704640045963111,-0.0282158815708638,-0.0110936749770539
0.0359687175061834,0.0343078069661891,-0.0273715232691103,-0.0146454469067134
0.0142424658908965,-0.0625575035401353,-0.0126331633446705,-0.0167232291851162
0.0226075638618102,-0.142061088225825,0.00598666946443589,-0.0142442152062864
0.0724765597617597,-0.153727747564791,0.0296897393250893,-0.00709500713105845
0.140085758830125,-0.1789221486018,0.0591309117931819,0.00241281001704449
0.162449960330903,-0.230894635806401,0.0729469303125942,0.0109824008919883
0.143499865813666,-0.13638928881351,0.0554901011515218,0.0152387638636419
0.107672896523867,0.132293727108,0.0130735574973056,0.0138644197269031
-0.0473028808694146,0.301198554466534,-0.0456978933821648,0.00786112933606601
-0.400130016320133,0.155019035690407,-0.100419654719477,-0.000462301868370929
-0.730192696510846,-0.19063595873477,-0.125565485228541,-0.00766650278285182
-0.718739051009184,-0.404735035174578,-0.127583662532982,-0.0112442440068278
-0.432548047916298,-0.255859366597407,-0.117917344976635,-0.0111994316077375
-0.148954537806665,0.0986151354331163,-0.101680844249277,-0.00954839922561854
0.0416155161194034,0.368844422270978,-0.0879979501427484,-0.00828207200548585
0.142652254203262,0.462725144301102,-0.0735315678505632,-0.00699494020484973
0.214937194670232,0.375729781117226,-0.0535775072813565,-0.00406023479563759
0.322865505533215,0.0997615350153662,-0.0339188391610884,5.76836347468222e-05
0.36522513273213,-0.205242225113707,-0.0110360314280349,0.00361559439463339
0.266129480858213,-0.333664498912624,0.0281226959318868,0.00721151660312019
0.130606348755013,-0.324183554966602,0.0774661135194448,0.0124993454241892
0.0506782024671332,-0.279086908340936,0.113113192039872,0.0188061687857472
0.00949693372510729,-0.244958858774136,0.102757797086013,0.0234282870516594
-0.0450255452794404,-0.177948980335578,0.0473766189111484,0.022848832626416
-0.139858501832632,0.0205530706635614,-0.0117972450715604,0.0155901914500153
-0.236656792047693,0.228223587895057,-0.0566180641148227,0.00507225276060294
-0.282987748574546,0.257848312769958,-0.0808607410048212,-0.00390177357725468
-0.278075018390109,0.130467090642713,-0.0748455423014095,-0.00987889839818155
-0.276327590366411,-0.0283929974047819,-0.0509091850329151,-0.0132537020926952
-0.257040279639759,-0.12765774738035,-0.0252339476325566,-0.0132994900653401
-0.108315725275396,-0.134824115998125,0.00306501544716897,-0.00949014627966631
0.0966266983048896,-0.0657779315884717,0.0350368275788314,-0.00346793396552075
0.211760840696729,0.0101108426101627,0.070710887323196,0.00251014028624825
0.276133310020962,0.0613031866310709,0.105793771109535,0.00767077310615573
0.337214167576426,0.168647789223101,0.121279770131306,0.0117070083817556
0.323771935199566,0.336326920711767,0.100497811705159,0.013539687594552
0.197175079714568,0.383220691572698,0.0350895529346963,0.012312674965277
0.0335812078754993,0.271402015799305,-0.0536567989865427,0.0073844767690835
-0.105822991745909,0.126714972137894,-0.11096989657485,-0.00137489111738301
-0.205540747779804,-0.0834605586586299,-0.114497815915974,-0.0107360539576297
-0.250926217533325,-0.367169129960386,-0.0925016112896922,-0.0155585259738558
-0.244324876128063,-0.53183901418611,-0.0657216012382527,-0.0143740489058329
-0.173462778798371,-0.504060061903172,-0.0386131576364093,-0.0100950300864358
-0.0243628680499446,-0.40901677757133,-0.0214748014396287,-0.00574357126439888
0.144185904826253,-0.243605226993792,-0.0159106774592783,-0.00205713576165764
0.237005432548504,0.0546863759165314,-0.014335491061454,0.0011254676293111
0.23027834256011,0.267876967817555,-0.00336530421357977,0.00406469438205988
0.183618488371633,0.108579835986939,0.0281401766600678,0.00744018498211948
0.155070906227912,-0.248772129883718,0.063541562673039,0.0114079079504896
0.134204771127575,-0.341521955082569,0.0807595406437147,0.0149730637827014
0.117856681885754,-0.0785026404008627,0.0746286610523088,0.016659060511852
0.117237932538031,0.268948948039471,0.0395540602840421,0.0139708062283522
0.0790111758584956,0.457440395508027,-0.0129388733246397,0.00470518458303326
0.012305025335329,0.49375805100833,-0.0434188532706185,-0.00866015025793108
0.0180948784087174,0.437758160018426,-0.037106692273228,-0.0196319260410148
0.0886655741248332,0.15556727459087,-0.0286142489802929,-0.0230839338697563
0.0938679184312428,-0.266546707530997,-0.0441355372898526,-0.0193185078581144
-0.0341292263915035,-0.489925183529374,-0.055524383930481,-0.013326910698026
-0.160937571902921,-0.44659489099102,-0.0330696357744925,-0.00841396333221275
-0.13270295128743,-0.317449145194261,0.00455401729351232,-0.00347780453381693
-0.0311551497704902,-0.216029931044007,0.0336653788846817,0.00268456342711987
0.0215010540948862,-0.132776437719928,0.0607550172901582,0.00912643516757838
0.0572154212261148,-0.0326417593324878,0.0878409780305224,0.0141333013855599
0.12619811649304,0.0401472865591183,0.0941994886814731,0.0166367032919929
0.204574935789085,0.0514465555085989,0.0690662900395057,0.0162563203827341
0.258660707650978,0.0455280877933584,0.0220548769203669,0.0127931032022675
0.287283623354437,0.0297500074898949,-0.0295428669770943,0.00698147950869475
0.260720494488306,-0.012138187663239,-0.0815004178668239,-0.000349512057054968
0.152861707752864,-0.0413967350619584,-0.135269020209429,-0.0104065795529236
0.0345907200251192,-0.00891153332197304,-0.152485220272856,-0.0225446381435093
-0.0220228678209052,0.0466314944615884,-0.104352516560753,-0.0297935974942891
-0.0745919608946375,0.062291096530447,-0.032711141448587,-0.0260158028316224
-0.2029121971133,-0.00424258644971845,0.00927856850865533,-0.0138777934158702
-0.302931327860103,-0.174593193305491,0.0214968441402557,-0.00116710787559421
-0.251648189452367,-0.294647639421122,0.0308404128736442,0.00632096037746746
-0.158209941582026,-0.198934940408855,0.0270979565023074,0.00753731612858545
-0.141159312635722,0.00337871884018576,-0.0102207600879642,0.00448121195901517
-0.142834765141699,0.187229613868282,-0.0486871571799253,-0.000244330799377214
-0.111300480612265,0.294903971097196,-0.0530719943864895,-0.00405201129413513
-0.0512103072763725,0.262159073609357,-0.0361836104869213,-0.00478682321961793
0.0514738835807595,0.203051611379603,-0.0168083167451988,-0.00147152418054074
0.160932045939883,0.203154659035535,-0.00278333299086635,0.00424430741948436
0.252762215122398,0.156426180147665,0.00474994797571976,0.00727830891479572
0.339316547605861,0.0411926115049787,0.0135764981854686,0.00448681080115878
0.338013583362959,-0.0336052879942976,0.0254733634037807,0.000377885250709203
0.176191581258227,-0.0753526341894672,0.0332528377861189,0.000743824886286806
-0.10502132397602,-0.169276499137601,0.0385675360352008,0.00500617649829753
-0.377215606998064,-0.278930076780387,0.042912610270458,0.00921361673094379
-0.469689825600506,-0.315493277256094,0.0346665607477172,0.00977408346672028
-0.323628827372376,-0.217214966160244,0.0183606350772716,0.00487208571443608
-0.0757901289491178,0.0463364571045625,0.0156701658476233,-0.00268625096396972
0.0764166915376089,0.344588675925161,0.0256659741502673,-0.00675392449065656
0.0733566707539046,0.435356336853754,0.0210426077194944,-0.00436128342008868
0.00356687233575435,0.251813430296654,0.00377463256298113,0.00178209400447934
-0.0204923345679005,0.00408449597245142,0.015897769042195,0.00715165928021811
0.0356942817011581,0.000771809185365874,0.0613270637183299,0.00903332643792819
0.103824532312414,0.202730534996562,0.0884531220921501,0.00712390328364604
0.0880567208279581,0.194039764429407,0.0660616864371484,0.00140906705137564
0.01095926494261,-0.0781839499396053,0.00708946845277025,-0.00854324353324416
-0.0361144311271754,-0.202544115955919,-0.0467059772769338,-0.0204460911182243
-0.0820376770551442,-0.0200646940632142,-0.0827637889204814,-0.028581309757257
-0.128298148003891,0.159471030673314,-0.125676205158852,-0.0289225572709905
-0.10576404115125,0.0873804528209454,-0.146703115128719,-0.0217564511126286
-0.102484359953759,-0.0268565937194725,-0.0960390988722128,-0.0084438352395135
-0.217417779527403,0.0624250598948478,0.0105170126120435,0.00846691974038929
-0.343987677016458,0.292031387403159,0.104756052111881,0.0234765521598315
-0.355861888927468,0.45948534363553,0.147129579570646,0.0318940365799869
-0.208861360621141,0.435087694151352,0.160824161908348,0.0338988083635583
0.0524519913213226,0.152253256444124,0.167078678391511,0.0320119748805366
0.280962868368247,-0.311379998269886,0.158962125960439,0.0268486181345195
0.408169098619131,-0.672562391784193,0.135343564476213,0.0189342864683786
0.429640193035258,-0.747740210266672,0.108016712397194,0.0102633343079388
0.296478230878269,-0.598307254439429,0.083226935568111,0.00181381326688665
0.0757000381539687,-0.392158773359885,0.0451652651809327,-0.00672381243528048
-0.0510638596452976,-0.15971388857022,-0.0051379132614934,-0.0155336469003045
-0.0733387313551599,0.0219533963361911,-0.0337433853190213,-0.0230636489643721
-0.0807877610250955,0.040681513564772,-0.0255970329665078,-0.0263551831760669
-0.0692786879898746,0.0160060772192308,0.000703354257197947,-0.0254870582839721
-0.0731268682041827,0.0543622565678613,0.00906722054346003,-0.0233808915202773
-0.14458785347409,0.164328144004818,-0.0176911813108894,-0.0201630649286311
-0.216792500474906,0.399525071082104,-0.0560568031866937,-0.0122484540715038
-0.204885654289716,0.607836553618817,-0.092741179183312,0.00182424472479972
-0.148344032899095,0.567363236118344,-0.118571910268749,0.0161942679463243
-0.0862683854310444,0.429415267356318,-0.102144137370158,0.0232516006390646
0.0191443156699356,0.295412623234198,-0.0548240490631938,0.0219420143436831
0.125241979593019,0.0278632570826169,-0.0128831304780878,0.0160874623881084
0.166053302359754,-0.255434821401268,0.021878616422296,0.00922521663554064
0.153921719643924,-0.242607920482953,0.0462757118677672,0.00284430595383934
0.133664294541026,-0.00326368213494992,0.0492780223557998,-0.00262737853738868
0.139394516810833,0.125196377610487,0.0509152584229302,-0.00635976806633332
0.163587010396674,0.03111511210786,0.0767351988996478,-0.00705292151984626
0.194042222184799,-0.246211913355086,0.111939134941514,-0.00323181579020288
0.214652564809868,-0.568592188805419,0.127238371195323,0.00474284939374856
0.204198126955364,-0.700388192250019,0.124741883149289,0.0120787531394427
0.193004042840669,-0.618383876597289,0.109272668014007,0.0133472334003514
0.182739734183998,-0.410107017438535,0.0615304980732135,0.00719215786480993
0.111755764749185,-0.0043693246514821,-0.00813670981158168,-0.00397865274993446
-0.0533959159137699,0.435413725411295,-0.0659628321971405,-0.0148567450660063
-0.277315056700902,0.489066512358494,-0.101312894029998,-0.0214900535403851
-0.387548546434038,0.261789699585642,-0.115691139075386,-0.0241446668315169
-0.27370905501323,0.214118906144111,-0.121725230395629,-0.0226743021294792
-0.12529603367533,0.219124422398259,-0.126236588407593,-0.0167002328780137
-0.0959901141891598,-0.120115738510428,-0.104147377980729,-0.0104049853538843
-0.0902760271800457,-0.581088153312031,-0.0459774537782294,-0.00870472815540894
-0.00526944955704087,-0.542842786807447,-0.000974169718872514,-0.00949541998419723
0.123746271115319,0.0057829850010811,-0.0175522060926863,-0.00682128586672515
0.161187302359261,0.402897450636203,-0.0630630181517914,0.000118736889677156
0.0396980826761155,0.435582784863133,-0.0737400860597436,0.00833415719371082
-0.0833541912314926,0.437905577791125,-0.0369793093708987,0.0154953221691935
0.0193741966916164,0.494201528534272,0.0361051294200457,0.0196643406992892
0.297961052863103,0.489272369635434,0.107880582210311,0.0207072365139893
0.4456310170424,0.329417768182609,0.117210594424845,0.0193593149373658
0.295847561949084,0.0277448033426381,0.0489365890418373,0.0141093422940523
0.0242551771188874,-0.146579338469018,-0.0394943943075088,0.00396206907513959
-0.183507594695312,-0.14912740663088,-0.0839301258087227,-0.00730053703017869
-0.341703989241602,-0.283958949026067,-0.0947187700080623,-0.0145532560603823
-0.409367243739772,-0.515555436653277,-0.0921783055387025,-0.017227846688715
-0.328501426683196,-0.485732866314848,-0.0585572439390547,-0.0174470214599364
-0.146130574300685,-0.189853861906268,-0.00312186515648513,-0.0152299815806087
0.0769297342828626,0.0716541426532264,0.0492223558357565,-0.0088527051658869
0.224465581079533,0.163212035113388,0.0982519249361987,0.00167138353058378
0.166627359307329,0.0777732921582442,0.135895334822634,0.0135032932745119
0.00408593989032033,-0.0805780233476887,0.13539784415727,0.0221753015059588
-0.0565451622426345,-0.0893388383645036,0.0951603409607406,0.0235022724701579
-0.107522283346245,0.064156083502122,0.0280168627951222,0.0165235292944287
-0.286484166840398,0.136807043428146,-0.0712618380817443,0.0037346669541258
-0.404860275894421,0.075642839373818,-0.177573599111187,-0.0105190378756687
-0.292201178064333,0.0483736750516916,-0.219990921579409,-0.0204274139155557
-0.064723815232342,0.0805211127195441,-0.179530462547367,-0.0215852634389807
0.104349047417943,0.134166402921322,-0.12603089939206,-0.0150067430215529
0.176084536945721,0.171071539169921,-0.112298350149651,-0.0065738097277177
0.172371741814334,0.106803602992554,-0.117200216040352,-0.00128839631959689
0.126523441067971,-0.0421608905475785,-0.111321215146087,0.00117301833943154
0.036080353002124,-0.114762605942234,-0.0892133098850204,0.00366878995419981
-0.125214713969945,-0.0570226022743149,-0.053323080978313,0.00701761596285225
-0.254118784689158,0.0219151054316932,0.00199944599496479,0.011069069387676
-0.238424894248535,0.103967830348724,0.0832927383016731,0.016560388825538
-0.126874300463787,0.161492366771071,0.156698851146213,0.0230419713899198
0.032746373198684,0.0958219040003772,0.186489783311397,0.028786205722758
0.200132826025986,0.0369196428194299,0.183371708489587,0.0318246935717637
0.246368696687132,0.0959518617825012,0.154270973989742,0.0293803251867413
0.188056733366067,0.108206755297783,0.0855623202882608,0.0199825420521209
0.130048607677518,0.0740243909082756,-0.010798141737438,0.00546871383650488
-0.0326432751059546,0.0198288653150646,-0.102618864822875,-0.0101756309819792
-0.334860796929676,-0.173635802010369,-0.173057681627768,-0.0227266227932796
-0.49929506645261,-0.304237940793623,-0.2135260987986,-0.0300495189941838
-0.362034541158723,-0.175601009483188,-0.202251653388267,-0.0329612275793374
-0.149433914788713,0.00238970161404983,-0.143211723908965,-0.032366697341843
-0.108428823629088,-0.0142871338740371,-0.0682519192195458,-0.0267208286129355
-0.102747072370271,-0.26332616780953,0.00413113128612927,-0.0147883601379786
0.0600585096206612,-0.528090862433152,0.0490569421929304,-1.9881424956493e-05
0.278348193426783,-0.543933637546274,0.0583895017399355,0.0118836758917207
0.425940411774927,-0.31497405575933,0.0480731023412036,0.0193706757316242
0.437587343992496,-0.0214166390042339,0.0184452096463973,0.0237435629765937
0.309119214679501,0.23392970315218,-0.015428669431036,0.0238712971239631
0.164683102404393,0.39210355484003,-0.0210654226539375,0.0193051066324997
0.0798306185779611,0.354751246891326,0.00175900241917499,0.0144167385865842
0.0223183701620052,0.124872887349222,0.0328792960274101,0.0117037643755622
-0.00377336428740213,-0.122308948265897,0.0591360242374624,0.00701243289217319
0.037484308711117,-0.209126611156089,0.0675726524819807,-0.00228531910504439
0.0701509414859959,-0.142064087732966,0.0549067716024588,-0.010691169087288
0.0112784136677838,-0.00616924281723541,0.051450527710973,-0.0114968725470989
-0.0710215227575295,0.10455252364876,0.084246472309318,-0.00505283939481737
-0.0845252101437741,0.0721485273625154,0.122615472331843,0.00345152177078772
-0.0216901462049101,-0.00485793919227709,0.126178123325815,0.00849369777804431
0.0706013632140705,0.0982830182837894,0.0851320933015672,0.00681732391015895
0.107030840810702,0.275302250548544,-0.0141697397690054,-0.00013377250218928
0.00796389314912761,0.206183186036932,-0.155106971245977,-0.00924949769362342
-0.177265792658701,-0.0117839639187045,-0.257604793010925,-0.0195663730230343
-0.28922943068899,-0.0219171927169977,-0.261392189535805,-0.0298198203356095
-0.229978692496815,0.0454628368696811,-0.185857481586399,-0.0356826980351888
-0.0549115931202151,-0.125121923859398,-0.0831565750254541,-0.0315351438729401
0.0844808332937065,-0.400698770695507,0.0118278958799396,-0.016315154347446
0.130638770232828,-0.565461338441158,0.0994966360290594,0.00338286427590746
0.168002808679624,-0.63857542446822,0.187471633457863,0.020011334615618
0.230961427670213,-0.629456562414896,0.247880604045856,0.0318242993147741
0.273607101129,-0.443471684189716,0.256056995108913,0.0396820218765207
0.326190154160884,0.00329167935925845,0.202720170107621,0.0417884354379477
0.418489494374216,0.582718824451644,0.104899550910243,0.0341682106302529
0.444875055135515,0.961814024286128,0.0216281632426986,0.0176525573776091
0.337777483574584,0.853899530708723,-0.0344148734191347,0.000485081782267791
0.0944416521255236,0.359272673594633,-0.0552187243269431,-0.0114597397417809
-0.281740483829471,-0.0625433902501749,-0.00340373102358281,-0.0183348895605329
-0.596940538819088,-0.340365029962977,0.059305351267942,-0.0204933566072139
-0.621260680292971,-0.621842599777873,0.0493152715045167,-0.0191384833890578
-0.414403104037023,-0.482639347254975,-0.00817843263800369,-0.018057100193855
-0.186453059468156,0.190734636424181,-0.0664086042253131,-0.0191200064180701
-0.0160196745001453,0.636579228090491,-0.108153375047902,-0.0201355282650191
0.0388329925664695,0.440615288549844,-0.129808069677474,-0.0179412186076473
-0.076834312360956,-0.0588641374194356,-0.123757852525499,-0.0124299815880921
-0.215250873641244,-0.420368904403992,-0.0523384687463787,-0.00619516957435734
-0.232541082977247,-0.415295464670483,0.0701443930965865,0.000855780347274897
-0.148849506832532,-0.0914369534875764,0.172127469874595,0.0108467252641402
0.0983029772125587,0.370282703224909,0.21452628202182,0.0224927329035484
0.484143712866927,0.743118190729073,0.180605841111706,0.0304792466349458
0.629915573816771,0.739280988109167,0.0765973248805492,0.0289797443006463
0.392196403320551,0.331446454584306,-0.0465353752965925,0.016037827352672
0.195801474436805,-0.0893197533574299,-0.13523517784382,-0.00389871103041597
0.259910813011126,-0.205495408253366,-0.163458555481162,-0.021406336068255
0.212215326345537,-0.217089819121393,-0.129721659129716,-0.028247556352627
-0.123243869137507,-0.314613327413597,-0.0602561574360107,-0.022946587025381
-0.44759866443331,-0.252101189647599,0.00321823924027195,-0.0109490129914702
-0.547904812072164,-0.00564631823836173,0.0430026365408736,-6.78836431976491e-05
-0.460470231073882,0.106561375191456,0.0674381147250138,0.00598672763849748
-0.257464315022035,0.103445678597628,0.0757219939844931,0.0085747201495554
-0.0145187096277761,0.19386427959035,0.0515225112207643,0.00904210488228765
0.0798978010835377,0.278354868468566,-0.00340894681855916,0.00678787093493229
-0.025184257550003,0.197177928317214,-0.0404115040249148,0.00243292107928466
-0.0551669628786119,0.083652279819574,-0.0221436935192236,-0.00148891835359291
0.137514522233413,0.0996974456625985,0.0291947817930923,-0.00265884275865389
0.300789748784702,0.0798853482792625,0.071714234476159,2.42287480424486e-06
0.269116783783098,-0.0338013985635209,0.0891149004111083,0.00365714275897789
0.167191997367689,-0.16311761719975,0.0773443947933202,0.00362146221772814
0.0262195470955469,-0.450307044421067,0.0207264845292538,-0.000333061557681645
-0.169077308945613,-0.67230048983307,-0.0507946846300486,-0.00578430076061797
-0.309392222870903,-0.465227489215781,-0.0809437286024701,-0.0113524329148541
-0.30828256823148,-0.00484230715393652,-0.0856869688989901,-0.0159447478151746
-0.138626756469986,0.379754089701253,-0.101028569813838,-0.0180726255977389
0.0846121759546685,0.512071110499807,-0.103176275371956,-0.0156879711546181
0.159905155816899,0.42382528800234,-0.0630915327231303,-0.00744309580692262
0.116674817184898,0.330640977078972,0.00824444042221824,0.00436759220491446
0.0973863249500074,0.206775144421091,0.07095385476679,0.0147141865411529
0.0809954312881192,-0.158599723988007,0.0942165566672178,0.019123889217991
0.0183364361144712,-0.57488219991094,0.0901315522501186,0.0152650448588455
-0.0699417494884731,-0.748870305151154,0.0765129599686767,0.00619321160726645
-0.166335269905112,-0.664526653100686,0.0477974511330464,-0.00142815851029062
-0.191169794887617,-0.224286391873642,-0.00116740492665268,-0.00529205579656311
-0.0475987525486117,0.509895415967853,-0.0474770302455551,-0.00756971990726962
0.185184360923377,0.937263196296957,-0.051337910295954,-0.0088019824104251
0.355602691194877,0.778216222999076,-0.00914729251959213,-0.00654061785563261
0.417443432521921,0.43173986275388,0.0481222219251505,0.000619850281150329
0.406047162808135,0.175224700068321,0.102304096822559,0.0106507206538372
0.287008932214438,0.0124008283017016,0.127939848766321,0.0197725264899391
-0.0349793223517196,-0.185618644613255,0.103851883560236,0.023855559832725
-0.419601439440847,-0.364345889363011,0.0595788641987475,0.0207510180615624
-0.625855933583131,-0.345193568439111,0.0230034429469793,0.0129596429993882
-0.681935438829814,-0.359012466596273,-0.022438168546199,0.00472727117616293
-0.680923203755246,-0.52924415802035,-0.0677344804783783,-0.00173389535126196
-0.521522189637741,-0.522936008447249,-0.0665657002689301,-0.00580243967368132
-0.0988199604038767,-0.228766535167546,-0.0177428330095578,-0.00824346362704036
0.426301789606468,0.0822324324862008,0.0337149280638828,-0.0100894884811523
0.752035896929283,0.272788763345168,0.0476478897389613,-0.0107742481084038
0.729523104913722,0.344140062664492,0.0165746517346109,-0.0109208325793668
0.428505967512155,0.283694487830604,-0.0415433906312508,-0.012943057498585
0.118982857390805,0.243386845438598,-0.0957540657673446,-0.0160478533503578
-0.0140329457592361,0.364454806230002,-0.101958926002205,-0.0168751594173318
-0.133373636803391,0.428619653149235,-0.0569416942847595,-0.0140926619905688
-0.335992424918832,0.205223556575709,-0.0285606635332426,-0.00836499265072024
-0.382277693543741,-0.150949476791102,-0.0464599666641174,-0.0016239485314067
-0.174861412441557,-0.382855919512586,-0.0500885419579746,0.00369941647711314
0.0290456758638291,-0.395258968790565,0.0016831397277022,0.00855200934501928
0.016322751021749,-0.268371050817935,0.0698785410594661,0.0160316079331491
-0.114722905509672,-0.136878801546685,0.099862110860599,0.0247212473408719
-0.163601721370641,-0.0634698113346034,0.102304411705312,0.0294720130885909
-0.10850541408831,-0.0331747511722878,0.106344264117685,0.0281076261732769
-0.00863886802977912,0.0449041877778448,0.0955165304181413,0.0229681026188871
0.14290952384977,0.141867462628095,0.0810925531420081,0.0165563436988798
0.312615462595619,0.16228074008587,0.0767383535987806,0.00950033831955155
0.367884064007594,0.21064607711212,0.0290661668103443,0.00146644638189615
0.204523965903907,0.30093894074057,-0.0807351607336505,-0.00850990099993074
-0.147487480885072,0.265891196552767,-0.180037390472086,-0.019160546636508
-0.471842746538183,0.148215028925017,-0.194653227755921,-0.02591501708688
-0.450730368535222,0.136698774311259,-0.154605891566469,-0.0265161026206867
-0.077019428454243,0.200065006271245,-0.126276324570223,-0.0240743033118393
0.249792027020455,0.180694908691716,-0.0897498330474681,-0.0218472358169397
0.333844335849699,0.0895208748237505,-0.0208480200805881,-0.0183428597788616
0.362202848055086,0.0650507280860573,0.0369005608766503,-0.00982139665072645
0.387413139413197,0.0326835670341771,0.0429816504425885,0.00268444313002859
0.194586484024529,-0.18442282071582,0.0106820449986503,0.0114356314432531
-0.240731860143461,-0.381727362057726,-0.011793392191218,0.0108955567242477
-0.585194062696422,-0.409894444979446,-0.00941675372440243,0.00496723864953601
-0.665601097611912,-0.474819340907657,-0.018202527955858,0.00153094496744289
-0.612717204843546,-0.513896848707281,-0.0470920471433844,0.00315978876698053
-0.456532860834802,-0.341268844996129,-0.0574285581877481,0.00611670454611275
-0.0967902568399739,-0.0590632990009092,-0.0248823527892188,0.00657609317143462
0.391959579057428,0.240265288999462,0.0273243625741207,0.00441384799700435
0.757513053581371,0.451762620291668,0.0657473788334175,0.00236167354291951
0.858502802943142,0.402980889812146,0.0893039165451825,0.00274729536459389
0.654022824783445,0.208604792001958,0.106343956146418,0.00513640107515285
0.207816987750252,-0.00827380925730575,0.114149206876617,0.00792599057420712
-0.19985323916151,-0.302723049543736,0.105453034942097,0.00945184258751794
-0.359702414247832,-0.425506758475319,0.0818998030817157,0.00846358883777986
-0.377206397563144,-0.104426782140278,0.0440734942361196,0.00578348270242934
-0.452225195563256,0.301727424266598,-0.0369786924563192,0.00190874428966408
-0.455594179726154,0.38603221689819,-0.149611705829175,-0.00438739610296058
-0.158366790404958,0.383265238255933,-0.21088502688505,-0.011654112480072
0.150214594780131,0.363237435035967,-0.174788875109765,-0.0154734516602173
0.16697179942489,0.0931977591690845,-0.0813729429673829,-0.0140087960752518
0.146601077677496,-0.141102675406004,0.00135099980859676,-0.0102398938209983
0.271430766955744,-0.0638465430640585,0.0437816468858172,-0.00774075838635939
0.374325250963686,0.0181641623711462,0.048117270171762,-0.00641996332801492
0.353835916435056,-0.11300077085236,0.0357422966947376,-0.00411881632314403
0.212407754911627,-0.263260738384153,0.052086603337803,-0.000209163809484322
0.0287916934455478,-0.224557349652946,0.114524322822431,0.00540519291098374
-0.0505666506718503,0.0231887627741633,0.189652347034253,0.0135135815358905
-0.0161665238595945,0.262969402296928,0.219899286333424,0.0220011769499167
-0.0534440964534722,0.31650340875232,0.153138149953948,0.0249132870942902
-0.308688494139422,0.197661461805821,-0.00949884350724434,0.0174642257216197
-0.628617547225503,-0.090914642846292,-0.189703767729559,-0.000480444201024159
-0.70379938342759,-0.305230200781586,-0.288494043926453,-0.0241504337817245
-0.408534704714505,-0.247657203128316,-0.284926398169102,-0.0443698378209879
0.0994767421315417,-0.151487420063121,-0.229620681620596,-0.0518568892811347
0.531170030191759,-0.0768984643470174,-0.158210479636473,-0.0429597967301313
0.67788833722345,0.0967925585490386,-0.0791181240050711,-0.0214455538313742
0.556479905702857,0.22044187339627,-0.00484965639658669,0.00278093401897104
0.371423709088364,0.145925185081113,0.0478285223994177,0.0195647258067721
0.212962353276736,-0.00782913008644175,0.0710990515141636,0.0263590382315243
-0.0111143936389498,-0.135428357301579,0.0653792762523761,0.0276059308788336
-0.264882204186058,-0.205954748151153,0.040475815794357,0.0257344218279108
-0.456504376700372,-0.154761691680066,0.016811918866792,0.0197126610302079
-0.533714220762031,-0.0432500648810534,0.00476340233378483,0.0120245710029568
-0.384667000098634,0.04900656751669,-0.00101959745070701,0.00673202102685397
-0.0346834066231274,0.151378516572919,-0.00396526524555887,0.00359012381607543
0.28599298119621,0.248596479959122,-0.00659267270364557,0.000382604750943032
0.325672370009996,0.278861979701192,-0.0151198280762545,-0.0037341518100381
0.118431125816676,0.237594718722321,-0.0276662861001308,-0.00873462293328533
-0.0534719112941613,0.185866061110551,-0.0291100786402993,-0.0133214298831764
-0.0905962835723876,0.220157889300984,-0.000225702690000011,-0.0142717396442854
-0.0414713231110917,0.310589716161571,0.0595410409826391,-0.0092278086385511
0.158928632994305,0.309897161799326,0.124449848438401,-0.000464996682711088
0.533426739533323,0.222201301112456,0.159726710167225,0.00590785671271904
0.796714897585006,0.0952263106908651,0.135451120288212,0.00561838419853061
0.643368428766828,-0.148444420788477,0.043168307104702,-0.000302081339077337
0.159448338806696,-0.541788563818026,-0.0868414338544137,-0.00784670458180193
-0.407346485641699,-0.918167265238708,-0.195541709827848,-0.0137345441509237
-0.970035351785866,-1.01187904988614,-0.234516379145407,-0.0164496250795971
-1.32463962713351,-0.724729553733309,-0.198663571219285,-0.0153182363619366
-1.1373157749979,-0.219214755625469,-0.115397883264029,-0.0104898247468104
-0.483391218497309,0.276016496763094,-0.0179156935262727,-0.00363147177188308
0.230556563509093,0.564503428672264,0.0540980207862059,0.00367314468209825
0.642615503414749,0.682224269943245,0.0879626022456122,0.0117884227715774
0.649931616360223,0.867612714108139,0.112702162206587,0.0210054461063607
0.45769550978309,1.03848612840872,0.140342703742193,0.0295151787779212
0.227631810209051,0.879855180194901,0.152077036673754,0.0345432415280863
0.00513204271546247,0.180515692530809,0.142226920348593,0.0335147587691271
-0.0785594816851757,-0.822940860303745,0.124457362577315,0.02617220124846
0.0140242084131689,-1.37757365037417,0.111015306963897,0.0162125787996817
0.116463066247602,-1.1024178537567,0.0941675417164057,0.00785988363808396
0.0504720789428274,-0.479881259231181,0.0425784583708846,0.000737039981349601
-0.24686567244779,-0.0484163360605114,-0.0419739845876199,-0.00972413723154096
-0.612813798515486,0.217632267486827,-0.120602541356307,-0.0245753377204566
-0.73841002626587,0.376603491326757,-0.160827455095722,-0.0370415946536054
-0.57325212366355,0.359426790425208,-0.146205209099341,-0.0388027842443397
-0.442632389385235,0.20517289696252,-0.102519124888384,-0.0287136606144569
-0.39360314769474,-0.0157283654543842,-0.0870539747997159,-0.0139329570114524
-0.0218978470015322,-0.171251641002875,-0.0920111996374019,-0.00205270075682588
0.612022016721229,-0.240341767938383,-0.0464517422556396,0.00571973293963433
0.969764120369146,-0.263672441121715,0.040144783177821,0.0132225037978091
0.92006506028589,-0.179132829981306,0.0966357674694283,0.023242012970271
0.66303281788391,-0.0253199077190945,0.0984135338153584,0.0330558504986402
0.297297944010493,0.066136224236234,0.0639532738688913,0.036822043825083
-0.109001668901593,0.0557016442766046,0.0292646956015012,0.0315627329275832
-0.421168423410089,-0.00969008264417023,0.00875479156121766,0.0190456637395582
-0.476308116429241,-0.0612226593198379,-0.00404471288189642,0.00304681396901563
-0.28791273942108,-0.0330276426483364,-0.00633095129155448,-0.0119945803111347
-0.102773942408175,0.0361184002067864,-0.00468947472198027,-0.0211874456459784
-0.075304415006197,0.0255023127277066,-0.0138324667855133,-0.0226257962410931
-0.0954423959032331,-0.0436052792169281,-0.0307391837414457,-0.0189994170667569
-0.0501630757142089,-0.0229348639438948,-0.0414162580467965,-0.0141822677644653
0.0117339460896993,0.0770698702918702,-0.0405679831996634,-0.010517508923639
0.0529651500007216,0.071365441825745,-0.03353258364052,-0.00918059891619822
0.109798249880034,-0.116103791520575,-0.0199661681476631,-0.00956925145716135
0.131547341987703,-0.364743755523027,0.013442334089039,-0.00769615007388819
0.0568336543862723,-0.56239408133783,0.0708882088495175,0.000401988733504373
0.0198066183747835,-0.614451308556116,0.135381372281294,0.0133432048637553
0.118962303230252,-0.39086674330799,0.171320021446173,0.0256249722728022
0.280015127034729,0.0496835485530567,0.13454220127997,0.0312071065604452
0.345038759466103,0.415303364735519,0.029278020221393,0.0248629095454039
0.116424453840054,0.342989303012641,-0.0791943228531538,0.00784712797197249
-0.31994479820179,-0.225947397431468,-0.139290722914352,-0.00957546128918558
-0.572762707200386,-0.683433559484991,-0.128899725487202,-0.0185314162765367
-0.380269060922593,-0.440068285100301,-0.0578946247354779,-0.0185101143022609
0.0785905874547287,0.282603477185337,0.0125120306852384,-0.013049469720124
0.469103402359946,1.00616135662846,0.0352210419960124,-0.00608015162613811
0.703965884909161,1.3785514902535,0.0144656147683432,-0.000365966893979792
0.685252944772602,0.970480503490295,-0.0296185926775538,0.00328558991262508
0.318877587905147,-0.0444382364028715,-0.060945654006575,0.00356352774494552
-0.25468343543428,-0.723750337342604,-0.0411101224783478,0.000860456699089852
-0.725719893759915,-0.659367923243442,0.0198202831583025,-0.000930981323343751
-0.784953032960376,-0.374954408016015,0.0842341804789878,-0.000702493403492923
-0.433895751450003,-0.313455479343207,0.134217312372013,5.13796430838213e-05
0.0316913947239776,-0.341343535307674,0.16594283802674,0.00249898324816373
0.352886929405377,-0.22411557547327,0.167409460991053,0.00852498503395684
0.549865381617091,0.00878649260263403,0.130891849783907,0.0156886933845087
0.642592216191288,0.211216196153431,0.085476702751582,0.0189461395047477
0.467411161473983,0.325683913609758,0.0691686755784029,0.0170980345286133
0.0944525911624652,0.381763296979767,0.0824230123503931,0.0126315334591458
-0.174284760976335,0.374137901789258,0.0963075357556466,0.00645460489638767
-0.19076141082988,0.258426672165522,0.0900880714203186,-0.00169480413204926
-0.10597092939981,0.0120490321527426,0.0789359359509625,-0.00874346795307735
