-0.0030513461029892,0.012061005881786,-0.0118395040729618,-0.000846692297196513
-0.0170758362852168,0.00827209544189749,-0.0128495116086493,0.00135936776117417
-0.0289849103892177,0.00736003031892599,-0.0161587896612511,0.00336877968852638
-0.0266653717384592,0.0180211567203463,-0.0169105834116181,0.00390507474585539
-0.0114728896988616,0.0266935368965071,-0.0114347110987012,0.00275147817587114
0.00460072400171058,0.0155835124049846,-0.00414682018937743,0.00108217099273803
0.0160745572571731,-0.00548620104577836,-0.000704381675265585,-0.000104590598964245
0.0215157620385584,-0.0187710931381066,-0.00148816714830203,-0.000786687091565934
0.0204783328633888,-0.0221150754232197,-0.00448818124107801,-0.00111856399574039
0.0167589413506992,-0.021491241222382,-0.00868111280644049,-0.0010947999751578
0.0136532022615842,-0.0231208397742656,-0.0109121990816638,-0.000848408074108141
0.00621756670824138,-0.0210454324170842,-0.0105833819834279,-0.00051499424753087
-0.00938605403683134,-0.00705835132725325,-0.0130994293203114,-0.000184300481763809
-0.0253150542720957,0.0141016561625414,-0.0195988579707387,-0.000172206424107941
-0.0321755894871557,0.0276259021663775,-0.0261781571576762,-0.000499223490458349
-0.0295821639533148,0.024028553942503,-0.0322306559769916,-0.000730493130253725
-0.0223435493508547,0.0150295739273376,-0.0385220236786197,-0.00095502119537991
-0.0138666255485784,0.0113359214663994,-0.0400198023532754,-0.00132528795285961
-0.00626327104633715,0.00669436216453836,-0.034794536869005,-0.00139977615088566
-0.00177473764207454,-0.00134519135220888,-0.0278828504995047,-0.000879428091818798
0.000515236799965828,-0.00650927747611446,-0.0219447239908843,0.00030547353368928
0.00739511130331734,-0.00628478509487162,-0.0181995077102304,0.00198046543769324
0.0235912383357986,0.00332725891279636,-0.018964123988787,0.003460751360195
0.036146226610385,0.0248826583455447,-0.0255767865883612,0.00389297444089039
0.0282365472418405,0.0434737524962253,-0.0332572053996251,0.00291023062270162
0.00854475741986838,0.0407788110258693,-0.0347588696309905,0.00107902148202383
-0.00512110739810533,0.019502365331709,-0.0291600097944841,-0.000613455259059172
-0.0119168972542442,-0.00140349420393698,-0.0219962401817689,-0.00157994959206827
-0.0164476923191826,-0.0137600710722932,-0.0182228893503572,-0.00183560100208533
-0.0142933879742124,-0.0246716390854563,-0.0154517285015991,-0.00168662725693112
-0.00129453162822237,-0.030962643924198,-0.0104531598691614,-0.00146972059817861
0.013444270683212,-0.0236389868747597,-0.00670832636010535,-0.00133500496857617
0.0167770450638032,-0.00975307908390318,-0.00788272149908232,-0.00114798160369684
0.0103502438111021,0.00060394134277969,-0.0125917597145865,-0.000900443589558623
0.00455690428643943,0.00564555068605344,-0.0187206240472372,-0.000711414724151858
0.00123099875826549,0.00703212942197106,-0.0236355001609864,-0.000497415397957912
-0.00302763217694827,0.00694216930443571,-0.0258987615162511,-0.000166080225170118
-0.00621954083547912,0.0061930608202204,-0.0258802105524861,0.000165562727509707
-0.00462738783074377,0.00543389891111038,-0.0225513384041558,0.000561454659693458
0.00170052517542114,0.00555677787205777,-0.018735141287817,0.00110999621617719
0.012030502584979,0.00707801528683482,-0.0187432669611513,0.00153123767162068
0.021129186802194,0.009479360404899,-0.0209494336209623,0.00166981498185463
0.0220638928930684,0.00943215094253695,-0.0216969183197115,0.00162289745834715
0.017001911173669,0.00671786251391774,-0.0199912129802903,0.00137752741225021
0.0116470874979035,0.00371525690896868,-0.0161501788728848,0.00080235544110183
0.00749687870410489,-0.00195990677238533,-0.0111622750828389,0.000131143595581622
0.00428595313797917,-0.00962421353987024,-0.00582148960626976,-0.000422316173489395
0.0015849345712106,-0.0161665021799842,-0.00164488859885052,-0.000987372485589075
-0.00327303110821498,-0.0204554017552101,-0.000140296350093451,-0.00135035509094716
-0.0119267585475423,-0.0221723982510913,0.00029458891465046,-0.00136519620486835
-0.0197149609094525,-0.0281182415521853,-0.00117312487233553,-0.00129565524478674
-0.0192728302508098,-0.043054205603676,-0.00483228222161281,-0.00127574130765692
-0.0119161722677858,-0.0564766029317466,-0.00703834815039953,-0.00135158331923319
-0.00599338229134342,-0.0571909551428231,-0.00623318609917765,-0.00149449595592004
-0.00168275775316696,-0.048879842865978,-0.00336150472253098,-0.00128189598591556
0.00632285624181073,-0.039810555978487,-0.000527849631753579,-0.000454711061201931
0.0241091959249131,-0.0302050435606998,0.00212348572629449,0.000561673325961273
0.0547133734364689,-0.0157923732441247,0.00560306628511866,0.00126688234324211
0.0846306853656928,0.00606129976221752,0.00581100468244867,0.00143945819747428
0.097392799055067,0.0325091626952718,0.000698831799320194,0.00116958890206451
0.0884486639703938,0.0500258715060787,-0.00173602795406451,0.000829563293085214
0.0637593639108789,0.0522302344689546,0.00149272265584249,0.000519759592403543
0.0383031392628511,0.0512155321888164,0.00521573425701253,0.000108576131499721
0.0218626831688661,0.0434895307080356,0.00927849772221943,-0.000396745151851758
0.0102868973199957,0.016268770246756,0.0141409810032837,-0.000872656452104524
-0.0161699931497987,-0.0149592392368566,0.0170322900804157,-0.000828107827725609
-0.0657319900397414,-0.0305870469064308,0.0160534580471223,-3.94823209083556e-05
-0.0978973915144677,-0.0376518316732057,0.0117388265826124,0.000546486220874792
-0.0774180611358905,-0.0479733424501787,0.0114413918247749,0.000172870602386349
-0.0323596281375204,-0.0541321374382782,0.0172407466214402,-0.000775633235451849
0.00118802987200624,-0.0494046837388145,0.0207479051887253,-0.00181936409206199
0.0226609488805278,-0.0412911624416538,0.0203422649221733,-0.00257063017752922
0.0411269979880491,-0.0346943739675983,0.0178181781654786,-0.00257289927662272
0.0507790857411607,-0.025797257778917,0.0115445064199488,-0.00185666331935909
0.0427117400985525,-0.00556306140289768,0.00150276230538803,-0.000881924357673344
0.026139483066988,0.0230413740783958,-0.00647418794767265,-4.29442180627888e-05
0.0129237353593947,0.037824969334106,-0.00745396788167422,0.000490970323947217
0.00607106114599749,0.0310256805726046,-0.00541050139176735,0.000912141393208801
0.00446675496888218,0.0171846735241261,-0.00180705938034546,0.00127509163585397
0.00538001419233399,0.00539758359597789,0.00556897450275585,0.00140678560073922
0.0094352453027082,-0.00405586242088891,0.0126807472251671,0.00134702233950599
0.0176278867028209,-0.00947363497418147,0.0155117141740049,0.00108573029238132
0.0236644317352989,-0.0061691391530454,0.016422648096385,0.00066509901836097
0.0210097306278626,0.00899882833339497,0.0176004818936228,0.000126952009913611
0.0133319827350173,0.0258764995017292,0.0199039726136753,-0.000586233741603239
0.00547912311235647,0.0331295827750695,0.0241849100441434,-0.00119820969239097
-0.00229840781986812,0.0356907159147968,0.0269009285586472,-0.00138387852239936
-0.00857250336822009,0.0341246248553683,0.0254944372514122,-0.00134090534166581
-0.0112928166797525,0.0235166054281215,0.0230802335802627,-0.00133493490086755
-0.0162912231814356,0.0122731223743925,0.0222706987606798,-0.00101659738103317
-0.0335288730859454,0.00741104312923936,0.0204815697871449,4.27921130261727e-06
-0.048817966574595,0.00235139084109013,0.0156229918613641,0.00113584307345865
-0.0386739953841097,-0.00581011854721668,0.0113438429468314,0.0014597314668786
-0.0150486719865503,-0.00936175811633701,0.00827709043922076,0.000780717675377339
-0.00148442187355712,-0.00398713627944065,0.00271961734028781,-0.000332607079374716
0.000792289066025954,0.00690073234528307,-0.0015537847604646,-0.0011759661699244
-0.000941652453679163,0.0183521548597358,-0.00118674912261855,-0.00145398234133708
-0.00290728132869572,0.026641293583019,-0.00105902353315392,-0.00104520908279731
-0.00171493688954677,0.0293016751132472,0.000364248748218089,-4.65530351420735e-05
0.0038140382119106,0.0266184099076602,0.00633222109201056,0.00123654061504555
0.00995665807784952,0.0230842375951479,0.0144976755969539,0.00250379082950153
0.0125956557967591,0.0214709325040702,0.0209413084015313,0.00313781800855305
0.0095385657827343,0.0187547731140019,0.0237827165925844,0.00271858219121886
0.000297924608478861,0.0110041502985903,0.0278898506419622,0.00178254249077335
-0.0115616890151332,-0.002362735193433,0.0305556483130226,0.000844104629814233
-0.0187257925677108,-0.0196531490053403,0.0251619232780218,1.43513257386215e-05
-0.0177796963129168,-0.0336538963219344,0.016795409117366,-0.000629160847566912
-0.0151024471055086,-0.037391162347943,0.0136473610445946,-0.00113518055540077
-0.0160678085579383,-0.0357792320290599,0.0176820820386197,-0.00129957035392125
-0.0200542058048219,-0.0327932449839531,0.0209910847138565,-0.000771608776777446
-0.0258797926247252,-0.023028834437344,0.0119912851049335,0.000369534938820566
-0.028442823904856,-0.00550654391146981,-0.00577430227321668,0.00137124765959707
-0.0227156969076083,0.00806972614987755,-0.0148127421167605,0.00134418419373339
-0.00866714665886818,0.00623536294605141,-0.00923029638903682,0.000323789312236977
0.0118812805590109,-0.00752338881288268,0.00195770493538028,-0.000629553990430661
0.0318487598106789,-0.0184748681482673,0.0104173897801396,-0.000765565521422439
0.0412840343725921,-0.0163117285312434,0.0148919787172365,-0.000375862923168214
0.0402137719120419,-0.00226255846464675,0.0175464147546708,0.000235297255352868
0.0353174876315803,0.0217648062281019,0.0167863825815519,0.000889612304389798
0.0281384639274838,0.0395978739170033,0.0135432323586703,0.000958726011008684
0.0161057592019682,0.025028871919492,0.0106659200886981,0.000317985203085457
-0.000218810243916012,-0.00940641014249887,0.00399485429902325,-0.000232648460263852
-0.0160701245900721,-0.0292343186756786,-0.00809019180899209,-0.000258454989703519
-0.0280110323259193,-0.0260866111526082,-0.0237056415676081,-0.000127096219073136
-0.0345679748878042,-0.0158824645949117,-0.0337620082940154,-0.000188230123717589
-0.0349059200422539,-0.0124685910300672,-0.0248044341251504,-0.000280255212447707
-0.035771274549639,-0.0118266385891675,-0.00620780624418022,6.72482928295045e-05
-0.0437415648510187,-0.00705093986787032,0.00286503786730185,0.000841296000682461
-0.0486150227563681,0.00142822611946658,-0.00130479723678947,0.00148251936792024
-0.0387837948385367,0.0133840042277207,-0.0146554259038057,0.00151403427436681
-0.0183364897775651,0.0290455117042846,-0.0307957848902466,0.000552811957331991
0.00200003924582319,0.0384385162509409,-0.038997891831848,-0.00130758471472143
0.0184934766761249,0.0301690644931528,-0.0358691511142665,-0.00292733513400509
0.0320037071375405,0.0119110460024027,-0.0281511568998066,-0.0032673180046935
0.0363035350415861,-0.00212881174054903,-0.0179817232560587,-0.00246895092115805
0.0282274494431961,-0.00475438799349649,-0.00810229648129217,-0.000915549316176721
0.0153236666266549,0.00262545291023211,-0.00529018393806543,0.00108206580260051
0.00339715466444074,0.00841382595628203,-0.00809857338197138,0.00265824961781542
-0.00767208972663599,0.00277777636787044,-0.0100021700142815,0.00317806739157897
-0.0158041980880551,-0.00972848595581151,-0.0111851007972752,0.00263300898065693
-0.0181253636247586,-0.0190753353555846,-0.0104143554799908,0.00133380192015252
-0.0169114680966496,-0.0238082362229327,-0.00241651851984495,2.49955824788116e-05
-0.0127213967471146,-0.0240863720694085,0.00934821937395615,-0.000811763291741834
-0.00981609957757197,-0.0175891025077159,0.0183291857433951,-0.00143697369586755
-0.0127926961803597,-0.0119216997006498,0.0204409896745376,-0.00204922484614733
-0.011297458926387,-0.01605639243056,0.0130176937186149,-0.00221296993777082
0.00398042561463765,-0.0206496114846729,-0.00146927315924537,-0.00181751081929244
0.0221437321509244,-0.0131724611517812,-0.0172517539615883,-0.0016957275939779
0.0232731063038453,0.00608344186877117,-0.0322632810437403,-0.0024175782732128
0.00465932866632307,0.0407704488581443,-0.0473785084898038,-0.0029878125255998
-0.0180862589153268,0.0920872649324251,-0.0601535580488462,-0.00243438242438419
-0.0315697333233922,0.130250261150078,-0.0664665616254546,-0.00151180457904853
-0.0339100998128983,0.124362494112055,-0.0664508540231959,-0.000873426893023694
-0.0327020974024034,0.0839645697820139,-0.0615326765043603,-0.000300882758218509
-0.0330703611466196,0.0462717831239864,-0.0531355039951987,0.000395981650277874
-0.0343824585244577,0.032050001103456,-0.0457435366396372,0.0014946395763382
-0.0397736315985365,0.026590638761206,-0.0372095412275618,0.00306527587446613
-0.044020916869666,0.0146797331160465,-0.023002753264762,0.00474091878828576
-0.031084341287701,-0.000135283832575737,-0.00792596594868201,0.00592118690115513
-0.00705580305138287,-0.0118315549112131,0.00393874372820938,0.00569304988103085
0.00657122026754843,-0.0194716180590941,0.0122955496519393,0.00367880416014991
0.00978513715094547,-0.0222139599593124,0.0164151731783074,0.000865470091063178
0.0152261253819263,-0.0178127657590454,0.0157144710265155,-0.0013380270564378
0.0221399139261437,-0.00928065659172715,0.0104125719666297,-0.00248145827429545
0.0224360370272237,-0.0047366494879351,0.0035838106307584,-0.00303905932846552
0.0165009939932942,-0.00534786564383681,-0.00191497283171362,-0.00345566597808662
0.0112849082699443,-0.00553000982994721,-0.00478537130240674,-0.00371732995072374
0.00865236176542609,-0.00140772890352786,-0.0072144474304517,-0.00372646424362164
0.00187073675089891,0.00716943844974591,-0.0129127821521596,-0.00347066940046741
-0.0132860976047345,0.0161347253342558,-0.0201736808259264,-0.00295584822769569
-0.0319012271369406,0.0224122338434839,-0.0250641604315606,-0.00233898482560064
-0.0406522174102572,0.0262499172069243,-0.0272132849511752,-0.00166464302014212
-0.0334676517003005,0.0205492809446009,-0.0251405652740599,-0.000695030994034357
-0.0195492220366616,-0.00187862537071418,-0.0177984017285506,0.000839284247930703
-0.00761235729400076,-0.0242884998419984,-0.0133033713418232,0.00279301801245423
0.000168095346132158,-0.0246570408718522,-0.016100143197613,0.00421974500441217
0.00425002346523218,-0.00989048476167818,-0.0198231228670768,0.00423787202784098
0.00828256782797313,0.000864102635339016,-0.0210435063024321,0.00316347619716846
0.0141314893571932,0.004354390404467,-0.0212718609949124,0.00201874327219521
0.01642079511772,0.00546143635119251,-0.0199896598283064,0.00139427447971576
0.0118720727605905,0.00628365201874999,-0.0164385396416952,0.00107594714132747
0.00231516839209941,0.00803639965205479,-0.0137410516448493,0.000762794452421255
-0.00880314051296895,0.00905847950823406,-0.0124245191302032,0.000486327324606548
-0.0167937976244192,0.00684106695666587,-0.00817821696416813,0.000209702836957824
-0.0222969432226813,-0.000320714792850009,-0.00185346486031429,1.5647970091542e-05
-0.0293978601087538,-0.0113599337624267,0.0024954250465559,-1.79885179824055e-05
-0.0351842031528478,-0.0147297138370394,0.00546697186625606,-0.000339524011904665
-0.0325480593564626,-0.00437192723016287,0.0110261747725926,-0.00108020172268596
-0.021422965039508,0.00307080968815924,0.0196042468488739,-0.00168948834199153
-0.00911844405717337,-0.00460692674502929,0.0247575240639918,-0.00175261175006352
0.0035633654711047,-0.0187644687780245,0.0231894762850764,-0.00136793788865413
0.0239072238456328,-0.0313399833083359,0.0199833420466276,-0.00102194558641987
0.0410757118560319,-0.0401077136093661,0.0187866310087052,-0.000962635909902069
0.034245478808628,-0.0421837167851627,0.0178482229918622,-0.000998825340795008
0.0144371051475935,-0.0332942039369279,0.0138289769787328,-0.00091530423819676
0.00355528226813363,-0.00844184449428993,0.00278461901503186,-0.000518341454513061
0.00111776824745046,0.022044945792192,-0.0108953928873098,0.000262801471678791
-0.00354491796446671,0.0335383160045255,-0.0194524263039943,0.00107628659410156
-0.0114004004253439,0.024635098920309,-0.0219654637489714,0.00164694679158428
-0.0152940443365097,0.0118308005330512,-0.0169443470009915,0.00222925331938317
-0.0154055471256599,0.00119612668074266,-0.00829151848543245,0.00278997719316567
-0.0156581896621125,-0.00731482506634277,-0.00168607587968849,0.00281161959754967
-0.015337602995828,-0.0182086018606863,0.00485860517391407,0.00215325479321385
-0.0132927031513251,-0.031713919700911,0.011726109240975,0.00119265907969051
-0.014007269038167,-0.0367315748800052,0.0154115636433442,0.000194207480404107
-0.0153324782269008,-0.0295817386351259,0.0155400859152136,-0.000791535499443037
-0.00904842508536084,-0.018928979038239,0.0171578751862159,-0.0015539366888892
0.00109954322344319,-0.0104770263854259,0.0234008317137782,-0.00197469502119288
0.00687839550167614,-0.00104259081601499,0.0293397804883024,-0.00198825299760118
0.00761302973450377,0.0154967980820924,0.0282798599256503,-0.00145120197844278
0.00938706223124958,0.0327663799023002,0.0226769515634534,-0.000567611058509281
0.0170533586325083,0.0348287131848868,0.0193802086317542,6.77379678401479e-05
0.0238595610442287,0.0214111477078729,0.0180437515019152,9.86437150789497e-05
0.0234918905789142,0.0082524716777823,0.0156532215441584,-0.000122296284629397
0.0190362538311435,0.00304483225442881,0.0123573925142329,-7.69491799090491e-05
0.0127032026250097,0.000244319836472908,0.00946996573541678,0.000310252418896479
0.00669837651646851,-0.00494669871109158,0.00826711342064538,0.000736480812897018
0.00298209760691882,-0.0119653031776595,0.00803199635298523,0.000847536792236492
0.000390898246549587,-0.0171399658580572,0.00639692994104211,0.000740414932498586
0.000608871599982928,-0.014939740218219,0.00430265207938742,0.000678911534191075
0.00762855506298586,-0.00550670531464395,0.00544877138097616,0.000652446560751643
0.0160306740444555,0.00281926736014496,0.00970332501249348,0.000702900875925404
0.0173277509708808,0.00563367113925998,0.0155472059093501,0.000658809921853718
0.0124336793104663,0.0052933828436915,0.0214496922954667,0.000368388701753802
0.00378647524031934,0.00367931412679995,0.023684661564795,6.8142512599274e-05
-0.00361524013298875,0.00305914164275018,0.0192902094726848,-0.00020787941533304
-0.00370229074499912,0.0049311920664772,0.00795149027893078,-0.000412935490127048
0.00279998241000073,0.00706305366497713,-0.00242444322265883,-0.000399534609328138
0.00723461995357624,0.0065146290698447,-0.00219396685270557,-0.000295095720210873
0.00149100358855564,0.00315850623243645,0.00590379732801619,-0.000389379105634253
-0.00340458174213966,-0.00251381266196886,0.0127278726470205,-0.000799517341792553
0.00305003546187924,-0.00820195127589989,0.0157916290204391,-0.00134622493831763
0.0122916786366182,-0.00858013833207429,0.0183230961928951,-0.00182043705356392
0.0166334572071807,-0.00446887433502754,0.0206026963114175,-0.00185114565714527
0.0155346676770803,-0.00108480771221268,0.02173023828535,-0.00122292207079219
0.0104736238944078,0.000257823757286495,0.0225344558436118,-0.000364549207113776
-0.00125557178295319,0.000564288398275749,0.0223579620216663,0.000465452824628324
-0.0193710886684864,-0.00311545418981816,0.0206378196828668,0.00140466983628514
-0.0260955712720644,-0.0152359501612537,0.018290158466669,0.00222673999972144
-0.0124870084012454,-0.0304236734986885,0.0164925632209486,0.00244042534472983
0.00439204771215845,-0.0374025947421418,0.0169692121282528,0.00186236108782447
0.0155945532363043,-0.0328776260250797,0.0208357428730659,0.000885833747623843
0.0260372819140349,-0.0225161702550004,0.0262699369480457,0.0001279024652814
0.0307016236551257,-0.00647732634021178,0.0282061332065218,-0.000238866611001634
0.0253857909558609,0.0151051664482366,0.0256915781735636,-0.000615473567695078
0.0190133968543723,0.0249176997563969,0.024125071425765,-0.00128077502185776
0.0163383657061852,0.0124505357633368,0.0246599476049512,-0.00188451922996141
0.0125413503123668,-0.00762985484921293,0.0253000747924857,-0.0020647424788905
0.00765173204371093,-0.0214520808951201,0.0265031410553494,-0.0017862078630312
0.00441021651473141,-0.0281447111252957,0.0264457824113496,-0.00119732700777739
0.000693860539288004,-0.0251870604543994,0.0227442817420313,-0.000622316361111716
-0.00371167735327401,-0.00892982332320729,0.0135340445036918,-0.000381692424632171
-0.00858369674925822,0.00539728757387881,0.00304649727526125,-0.000870065179736796
-0.0204273499956011,0.00403178916361123,-0.000897554721839333,-0.00125831585829858
-0.0391968388385745,0.00195949338807664,-0.00125416190504604,0.000233335724317598
-0.0506349535314613,0.00525287278418415,0.000213116539589395,0.00284125216304343
-0.0451630182601148,0.000421502726039429,0.00618180148414682,0.00410480414201351
-0.0291779641824371,-0.0144078857507433,0.0131869899311062,0.00342982477474877
-0.0128867944089847,-0.0282007351618197,0.0186231283668526,0.0019523893841675
-0.00214157257730023,-0.0347151919525453,0.0222226752786369,0.000782347978152531
-0.00510803920096629,-0.034571897828958,0.0225141704426169,0.000234990798634713
-0.0189912927637336,-0.0289790326591472,0.0207575145477776,0.000130613560601877
-0.0251219422214866,-0.0195300668371668,0.0181550261447316,0.000255558238552059
-0.01761255849327,0.00182620521599742,0.0134887106124557,9.47046143525393e-05
0.00497379165157438,0.0295518089760958,0.00727636416197439,-0.000854321731127325
0.0450205470324936,0.0336989214293744,0.0041797401546237,-0.00213449670437064
0.0803385563308893,0.0222936266375148,0.00617506757033415,-0.00278118765115684
0.0836474342638141,0.0287353654739461,0.00794740543001271,-0.00247249028630463
0.0578786074812791,0.0401402459621615,0.00711736979693272,-0.0014540305803948
0.0307605501407256,0.02756247273556,0.00643393444334273,-0.000177325706219055
0.0114071911064634,0.00156315330951624,0.00596548899965238,0.000743032473233279
-0.012831483755725,-0.0127472122159956,0.00209759147485147,0.00100478912261982
-0.0333289655695738,-0.0135670348617122,-0.00549978946756829,0.00105716047815619
-0.0373184469374068,-0.0126885599654965,-0.0114699831820002,0.00140621838847851
-0.0357541744372216,-0.0130326924206605,-0.0112412093732812,0.00153604362097731
-0.0331545487607128,-0.0085522678150695,-0.00648901158164293,0.000585436623656569
-0.0232275119321778,-0.00138655210610231,-0.000764120718171266,-0.00101814459330297
-0.0116138799698787,0.00342149705208831,0.00302500998662886,-0.00177942252593003
-0.00440676875000426,0.0047991389241563,0.00112509498582634,-0.0011431386326501
0.0015232551026711,-0.00240467570717135,-0.00507004924240614,7.12345133011558e-06
0.0076665629727961,-0.0183365544285471,-0.00940259878451705,0.000806511578140689
0.011921565492085,-0.0314064836999619,-0.00817315041638873,0.001177341048574
0.0109538667558298,-0.0292442999469729,-0.00400272649409205,0.00140860582097339
0.00389368185648512,-0.0121037221587266,-0.00236229220876672,0.00147020793942085
-0.001992706117262,0.00014830577797538,-0.00199417930365259,0.00111446598526839
0.00173053206054575,-0.00687817453409353,0.00028029465035529,0.000592204987716179
0.011126481092063,-0.0168275959432236,0.00111711577270841,0.0003145110258587
0.0165219725339024,-0.0152415851778829,-0.00198090154196954,0.000134422755713224
0.0171675310667348,-0.0077862372414895,-0.00482232655506855,-0.000107106986199274
0.0169293814173132,0.000930854030569465,-0.00536443844959681,-0.000214336842718387
0.0165716797745484,0.0164555616477218,-0.010949127641866,-0.000183149896433592
0.0158108229284312,0.0509889553573775,-0.0240266930454001,-0.000313681874208772
0.0150035086556332,0.0932511060026163,-0.0362602780119678,-0.000993867459172626
0.0123948553371648,0.103952958305905,-0.0407947484271036,-0.00208634558221972
0.00740253526741273,0.0711976088827746,-0.0360411831892964,-0.00279914483160536
0.00316648997507987,0.023899869562277,-0.0267637285912141,-0.00280006498384608
0.00230515574622467,-0.0100473913097973,-0.0185340536007777,-0.00234163274442875
0.00603502394501972,-0.0251654491049811,-0.0101813807482283,-0.00166192559782349
0.0121611339715591,-0.0282019547468123,-0.00181380441367948,-0.000950133177733351
0.0134434655639847,-0.0268802561428208,0.00502814011967045,-0.000275054347859503
0.0062893654376254,-0.025384657646404,0.0096970735384605,0.000307680471836577
-0.00480394963143456,-0.0242754818611165,0.00939950305356784,0.000904062288827947
-0.0158612697163605,-0.0278822341240568,0.00385839046260529,0.00168783181341095
-0.0267726246353285,-0.0350969353176762,-0.00658987984879695,0.00228941199285942
-0.0316284966168861,-0.0322268263609796,-0.0162822491876945,0.00197953711171485
-0.0243401095060914,-0.0165618150777142,-0.0156973345974613,0.000487219112577311
-0.0106150120038149,-0.00288762232624943,-0.00949030959301987,-0.00127464070963412
-0.00147990393484534,0.00240420687884929,-0.0091916790453224,-0.00186725000112719
-0.00187020718462432,0.00629957475646885,-0.0171722893199178,-0.00119303916276412
-0.00519019022097661,0.0125851231245501,-0.0274498729126313,-0.000439332773460267
-0.00319470539053936,0.0216026756826,-0.0344020237721813,-0.000244819685704846
0.00318402786899598,0.0340218994811229,-0.0398146409635654,-0.000513435070953054
0.0079536249939416,0.0439587746924738,-0.0416277830131126,-0.000732155390280452
0.00649346774268938,0.0478029467282113,-0.0340020755767731,-8.89464220692901e-05
-0.000604625532873872,0.05353986458069,-0.0262117841776859,0.00152679206769194
-0.00305898651636845,0.0628136815412368,-0.0253752016740549,0.0031582423775261
0.00398995667649902,0.0629261841860563,-0.0230018879458261,0.00361592473391959
0.014382300940306,0.0472091526799521,-0.0185617184609961,0.00242048109830114
0.0278886892094884,0.0269563438792567,-0.0157042165148886,-0.000429601173578544
0.0390498557947202,0.0147402427176304,-0.0109133792356313,-0.00436934892760514
0.026853863908046,0.00767790404925488,-0.00339772153202279,-0.00752810001789602
-0.0126602361955219,0.0014377036683743,0.00279665754986379,-0.00788186665178305
-0.0453039970436555,-0.00437537506313564,0.0051029126973481,-0.00506218833240466
-0.0449750815234835,-0.0130034325759202,0.00475919490618912,-0.000570981202080306
-0.0282708428807768,-0.0200356026901009,0.00472935320291378,0.00333815970594383
-0.0129695306097392,-0.0173121188118219,0.00519035783685015,0.00527210104702985
0.00144892244375426,-0.0068211710954583,0.00538035362052009,0.00515867054899113
0.00851055629941521,0.000310294732738123,0.00791756708922925,0.00385158544929108
0.00539966592794647,-0.000881566870001269,0.0117685013734777,0.00229277292363376
0.000178411027158185,-0.00631732339768841,0.0130408642743398,0.000701316822063753
-0.00200325969876797,-0.0118313297158509,0.0103410109182852,-0.000783767506064728
0.00430775046994271,-0.0101018451805785,0.00399517367896587,-0.00187351917482679
0.0151476765032449,1.42786050128102e-05,-0.000249336317831979,-0.00273592465629698
0.0192273341614273,0.00767520495161806,0.00349860705106012,-0.00289094414402976
0.017713691232953,0.00972754926481946,0.00933062962364829,-0.00105278647875232
0.0133848125386495,0.0170938107420157,0.00488297572653051,0.00202093075561171
0.00404446297403327,0.0370198206343107,-0.011268673296013,0.00374535998351674
-0.0071309942042028,0.053187571828177,-0.0254544904106328,0.00294208165295497
-0.0166636371537611,0.0451585315531332,-0.0282611511473425,0.000857230383548448
-0.0208320609094126,0.0186492873166694,-0.0219152301672219,-0.000322640715958299
-0.0149140303262092,-0.0112712911270051,-0.0110161501918026,-6.11451403092096e-05
-0.00210971404995059,-0.0396732872688707,0.002644696538152,0.000329146378099202
0.00733546447852113,-0.0615233307547912,0.0202804862649749,-2.90456571283947e-05
0.00342413598377728,-0.0680691977857767,0.0370275448787098,-0.000746477015891958
-0.0105953778091496,-0.0596548477510635,0.04294074688936,-0.00112662724204301
-0.0200215670602141,-0.0393853831518562,0.032858991615427,-0.000946742514302737
-0.017627619496825,-0.0125670372991273,0.0129745656620153,-0.000414880697626039
-0.00766983497350831,-0.00342664622980091,-0.000345797609567976,0.000110037382105003
0.00256559476801302,-0.0194898495277542,0.00152330492479275,0.000478959450338478
0.0101823267685985,-0.0375748376138407,0.0110240191368195,0.0008471289622202
0.0141049211373943,-0.0546888130825661,0.021305855818044,0.00140224309954751
0.00834563290995037,-0.0758897864188096,0.0283084734642498,0.00209088243531344
-0.0100725127539538,-0.0824854429489917,0.0230475367994649,0.00269670626916797
-0.029552975648119,-0.0574060781541247,0.00213743319529761,0.00291388026621472
-0.03440540292962,-0.0107142370904883,-0.0259348166196291,0.00210939501287659
-0.024835503895249,0.0286504590584425,-0.042032738237269,0.000188084687164746
-0.0153704293110187,0.040601154958342,-0.0360550079182475,-0.00188201738086008
-0.0160109893805431,0.0324872121879696,-0.0226978024532174,-0.00304467448079289
-0.0221953107554176,0.0250339775618853,-0.0145448376573781,-0.00268791624893196
-0.0251279314550779,0.0185668236605348,-0.00579405839619464,-0.00108834383230536
-0.0221415692034557,1.85187610343626e-05,0.00662020585961897,0.000829062956071854
-0.00900268238069771,-0.0251128379023447,0.0169417515889671,0.00226638344035959
0.0172349998433433,-0.0365751715150984,0.0221285975780631,0.00284734682296403
0.0372411912638688,-0.0214525625620367,0.0176044704375285,0.00251550456696994
0.0301438903378829,0.0098866481534827,0.00347478633846121,0.00126119910801047
0.00915812725877657,0.0264072702812973,-0.0102997438300094,-0.000310210845389015
-0.00507463361999381,0.0113769483466497,-0.0162722249955172,-0.00129220753111531
-0.00956468840020637,-0.019448364153188,-0.0138272396484757,-0.00144833896877106
-0.00894797780702265,-0.0423765256814993,-0.00833406389383358,-0.000982964336155335
-0.0079059689527584,-0.048900738431274,-0.00554949134253098,-0.00022604720738224
-0.00743543293440894,-0.0445952689314506,-0.00730370744066711,0.000370117275132948
-0.00734811745643775,-0.0346492305014786,-0.0135930573299291,0.00053966705358634
-0.00792132915782134,-0.023063357770255,-0.0229680983896864,0.000257991059864142
-0.00892282293512135,-0.0184921582198709,-0.0289359570283937,-0.000266493461413612
-0.00944703376525657,-0.0209703339225429,-0.0248138764878235,-0.000401232331670088
-0.00932934653899472,-0.0205674420186638,-0.0158147890959704,0.000177558623634376
-0.00840874043430996,-0.00906900495428427,-0.0127582695749528,0.000840819528036322
-0.00572622774135458,0.0187634202180854,-0.0152748359055193,0.000689675702750262
-0.00188883272777228,0.0516095406726249,-0.015789645070249,-0.000459540564473635
0.000567955992784473,0.0593191216711563,-0.00894326476751612,-0.00171106311730789
0.00305496634598084,0.042015614525853,-0.000455098363390087,-0.00167868130616529
0.0114510667409016,0.0362417974013797,-0.00115752732355708,-0.000291402382131294
0.0267877466529197,0.0445573451538163,-0.0067611710337953,0.000840515314674145
0.0429937945837147,0.0402038088962442,-0.011160269815121,0.00056162411704119
0.0526807471656631,0.0247513515100637,-0.0153258208440126,-0.000735997044255806
0.0532291551754812,0.0161884450527034,-0.011827888338181,-0.00193578832374031
0.0461021725565814,0.012764678722134,0.00295061731976859,-0.00225880289802419
0.0341513632465539,0.00519410492507676,0.0172519576618638,-0.00168653108010178
0.0235481328736911,0.000537136436828865,0.0224812629586525,-0.000754293699700925
0.0203538273731478,0.00492656680165245,0.0177466808979642,-4.65625039957839e-05
0.0185959472531936,0.0104139565476459,0.00927232731901188,-3.61304102654842e-05
0.00276578161470994,0.0111345823537826,0.0051228070592122,-0.000516834814818782
-0.0203401669710064,0.00632813413824984,0.00368530662235668,-0.000579504200172599
-0.0265670361202406,-0.00419305103873095,0.00178960427266917,2.14106500961577e-05
-0.0187316628471197,-0.0136804874482907,-0.00195590568645851,0.000625998885908677
-0.0126597197591113,-0.0145600086295792,-0.00783516107033083,0.000690550157309454
-0.00737461942819231,-0.00681703787657845,-0.0131966966806492,0.000403510721410539
0.00125746746354525,0.003713034109791,-0.0164883508473002,0.000250029860479199
0.0069096266644993,0.00948164639440084,-0.0185706254236025,0.000442512072286617
0.00205772352390015,0.00998320852320691,-0.0215401586833529,0.00110100046407565
-0.00465349266638613,0.0107865662814862,-0.0262944822947458,0.00186632347083452
0.000631224475166309,0.011799526190584,-0.0282701597027722,0.001793552456313
0.011836662470441,0.0107049572124684,-0.0209446553844851,0.000666617431294783
0.0149887299655136,0.0104957406664934,-0.00774231253128357,-0.000763868755302864
0.0113387038751952,0.00963612691555699,0.00360612003605171,-0.00189063066620128
0.0117028801463091,0.00330156754118167,0.0128906034396384,-0.00253606746850583
0.0189001091156103,-0.00617963916883507,0.0207476471262791,-0.00247273618248756
0.023376472005076,-0.0102790245873484,0.0243972442044243,-0.00186910022981148
0.0180889520322709,-0.00413931987290583,0.0205257663838285,-0.00129159601370049
0.00365968839673981,0.00350313967013086,0.0113130432209363,-0.000823137967822807
-0.0159379880316611,0.00321089913193839,0.00268935532392756,-0.000130009006758536
-0.032631015732055,0.00187206427215906,-0.00692391904855886,0.00108378467094576
-0.0378786378773762,0.00832725278025423,-0.0212265724113843,0.00267123405967865
-0.0309362905882311,0.0127540743972498,-0.0323945156490773,0.00369134423688828
-0.0208900403335573,0.00660554970439481,-0.0325652234476312,0.00335058879201592
-0.0139918814197234,-0.000179657141502454,-0.0287509189422705,0.00203468577944376
-0.0091003796187221,-0.000479791092129589,-0.0287071359890897,0.000479139905039246
-0.00710297731109721,0.000747165377445115,-0.0285522873164283,-0.000884135470613835
-0.00980778829003988,-0.00372994821737412,-0.0239030871117229,-0.00152474937904152
-0.0126563940606277,-0.0129176220505061,-0.0184533511475646,-0.00105676453756319
-0.0105172097009263,-0.0179278299464453,-0.0146524438934688,0.000152385442108491
-0.00524491274408133,-0.0169240273043969,-0.0084272972879994,0.0012308550289764
-0.00444293418443521,-0.0201984004163871,0.0017296793251403,0.00157192972946021
-0.0103658587187995,-0.0320367720283211,0.00900258864454516,0.00126233370779953
-0.0176238734607778,-0.0397355491176705,0.00929457928925271,0.000684774543114166
-0.0257159641572201,-0.0348560597149357,0.00708565191241029,5.76986628633988e-05
-0.0293531235988402,-0.0297423749162326,0.00422229421191646,-0.000736929322788548
-0.0153576353460496,-0.0361326042722062,-0.00115618723442755,-0.00178248890286076
0.0118084154717517,-0.0467060326167894,-0.00585894199945429,-0.00252607194511579
0.0302058056069853,-0.050100907544145,-0.0068218999826187,-0.00234857450706523
0.0299841802081539,-0.0440492500708751,-0.00806323347521733,-0.00117145141138412
0.0198180381051069,-0.0330607188644308,-0.012775476997176,0.000386887439338654
0.00758289058685552,-0.0245607119385225,-0.0214410697757531,0.00123229649045394
-0.00363400844542967,-0.00958098030231667,-0.0358190554941968,0.000574564422627456
-0.0137056140943723,0.0299681357534621,-0.0518780180412978,-0.00132134997589569
-0.0237056124660389,0.0668105611632885,-0.0553282548333895,-0.00302397242640029
-0.0298203210418789,0.0591952116211188,-0.0415595018595169,-0.0029267410247247
-0.0300286066061907,0.0252049813559272,-0.026014663328723,-0.00104998225726145
-0.0268537793756485,0.000227212012573412,-0.0187496975335596,0.000712449618990057
-0.0221397646008527,-0.0104244911784448,-0.0148701500541108,0.00118102957551185
-0.0137498540287542,-0.00901868040991535,-0.0109657179362755,0.000929950322089474
-0.000747846337673053,-0.000847261317900708,-0.0087204185539384,0.000620824181290774
0.0125420927182585,-0.00333118061474165,-0.00627215510819248,0.000376538792089802
0.0223816434819529,-0.025933246876429,-3.11087638829449e-05,0.000104395650615648
0.0268368305312768,-0.0517139904974233,0.00721605392456653,-0.000282168602653475
0.0253603046974332,-0.0612498207189885,0.0109388726559712,-0.000495247739594328
0.0193039890643127,-0.0540992787612402,0.0114982312162032,-0.000376722610228644
0.0127491407061841,-0.0391747189036265,0.00960073727547194,-0.000104107635072674
0.014280498481994,-0.0232141699396642,0.00489249356659487,0.000105542756545878
0.0304551675492273,-0.0109715386711526,-0.000452632000087723,4.19158989903952e-05
0.0478938825566621,-0.00156979238039272,-0.00480514798706214,-0.000212825467877002
0.0463819548731999,0.00915057090697073,-0.00717675250850082,-0.000503802855699408
0.0275031220729577,0.0151857958624735,-0.00354793958969178,-0.000665523451200567
0.00456480736636462,0.0101628484486939,0.00446640486110618,-0.000330826918463903
-0.0142886719307183,0.00419778033717804,0.00495034398162637,0.000552500827861516
-0.0212070137575901,0.0169591297530846,-0.00782761643892621,0.00108609922354943
-0.0151331164119618,0.0492470672707506,-0.0247118669655775,0.000319032597327314
-0.00904927063543832,0.0658805334081537,-0.0348918022480467,-0.00123143321229756
-0.0136947567760029,0.0375536356322836,-0.035170590637261,-0.00236246429269945
-0.0362259096701212,-0.0103422806482844,-0.030873812119447,-0.00262771001497264
-0.0771460479755995,-0.0361503271229147,-0.0290969168467159,-0.00195644440981205
-0.113954992832478,-0.0269055194964983,-0.0282542415695197,-0.000607478196686313
-0.114583181946342,0.00816360256018703,-0.0241082456972362,0.000681071607527229
-0.0675694098499454,0.0336412609035507,-0.0153903387017621,0.00143329851243814
0.00340151223830695,0.0249446152409525,-0.00275778595649624,0.00151095767698371
0.0564444414894239,-0.000301959915795656,0.00956204665549662,0.00102551493183004
0.0768148867317433,-0.0213174876999694,0.0202718736751012,0.000520417410641424
0.0782493417480554,-0.0292307054868489,0.0332442608211667,0.000738734565946917
0.0693586045032481,-0.0234952288687334,0.0460609110463576,0.00181258057967297
0.0544453090286163,-0.00930993215754121,0.0471455596359377,0.00290088679487871
0.0373739559828455,0.00933343987402485,0.0358228768811436,0.00297830746414673
0.0139700434981571,0.0186349086307935,0.0248476739796317,0.0016845543486056
-0.0124675583458417,0.00700885235718913,0.0162639710700222,-0.00040309355934647
-0.0232468830413424,-0.00932846391845713,0.00462013401182249,-0.00231561476869182
-0.0185545482464151,-0.0171432864571174,-0.00434672588985331,-0.00331887279306131
-0.0179329419681917,-0.0248619733963322,-0.00836038062582469,-0.00305545786407998
-0.0237946361529166,-0.0276896941043874,-0.0156972726521864,-0.00179440269497603
-0.0295211876337454,-0.0208498183714372,-0.0220485104036906,-0.00021053874741456
-0.0350373257050853,-0.00960902202815513,-0.021205059772788,0.00123268697281908
-0.0340108570358337,0.0100503129531112,-0.0180579699391667,0.00223133143743699
-0.0210005899164694,0.0291776683698832,-0.0120691529964616,0.00243930250330512
-0.00633956859072045,0.0344260912697701,-0.00237023871280863,0.00188738644560675
0.0011691368176789,0.0325141727487949,0.00467698260722371,0.0010305265870154
0.00414677641835123,0.0271662488065719,0.00741584277090946,2.99016406548026e-05
0.00435489064366985,0.0156615499174727,0.00998126012376352,-0.0011377688681988
0.0051807995910013,0.00571768974359766,0.0127672518693814,-0.0018842487277965
0.0102676393835627,0.00555645970110009,0.0137025741640738,-0.00177823829469927
0.0147018397807965,0.0104351537099065,0.0118480202258113,-0.00130613416847997
0.0128558806667231,0.0135101967265386,0.00471351022141443,-0.000947582403648519
0.00575448891405791,0.015880014373381,-0.00646739361297407,-0.00112133798260441
0.00304092877093072,0.0140259385776065,-0.013335423500196,-0.00224495540431959
0.0122542362708828,0.00145293371036385,-0.00812108981598241,-0.00376146266386515
0.0245489766341073,-0.0138973730445445,0.00371147912370875,-0.00454061218853859
0.0271445605858269,-0.0195937887995152,0.00696730247588344,-0.00420882451535577
0.0202019403288571,-0.0155834186310984,0.00112609286224305,-0.00290028292297003
0.0116917339343082,-0.00919613798244436,-0.00182025710766525,-0.000793866984139208
0.00476293245051725,-0.00677845854775692,0.00186925474676914,0.00138531267733816
0.000507980172944525,-0.0111373178606212,0.00456661716841885,0.00288713218127901
0.000652483100232431,-0.0154744433293526,-0.000576214125051305,0.00360387503544103
0.0034295399036325,-0.0102086182386125,-0.00594600640194525,0.00380724588384261
0.00532699505044293,0.00369299405731453,-0.00199873249728223,0.0038051283677858
0.00462275378510422,0.0179519771643489,0.00405416483740234,0.00363155953664199
0.00958450097057563,0.0246122400956835,0.004986700491753,0.00305589316188567
0.0275671265355349,0.0260822729512029,0.00558135571139991,0.00167708235885892
0.0454338653592866,0.0253440960626293,0.00799513159787017,-0.000551891014218886
0.0499801456274927,0.0225508047510897,0.00832279848333003,-0.00273825850105832
0.0438113893189354,0.0180127397945902,0.00329549126178135,-0.00378548198990544
0.030192208755147,0.00387349698490344,-0.000638034240277811,-0.00335912710608892
0.0150932899752206,-0.0177638622324888,0.00320355152705586,-0.0017413244833278
0.0117230168396005,-0.0322975622278543,0.00560273417528412,0.000681836515506817
0.0241788443969415,-0.0329335951899778,0.00503282486940432,0.00360362329606171
0.0372113422259518,-0.0182270645371796,0.0103018935092914,0.00630788706424875
0.0279737375159979,0.00376869823315087,0.0161419509245357,0.00779362391754479
-0.00116391007045772,0.018323096787796,0.011925393551069,0.00821636976848236
-0.0229595301476349,0.0224403686721684,-0.00247821054722233,0.0080286917001405
-0.0316248107589443,0.0203326385165348,-0.0133217270332688,0.00653984306696835
-0.0365129423756847,0.03505327156993,-0.0120611483469978,0.00352738055901897
-0.0248834656519182,0.0802112680602173,-0.0101406473109529,-3.25385249774386e-05
0.00292757849777962,0.116389496254608,-0.0160576212896834,-0.00331510791581084
0.012549828172351,0.111777884935197,-0.0209303681951696,-0.00601049422252253
-0.00429243189050432,0.0829520298800236,-0.0163878488104976,-0.00755015689501438
-0.0277546275571955,0.0491073288425263,-0.00655807288158731,-0.00708133984994141
-0.0491084545077492,0.0137201596482891,0.0041376581524722,-0.00469375470035714
-0.0561919327713641,-0.0148107120355013,0.0166552532671024,-0.00143198531838996
-0.0343776738318323,-0.0266852700421387,0.0325014816425009,0.00172954423833626
0.00479457870619682,-0.0282120098126254,0.0500652067127763,0.0041567839699809
0.0337556016116485,-0.0322416479353172,0.064998975408424,0.00601020539595737
0.0374757676578543,-0.042017417659718,0.0750634966123169,0.00781880592760375
0.0201718264323213,-0.0515454268423201,0.0803706108943484,0.00959179597842854
0.000245555813586976,-0.0537237110591567,0.0839442980087658,0.0107896628758411
-0.00193593648164664,-0.0494222900630306,0.0847179405249572,0.0105558170806289
0.0161422459807169,-0.0422221555428564,0.0793384827976393,0.00844249452624961
0.0367503269517758,-0.0370623971816783,0.0681526048783979,0.00497006515531733
0.0517815905749412,-0.0409892830137619,0.053145221353297,0.0011801080523764
0.0658854244049674,-0.0493382812104071,0.0408579924541569,-0.00197561800029616
0.0711974215428818,-0.0527601482322365,0.0312834809909117,-0.00373974872267832
0.0533421233796601,-0.0567984077480214,0.0174925466524923,-0.00383776844483398
0.00916032855265128,-0.0630510676232285,-0.0038964865743598,-0.00245646044659112
-0.0375284166364938,-0.0288784218189184,-0.0368281467604177,-0.000434695066376535
-0.0500683958673598,0.068116633164362,-0.0660986062312461,0.000451167885528254
-0.0277074280419856,0.143205943460501,-0.0581452400357766,-0.000667209415918228
0.00418270709804603,0.129319158037992,-0.0190197266304676,-0.00284912647146397
0.0175282424010452,0.0965653003187774,0.0018436458628833,-0.00500478719635528
-0.0162706157504704,0.0969484955472598,-0.0113825120604178,-0.00676146670311147
-0.087630666009323,0.0817398579829611,-0.0242544524098116,-0.00778598432030443
-0.163375256683139,0.056783419083023,-0.016599996638823,-0.00714163005614503
-0.224380859442014,0.0639398717719127,-0.0039321874246577,-0.00503911882049251
-0.240680699310719,0.0694792439021067,0.00108565973261546,-0.00365236647900625
-0.194185585085265,0.0226106553303715,0.0112247527114909,-0.00396247479543179
-0.110800512177238,-0.066652950595865,0.0343970879105964,-0.00397681116350262
-0.0328534835501625,-0.133095996561988,0.0546919486050387,-0.00192328415309248
0.00698210385879081,-0.141760071847572,0.0591069149344046,0.000821672739741198
0.0127646205341064,-0.121455732213156,0.0526850457835038,0.00195102598660308
0.0163848783601177,-0.110413618367501,0.0448630892448212,0.00102521315192223
0.0352953854200634,-0.118365709863614,0.0429804350905839,-0.000883620320448854
0.0576784641332461,-0.115256276202157,0.0448277772760822,-0.00206567195924771
0.0606306299603796,-0.0671910506635699,0.0283362062461354,-0.00134310176703675
0.0339784580481275,0.0150226162210696,-0.0155127525937329,0.000483331658485004
-0.0147320246616794,0.0866988459994404,-0.0566944502937605,0.00131147407634601
-0.0344121291702661,0.108413154222187,-0.0665474774693956,-0.00013948428983129
0.0285668243428088,0.0882170983612878,-0.0584171694824274,-0.00321322132066569
0.117042271256609,0.0657262603327819,-0.0568819522407477,-0.00711756064279703
0.120980029513011,0.0499111778802074,-0.0575731517925073,-0.0114151141951566
0.0335663948686771,0.0255316838357172,-0.0510253742384915,-0.0139948037590867
-0.0547332807977626,-0.0215506471206053,-0.0386178520437029,-0.0126655964166816
-0.0740067675189715,-0.0930896152446989,-0.0170039107715577,-0.00804663989083271
-0.037374563842521,-0.153803665036472,0.00904285837684135,-0.00196392112622587
0.00207104894213984,-0.171364944326446,0.0236713481842784,0.00489644655082327
0.0210180998650017,-0.15945393598462,0.0215069196540617,0.0114672710178438
0.02888626697493,-0.139401687111382,0.0106590223987036,0.0155915284559526
0.0361731303270051,-0.111560757537934,-0.000486123261655459,0.0157446352399643
0.042147172890852,-0.0667410356339706,-0.0102426205725053,0.0117124870603526
0.045034604345111,-0.010290262425719,-0.019431641407529,0.00475299640804537
0.0373751894693746,0.034037441055429,-0.0288840126262542,-0.00271685328429758
-0.0125075400133127,0.0619522488056599,-0.0407873557678179,-0.00845936279172684
-0.111997171451988,0.10935699093052,-0.058980831212524,-0.0116133605523237
-0.177241865106825,0.17785924682874,-0.0795165401969058,-0.0131712390601026
-0.132527970685113,0.185098845250544,-0.0824430844273116,-0.0147164029935243
-0.0208016138447172,0.0825497255588376,-0.0553822352194613,-0.015654109416305
0.0789755130964073,-0.054041115469449,-0.0165781273504954,-0.013074263834097
0.130676862056861,-0.124359239153406,0.00992152051092475,-0.00553950320795504
0.140325327646329,-0.117224619767102,0.0191545826705846,0.00437825852352744
0.13231042546613,-0.0807053706802467,0.0187153164339022,0.0121006605630457
0.120600783738295,-0.0491106860666899,0.016058221620063,0.0149825696956622
0.10675395773117,-0.0328267441346008,0.0116741305775706,0.0138969207989681
0.0916497347363124,-0.0330277299840523,0.00564080415556821,0.0112850360931752
0.0752249771298189,-0.0459922090798868,0.00139057445660071,0.0089143024134955
0.0509374191113875,-0.0603131112936103,-0.000782338872876277,0.00714563595219557
0.020665728194497,-0.0649600022137957,-0.00359292537006843,0.00558234015591171
0.0036166108480721,-0.0628977297090941,-0.00812936834004199,0.00407690462118093
0.0149904433518965,-0.059967673546577,-0.0132345596852121,0.00261852786034195
0.0315241427622598,-0.0489158833233261,-0.016345914984098,0.00124129551328578
0.0198695286019149,-0.0282934726902206,-0.0149507207484682,0.000192803491067741
-0.00491039657416594,-0.0146151970519174,-0.00977562701331198,-0.000253321852897022
-0.0141172946593073,-0.0147491801146631,-0.00435836717337156,-7.72467830220643e-05
-0.0119978714632074,-0.0164785020800108,-0.00475769860241646,0.000392927241036694
-0.0155382755905176,-0.00615861374322139,-0.0171427216468771,0.000670401326615681
-0.028817639396743,0.0107704556793506,-0.0345559371653923,0.000407289100519589
-0.0330756198925488,0.0297119465570543,-0.0421663135173749,-0.000568275834349536
-0.0128334838397362,0.0578234861603946,-0.0366940517741979,-0.00200075153470623
0.0146238345969861,0.0689637958507438,-0.0198670510028513,-0.00304428045575033
0.0224918366337496,0.0443888545927177,0.00243722446519939,-0.00298431113412864
0.00155191469287167,0.0136613449916442,0.0161950013226304,-0.00207569149553148
-0.0265521878979856,-0.00440134642251091,0.0181591078462938,-0.00151822815269729
-0.0202806502797576,-0.0142220258384782,0.0165166391186649,-0.00232902608667148
0.0301613874197855,-0.0180788543717169,0.0155363625337809,-0.00370809176242175
0.083291422965913,-0.0191548442762562,0.0147012680422004,-0.00334383808705595
0.0889120978252221,-0.025137296554709,0.0121218940471476,-0.000656854871937109
0.0429894006748754,-0.0408402651468166,0.00501646718807849,0.00226017650420797
0.000820649171968973,-0.0552484114805597,-0.00600739610686859,0.00357272811130802
0.000899621744009135,-0.0535773134490823,-0.0175710060768277,0.00335252367798302
0.0151670303804587,-0.0421837883074583,-0.0315955578726852,0.00266983194802989
0.0145701927503506,-0.0381701630654225,-0.0474566077749951,0.00214924753554236
0.00356675543644366,-0.0463432628240279,-0.0539744739806804,0.00148477190780299
0.0012983154643873,-0.0566016274189093,-0.0466262703467543,0.000548976342319205
0.00643693468459404,-0.0607326989486188,-0.0275432566840691,3.19187074815368e-05
-0.00977265768776681,-0.0635768335930575,0.00107691096219351,0.000156886073403165
-0.0404594978748917,-0.0656169209788411,0.022385860377638,0.000396912293560931
-0.0566984607888163,-0.0397509532428963,0.0236343076112444,0.000453168138193554
-0.0609228825573021,0.0295617735266939,0.0166189677970569,3.40621117670132e-05
-0.0716362146062558,0.0941574714256442,0.0138899239371657,-0.000882780180965946
-0.0969200033877328,0.104514740717339,0.00650898983251787,-0.00165512274003388
-0.116552356309319,0.0806363932444055,-0.0159901008746457,-0.00203508521607912
-0.0955479971981319,0.0551590850834423,-0.0257417149522401,-0.00218027938644074
-0.0128301899557517,0.016684577387036,-0.00173220514796525,-0.00209542646839395
0.117931384930928,-0.0358926958663824,0.0128948789047631,-0.00180748820956005
0.221550655581251,-0.0762046071377388,-0.00728322610155828,-0.00111721525169982
0.225865251854216,-0.0994900276495067,-0.0253759830545683,-0.000265597923131792
0.16041028398379,-0.115297515313398,-0.0191332460076005,-0.000229449492627968
0.101358621481281,-0.126776131847242,-0.00139399906371165,-0.000932843318022763
0.0763908198484929,-0.135111518863695,0.0176811230005566,-0.00094919501981213
0.0629650941334106,-0.136726641724677,0.031027373976537,-0.000308488788613754
0.0499132970975167,-0.100586368723846,0.0301876764123543,-0.00123886299086197
0.0597417277181983,-0.00685411876405223,0.0229387514873319,-0.00432431334387553
0.0705724850175558,0.0948779322189946,0.0146898325433914,-0.00647847930787894
0.0395584030347168,0.1559115958611,-0.00366007463576318,-0.00469601185374653
-0.00666067021901977,0.178898795028733,-0.0266767052814848,-0.000124015860512672
-0.0302326988281761,0.159291368930408,-0.0386124257530853,0.00399271730617232
-0.0361817535126982,0.0823953576445412,-0.0268448729550062,0.00632281159072653
-0.026872198872747,-0.0205466134414673,0.0170756544270857,0.00723064047086009
0.0102546342194,-0.0879124716764192,0.0667416545045118,0.00712732337194973
0.049743818977066,-0.0971657767509618,0.081376359751964,0.00578476718436094
0.0387305140985255,-0.0726905111178476,0.0653956945301554,0.00283448206499442
-0.0258597234153792,-0.0388707831337505,0.045161395121779,-0.000868901157754123
-0.10013730592524,-0.0119716280594945,0.0342795646741734,-0.00376992160538519
-0.115871562311533,0.00388399919988822,0.0407181844944984,-0.00511109621953321
-0.0222101463803343,0.0312231821557734,0.0565765628657819,-0.00491070300538583
0.119393978901195,0.0641172804625787,0.0573468887757248,-0.00318358686821279
0.219641106239572,0.0662141757112196,0.0325289869709691,0.000247021366144048
0.262994512163795,0.0461415549562822,-0.000869700323603131,0.00446515059458354
0.234549031346534,0.0567319117193898,-0.0183081398159422,0.00704385904890354
0.142910688040578,0.0939782920751761,-0.0113245204723131,0.00672901299228663
0.0570835451734436,0.0864533714455117,0.00843160219263234,0.00465860011491596
0.0210853174635595,0.0388708625458574,0.0223356776576228,0.0022298419905781
0.00257445080883137,0.019671932512669,0.0265130173190205,-9.68900380030847e-05
-0.0524235693508946,0.021224272516076,0.0252864365871481,-0.00226864770397253
-0.143520839288592,0.00908534927839732,0.0142306546910035,-0.0042948276450348
-0.257777704502207,0.0201525202569092,-0.00908537394465117,-0.00613730921501518
-0.367082052171027,0.0692350288018758,-0.0284353310492501,-0.00735537336644698
-0.355033351366825,0.098802929027472,-0.024148700855222,-0.00735224762461615
-0.176830932307675,0.0784436929153037,-0.00128091360443612,-0.00652665567735866
0.0346041215932258,0.0160430574204946,0.0334173804223257,-0.00623687531535465
0.165087046147198,-0.0717832971928479,0.0749552016896992,-0.00655863123151131
0.225163888715915,-0.125369851431458,0.10687502555359,-0.00573572412461858
0.232450068154859,-0.105699146772683,0.124788724812252,-0.00264474246862621
0.16202194020235,-0.0698299238066726,0.128318861207494,0.00244311982251104
0.0508371472894155,-0.0700110182633837,0.111844099727541,0.00830598035474178
-0.0328736430697538,-0.0823331224029155,0.0804456108857306,0.0128392379397746
-0.0688935616328521,-0.0711210452788094,0.0464949876906948,0.0144003689881718
-0.0602950248330987,-0.0240386829863748,0.0188935820189812,0.0124027854481398
-0.0427766907923839,0.0458456596106398,-0.00169639662107472,0.00692704019495755
-0.0369828060037389,0.101854205981493,-0.0171541408383735,-0.000534465007790372
-0.0232942665024767,0.129888392539124,-0.0212847811887454,-0.00729007965236407
-0.0157389255187882,0.125950303413167,-0.00966537514218685,-0.0113646196276607
-0.0281321459055207,0.0746085261632961,0.0121311017128746,-0.0120451304383267
-0.0326652292730724,-0.00411819163278655,0.0415420538416863,-0.00953689012278556
-0.00892231518147826,-0.0608393867757794,0.0702755235671146,-0.00534225086619666
0.0334039742709979,-0.0572447014224789,0.0731875688088867,-0.00156361932909114
0.0582468533449421,0.00785342665874927,0.040868265191591,0.000527854830605217
0.0340888634770439,0.089001485711889,-0.00987269777532013,0.000932536154019728
-0.0288655062666396,0.124442808815114,-0.066143893426267,0.000235464404262326
-0.087889368825285,0.0923170359163901,-0.110015313120891,-0.00133281571828693
-0.101670996460004,0.0226877889355209,-0.114248351406184,-0.00294162579841489
-0.0518998766843922,-0.0462462438703196,-0.0823927755049018,-0.00336545659192735
0.0236988424670283,-0.0848695706245014,-0.0426625633617925,-0.00276284169890171
0.0491672796067049,-0.0740622058363852,-0.0254501587375379,-0.0016894937782746
0.00421813014330209,-0.0330190779279999,-0.0400025530756939,-0.000160896840510069
-0.0539086375714353,-0.000804196489537253,-0.0467254990936299,0.00180367290288112
-0.0647184072380859,0.00110190131898349,-0.0215045629855337,0.00370691229112572
-0.0297444653586775,-0.0382501877427289,0.00777559204744346,0.00465071501925288
0.00780448270135404,-0.096426901046645,0.0253689067594541,0.00455046706548246
0.0197295003540741,-0.126724493157587,0.0434834984374781,0.0041627438292529
0.00463620887948371,-0.128898083437991,0.0690250830083425,0.00384353972625156
-0.0134867725104441,-0.133876193695665,0.0922224537127069,0.00350165017046986
-0.00920491358713798,-0.144104892689467,0.0983181677070223,0.00327021953580424
0.0217491379265736,-0.142616368039899,0.0883591077776773,0.00324227010819698
0.0835753259855513,-0.117125464930648,0.0718852453420587,0.00329261777682197
0.14966358472704,-0.0583040345005637,0.0459581589097916,0.0034811597648668
0.154951812201636,0.0270728391370662,0.0102669103885856,0.00380825157405781
0.102487520958273,0.11309253299115,-0.0297590716786101,0.00391595720154096
0.0527665737983912,0.218704959735861,-0.0804536728080395,0.00285657382382427
0.0295256058985287,0.315423135909712,-0.126886854703046,-0.000839017549936844
0.050195936635712,0.280682754958375,-0.137762172714268,-0.00673229978993726
0.10033121515861,0.151280210972659,-0.123637507001066,-0.0112371068714679
0.111529437544361,0.09227828887861,-0.109187722703606,-0.0110922974650325
0.0851592729278839,0.125751622572764,-0.101145588944112,-0.00644534110572985
0.070573213344613,0.131799319545083,-0.0997720044439908,-0.000262810956192799
0.0407852783884517,0.0534210069332581,-0.0938546832792901,0.00457738157388115
-0.0250652352115811,-0.040496533244894,-0.0713992436620529,0.0072480618427709
-0.0506657043302698,-0.0971434296623665,-0.0302193784826865,0.00854625046811218
-0.00160992319472339,-0.124225407440824,0.0201580731183507,0.00937928302830586
0.0405937053948348,-0.128096218187815,0.0497546871914376,0.00985333661214346
0.0238507221073178,-0.106217571058044,0.0420311941167257,0.00961478155917988
-0.0052961173931565,-0.0601953686344104,0.01979604666579,0.00807619041760192
-0.00799799411840191,-0.00343097876561996,-8.7635338537847e-05,0.00474375136948834
-0.00972005526366978,0.0162959605388106,-0.0143320675478603,-9.00424538534395e-06
-0.0213530093761541,-0.0130807478754407,-0.0147801768062953,-0.00399334852812113
-0.00477710083820853,-0.0220096412389582,-0.00413693824149657,-0.00430392169152065
0.0518988010876806,0.0289315859162296,0.00586479035055406,-0.000987767306967452
0.0982255665150532,0.106567456786796,0.00888908036062965,0.00260486861961269
0.0896877923255515,0.172979577085199,0.00623055067533253,0.00377659624109409
0.0439673573625299,0.23163635587169,-0.0038931815552795,0.00233055318125167
-0.0126764661748716,0.256010283184312,-0.0210658346260236,-0.000839903519618616
-0.0618026469000084,0.195690490136299,-0.0326774408354939,-0.00452094186903811
-0.07523448650132,0.096415428067593,-0.034174716144807,-0.00764267750871993
-0.07791303079327,0.01969851753408,-0.0352517900162546,-0.00956945771478475
-0.0755840910930383,-0.0307581014492354,-0.0369640331649519,-0.00938429339888058
-0.020579097533368,-0.0448115775084139,-0.029227777165678,-0.00694404859273552
0.058565970816875,-0.0246436551001432,-0.0151991613338506,-0.00351063370950735
0.0914763506710016,-0.00305025875055702,-0.0071946322369385,-0.000188462307650987
0.0661052905220627,0.0114579129631693,-0.00218030902836256,0.0024331073968725
0.0321228535498461,0.0312610835257751,0.00823408966543344,0.00446158496157035
0.030104914392915,0.0507577595855155,0.0159032023563247,0.00635582746429827
0.0323015661035076,0.0593334782287729,0.00672492101888717,0.00750811918638949
-0.00343922214839121,0.0722134354680352,-0.0203419058284076,0.00711390879266882
-0.0506648205293107,0.112401932161879,-0.0510813456957208,0.00509050168062345
-0.0424740921523839,0.132833869198493,-0.0575176916822042,0.00150531080123742
0.0313947787897463,0.0706405777931352,-0.0295910017492189,-0.00287024165520495
0.103527327869668,-0.0138081671113024,0.0084837741217548,-0.00660712037283635
0.117400557716707,-0.0312103119604749,0.0388781245360176,-0.00881636171565845
0.0832960238604004,-0.00286506631757707,0.0639736089267753,-0.00874524581672212
0.0316285919717887,0.013485042246993,0.0743326119626966,-0.00597460674212001
-0.00767962519920357,0.0232187105804308,0.0525208039058356,-0.00237781507796216
-0.0341580473551389,0.0384810486109361,0.0127592439802033,-0.000791726008881252
-0.0674342145108939,0.0303645300667227,-0.0122700630618741,-0.00106096192031698
-0.0905357634591625,-0.00353953154215116,-0.0209914861167772,-0.000614691615615149
-0.105073489027923,-0.0389229795140403,-0.0264387212442571,0.00111566543211364
-0.1358196881613,-0.0642052804102405,-0.0190927589937196,0.00271176866084023
-0.16380567366962,-0.0671369818074138,-0.00113498429577912,0.00334626532558983
-0.143316587684738,-0.0499702385024464,0.0140015799889401,0.00257663083140037
-0.0679596497598964,-0.0445162235861283,0.0322262746532015,0.000713845736745719
0.00426561551402554,-0.0623684619334961,0.0515994018904368,-0.00071417420692768
0.0310116539520174,-0.0666195066925356,0.0514996326642613,-0.000718838342333132
0.0263162339041483,-0.0105059238355297,0.0181205483761022,-9.40615617119308e-05
0.0252176233288307,0.0798616217929461,-0.0221505192962322,-0.00019610020772517
0.0522354967141023,0.108183389118173,-0.0196374922503894,-0.00106088998831236
0.0869377922737386,0.0759730835042834,0.0159782633810327,-0.00153490960543289
0.109095877426878,0.101624650793809,0.0227854398696469,-0.00125643800664307
0.123920058138587,0.193692037296133,-0.0141805089763797,-0.00160557575666899
0.0964434957703711,0.22218306038559,-0.0512140591460805,-0.00314048298996729
0.0221705018336353,0.146428849124221,-0.0550619973407085,-0.00390810911989845
-0.023032130613174,0.0443003894173817,-0.0290386463830638,-0.00230206731375326
-0.0251960496807467,-0.0421217069932531,0.0107185312388266,0.000960148955494798
-0.0395930026281345,-0.120217346471072,0.052824783923422,0.00479411089250006
-0.0559822699633635,-0.170689353625613,0.0891295923350545,0.00841151572945421
-0.0273015368871976,-0.168207583731629,0.108789862730735,0.00977689759591198
0.0115213651321084,-0.141124266221259,0.10966388045058,0.00784384090940719
0.00636392464642111,-0.121266983250765,0.0993086211001344,0.00477453536180741
-0.0209408424309371,-0.100414828381559,0.0865026708863118,0.0027545625008601
-0.0311352372661392,-0.0760729530137207,0.0880964193756528,0.00160364819493087
-0.0177732380199136,-0.04949239953003,0.103641307524022,0.000522016875841851
0.00976671178361653,-0.0239592134440842,0.11516212363502,-0.000576468977408643
0.0251087952494402,-0.00665787946057303,0.114302081432243,-0.0017412476241607
0.00119147716519803,0.0350890499741619,0.0921724822784189,-0.00328347247903921
-0.0492758878347921,0.093240334628993,0.0575519767911001,-0.00530864654930569
-0.0954994757199194,0.0894000256926683,0.0356935086211346,-0.00753704750351623
-0.138303746313991,0.012104453497886,0.0212706074698415,-0.009851177757249
-0.162102766754805,-0.0694986706910186,-0.00169826965259218,-0.0119782768364709
-0.107303898134214,-0.0841453702918803,-0.0197939941077365,-0.0125311823881523
0.00559503277046261,-0.0425594960033379,-0.0137563914632416,-0.00874966751535045
0.0869681192151227,-0.0278815465922226,0.00817212485236811,0.00138628061556532
0.106123168930244,-0.0500091702595888,0.0297141359094973,0.0141324068539688
0.0827522097165694,-0.0625481071509274,0.0559059670352529,0.0218522990777295
0.0487870351042065,-0.0585050274735971,0.0850107446191385,0.0212839858754373
0.025896054335268,-0.0364174563085078,0.0956054572579031,0.0148690290886074
0.0053573221056805,0.0485167872056928,0.077608671472244,0.00642848954526061
-0.0331080485435543,0.182119524429346,0.0501695405062035,-0.00100318992127456
-0.0741174554842831,0.226352112817731,0.0487117782464075,-0.00563588446968324
-0.0832118424697112,0.151189970248921,0.0836161407443824,-0.00795041320052295
-0.0544609710639301,0.066021177084831,0.129222672875,-0.00997208860206559
-0.013039351333751,-0.0176153912152731,0.157102526043476,-0.0124176757394208
0.00897907355492858,-0.126079036860849,0.158630771702033,-0.013654482000124
0.0161019988332208,-0.200709556282828,0.141125581645156,-0.011926331062801
-0.0118741540803799,-0.211312689405183,0.123066282711045,-0.007389766100742
-0.0971789256744552,-0.192090416590647,0.114382845099966,-0.00155551986708873
-0.163853567992779,-0.168335590005728,0.101622455395764,0.00345707380410428
-0.168126187038282,-0.154112812673542,0.0838151880430948,0.00605446794145374
-0.143898850432914,-0.129336297342765,0.0721218918909512,0.00647093873432202
-0.0814906821482085,-0.0564453451670787,0.0553466681769745,0.00554624617187055
-0.00672876161422226,0.0236233557574344,0.0247377334406679,0.0037229040764078
0.0114940732694882,0.0589925646792399,-0.00724584533023812,0.00167173598489749
-0.00746936714022558,0.0548968535078531,-0.0224627790951451,0.000238874068278164
-0.021921427748052,0.00637480590230742,-0.00445912281486792,-0.00025671524595667
-0.0289582078463899,-0.0464445315034688,0.0302048023760315,-0.0004255726153715
-0.0316185200618537,-0.0457229761626178,0.0511551692453323,-0.00104433237567199
-0.0397033846790119,-0.0285685477057384,0.0674241200597718,-0.00187637821580826
-0.0660517611041099,-0.0136399830833676,0.081537414254797,-0.00210793283052654
-0.10523846253586,0.0280069158063778,0.0758559555458872,-0.00170759148834617
-0.130694096533269,0.0704502039149019,0.063891207483549,-0.00124993386526553
-0.12830856022807,0.0766154570416372,0.0666403587515114,-0.000858440866899231
-0.0938257637727914,0.0591016137973383,0.076835868338633,-0.000204705513431278
-0.0309810538418777,0.0498035710276494,0.0803320189583482,0.000843355143492618
0.0290180140331357,0.0660019572304391,0.0691746700091198,0.00166798103806047
0.0617162493222369,0.0912868830298603,0.0382027138983769,0.00137127623671251
0.0562645700440441,0.0985690268431332,-0.00265732262700784,-0.000421730997770998
0.012214673403927,0.109930718906977,-0.0375953987723403,-0.00330131637891601
-0.0331123721322456,0.118500780681644,-0.0596143840352224,-0.00584551181404261
-0.0657976293361656,0.083999586775429,-0.0639979724628251,-0.00667206137187864
-0.108012800281533,0.038056651562026,-0.0481699723482066,-0.00547858442087256
-0.134018476647997,0.00435673184984314,-0.0212453251231252,-0.00246269566360416
-0.124204285185731,-0.0272614730983778,-0.00483840743768048,0.00186539103955367
-0.105961753267287,-0.0397871627302958,0.000374030379465179,0.0059360478063829
-0.0912473947517541,-0.0279612995860523,0.0189729286691099,0.00794049281741226
-0.0790800556531147,-0.0103790323195536,0.0489947220609251,0.00764975069543473
-0.0703836435570064,0.0049667589203341,0.062540824050114,0.0062026990404286
-0.0567672448852395,0.0190326858460039,0.0543463556256586,0.00458252075658754
-0.0314494929838839,0.0281563876762224,0.0412108052976476,0.00297050973148687
0.00889984326328622,0.0394103918977034,0.0274046594399538,0.00134273578626842
0.0605527934241768,0.0592577022232269,0.00868561188205221,-0.000300818237481375
0.101186932864754,0.0746776851603408,-0.0068317858628187,-0.00185679049322512
0.126357108537523,0.0846194592471734,-0.0138678706541435,-0.00275958681021553
0.145763770762238,0.0966141416612556,-0.017937931267003,-0.00264604182498433
0.140703067239324,0.106403477188992,-0.0219499546736404,-0.00204076245561789
0.0922134859960655,0.107673313557813,-0.0309131823301146,-0.00185908890159895
0.00883828978738962,0.101379830372651,-0.0490677126719403,-0.00239613702945964
-0.0836508460885504,0.111389644430777,-0.0700230390602027,-0.00316065658905785
-0.153544759434987,0.125338346900942,-0.0858629096660164,-0.00366054618886363
-0.198058539151874,0.0961117807968569,-0.0864281827584377,-0.00369619225322942
-0.2397942026156,0.0522936873905341,-0.0631811823111173,-0.00295344189754696
-0.253519408817648,0.0350975932685813,-0.0282499282811223,-0.000888695682504257
-0.18175021924871,0.0118214960668477,0.00729156225001999,0.00227268324620335
-0.0425785372762932,-0.0397867116652766,0.0436813211746512,0.00498938307313421
0.0756243746633421,-0.080392174473787,0.0642090073731509,0.00602133105607687
0.14381675066659,-0.0814539429087957,0.0596052737473983,0.00531692893230429
0.187186375436917,-0.0589975320976148,0.0483547175371808,0.00357289687200635
0.205361721763235,-0.0290836601016886,0.0394604637231353,0.00259914623886037
0.205383099223506,-0.00740752599602504,0.0272974432172503,0.0033666761057928
0.202818984241782,-0.012700947874518,0.0118990815295991,0.00351946503858759
0.170053167443791,-0.0292205015583179,-0.00396291178713587,0.000363106921468621
0.0882089777074289,-0.0360346093560096,-0.00913330800169497,-0.00461042198430272
0.0139933746654756,-0.0340515926836943,0.002817650736487,-0.00643075823900766
-0.0291178855246285,0.00507668693747064,0.0033424168489115,-0.00283681124241428
-0.0954680330218204,0.0877120417603693,-0.0290493046997023,0.00256908475190807
-0.209246957430636,0.137407020644143,-0.0706850878594091,0.00603951880127653
-0.290311517537255,0.0874597824706271,-0.0986260480975547,0.00802619157679294
-0.22074300807085,-0.00601124299580166,-0.107838846196617,0.00831157006170777
-0.0419932839163656,-0.0284060125831101,-0.0883555331352934,0.00414489385937956
0.0793084837271207,0.0157721677908359,-0.0420020665657836,-0.00330054928348755
0.0777776842399507,0.035266948473076,0.00403329662037639,-0.0082674510073327
0.0119866220774674,0.00706943992691071,0.0193348879974685,-0.0073883876579714
-0.0447771876337915,-0.0172241054563949,-0.000731935397878816,-0.00287854360922779
-0.0550176002758761,-0.00429973337646805,-0.0367412381890371,0.000943270747446777
-0.024727760357143,0.0159607961137897,-0.0594244566277133,0.00175064478503039
0.0140694851995187,0.00193553553425488,-0.0449481208219906,0.00033513772777974
0.040358716391408,-0.0483609809606843,-0.0119536330596048,-0.000392190610248224
0.0504911397222159,-0.100665086091126,0.00683328475813222,0.00112136454323673
0.0356126739114992,-0.102745017897784,0.00862786527819832,0.00299692127528309
-0.00186777276398448,-0.0582452909089712,0.00141290560321981,0.00291773923223149
-0.0356167660324998,-0.0437003481515508,-0.00118210164704353,0.0010592181510268
-0.0500691034858343,-0.0872451307019492,0.0113263209885388,-0.000987803844041737
-0.0432363650776181,-0.146661094095526,0.024721089457258,-0.00258698017072991
-0.0206412956048933,-0.174876960388014,0.0166911019071718,-0.00403444678643179
-0.00330671914709178,-0.136103898196747,-0.015236054035724,-0.00497308213109917
-0.00462475522673696,-0.037830182226166,-0.0485924278148586,-0.00472263376085598
-0.00754980363365818,0.0366831592434278,-0.0513855065678735,-0.00315094499835256
-0.00328803355064114,0.0397991522755373,-0.0320628128895338,0.000196288298452849
-0.0181987675956708,0.0519125228122182,-0.0393734574848698,0.00471186557190832
-0.057365439568041,0.105202431554115,-0.0797685311828325,0.00721780911937242
-0.0951898612536392,0.122194274488224,-0.112548114166643,0.00565810597400649
-0.106528431776077,0.0791819506945628,-0.109968380419731,0.00182392924017937
-0.0828139654607713,0.0283062912656379,-0.0834897312581324,-0.00124802282138173
-0.0411159726483187,0.000644792009216862,-0.0608771634231938,-0.0023705032618968
-0.00873147871372814,-0.0165651421144261,-0.0505775204267905,-0.00230532971736694
-0.00296639598149643,-0.0350944490018592,-0.0436657451151754,-0.00228687206876283
-0.0157334639245112,-0.0585642029260897,-0.0269678950684362,-0.00263968745237888
-0.0289344586873482,-0.0898957235097914,-0.00342890096564188,-0.00255049449892317
-0.0268268858539308,-0.115060963324979,0.00986075099661313,-0.0013817742119908
-0.0013031344308886,-0.125438962685248,0.0101917757661137,0.000309241782774951
0.0276962505093879,-0.131943024189194,0.00450651612077219,0.00132798456802733
0.0423732781002349,-0.128882496290745,-0.00599370364304504,0.00111438421008911
0.0604891522189052,-0.120984992288034,-0.0160083692513331,6.80577790631016e-05
0.0921297869871471,-0.125144510524539,-0.0143984571180085,-0.000895644526375623
0.122792264574146,-0.116494572883184,-0.0061215544952937,-0.00091850776957523
0.125275813245623,-0.0562885539285136,-0.0126688549793058,0.000119203004160141
0.0936048241695946,0.0408413605423186,-0.0361071369018723,0.00131403451264967
0.0582003880541127,0.113123869742986,-0.0543960317235973,0.00144052023744383
0.0190277670842555,0.118295307366868,-0.0570298973353262,0.000224447805157719
-0.0526471988495416,0.0727335665265057,-0.0581905716020226,-0.00149700803017299
-0.148202512089508,0.0401925645406619,-0.0699825925872922,-0.00250030525180199
-0.214321655314151,0.0538391450120529,-0.0808955056464238,-0.00228107575703518
-0.222151671862415,0.0667139246290745,-0.0745894692281117,-0.00182602137786557
-0.181043888071957,0.0165898959253499,-0.0447779434420255,-0.00203645876719511
-0.108599468644075,-0.0798618861313583,-0.00252994513956947,-0.00211105948154016
-0.0454597744741362,-0.144668691460092,0.0227857136429139,-0.00128523143328048
-0.0137856051080149,-0.143962459314413,0.017491400943016,-0.000416488871449608
-0.00622412731775587,-0.0869085621808909,-0.00685999454435027,-0.000398100607257372
-0.000410804173277324,0.00306895423909739,-0.0283748568265784,-0.000894749767878009
0.051376488726932,0.0599677698592801,-0.0241949494182733,-0.00110080350188855
0.137720832155835,0.0425180005027942,0.000477400114565082,-0.000281883586507966
0.183096744223925,-0.0113282294912941,0.0188673523899911,0.00183975969252761
0.162147031251341,-0.053263634197767,0.0231956636719763,0.00450462539532787
0.101595414017645,-0.0747812454270093,0.0287064650389827,0.00632380054105782
0.0329159831171519,-0.0810910331007215,0.0457756028893116,0.00640083189007103
-0.0158288333210789,-0.0704249947792629,0.0601151751125183,0.00527498915293918
-0.0408766995726566,-0.0408452490010953,0.0556690297949362,0.0038484236896322
-0.0501258798724894,-0.00105688870729995,0.0303260706267605,0.00216052832214582
-0.0373080896039796,0.0238858014409817,-0.0108089653388655,7.97205347964893e-05
-0.00574917089618798,0.0211450731964939,-0.0419541329248642,-0.00197903320669054
0.02296581636817,0.00412259148090469,-0.0467757809647367,-0.00283103300419648
0.0419999754883141,0.00542141755305483,-0.043300686048211,-0.00208013557733755
0.0375451347773412,0.0521528253049306,-0.0480180296556797,-0.00102364651132072
-0.0183815000046741,0.122382801337114,-0.064975621042115,-0.000809848439419534
-0.0938966880210604,0.185900802369715,-0.0888267744281286,-0.00162536517916448
-0.127352481542967,0.229893442288901,-0.105533781623012,-0.00328615956809948
-0.130935334529308,0.211398900843824,-0.106043181819783,-0.00528104151468684
-0.154213616138727,0.138835090735843,-0.0961776114900117,-0.00691887942138758
-0.193690020581715,0.0840234078918694,-0.0861249574823031,-0.00793744374763217
-0.207427727774704,0.0501203195987054,-0.0701939021528285,-0.00858022923926617
-0.169908699100837,0.000922777825784843,-0.0334915349492996,-0.00867342458395247
-0.0772048195715969,-0.0538687139199575,0.0119194735486303,-0.00717509786761962
0.0569482665809808,-0.0873701466636942,0.036910032986526,-0.00352563114097783
0.168423306121512,-0.101399762974248,0.0427186653615505,0.00144633144915454
0.204885414310583,-0.0997029400614451,0.0444033112155549,0.00613233004902199
0.195926006525551,-0.0733692226032659,0.0431307055282818,0.00926915714866805
0.177641994108674,-0.036133324071657,0.0365495123890847,0.0107212406101708
0.148968243715575,-0.00583702409204295,0.0241917162594279,0.0107922559615569
0.0989493200729674,0.0130194454537323,0.010746046166354,0.00926403286918669
0.0349344782506354,0.0162842227254711,0.00451094798823797,0.00629933989524474
-0.0171175289196648,0.00352063719408542,0.00427279583249031,0.00317911284796979
-0.0501147524740111,-0.0258810339928266,0.00460763877636117,0.00065785157035542
-0.07780927384653,-0.0440524745729688,-0.000684817164143689,-0.00158328011335177
-0.0970405443545111,-0.0128799621381209,-0.0171164762477808,-0.00360776156172697
-0.0754326449278965,0.0565036817704779,-0.0349381319006644,-0.0049928490354467
-0.0216692320251886,0.117411046418058,-0.047010420799829,-0.00568054404322892
0.00849357220428923,0.124375247615651,-0.0600963715114187,-0.00596215195980166
0.021563173386383,0.0832159265895661,-0.0659047044667521,-0.00571157343975747
0.0528225521950799,0.0348582183814505,-0.0391044873451837,-0.0046078521673434
0.0813967558656126,-0.00929157919224788,0.0127547140751467,-0.00261407158214634
0.0823121896168694,-0.0475772619407109,0.0480142720451317,-0.000228271594110657
0.0667623809324976,-0.0663548354721667,0.0538440568697533,0.00168591245204579
0.0497941916213602,-0.0634711886399328,0.0477228805819265,0.00283401245571321
0.0449376207318268,-0.0542793857510852,0.0429369800609422,0.0034654702314012
0.0624542269252317,-0.0475991452850662,0.0359967815196129,0.00364030192218292
0.0646243092268403,-0.0343165504368659,0.0167312345266629,0.00341047988394648
0.00696290175268827,-0.00305868270816587,-0.0108023226708062,0.00309351395835609
-0.0909942531204749,0.0361582080738549,-0.0325332806324119,0.00287294949756416
-0.149087302796446,0.055807635252591,-0.0393048821794141,0.00219884778553132
-0.104840771306181,0.0454125670282886,-0.0360755531358815,0.000215862316332318
-0.00326521434763954,-0.00135839084666163,-0.0250547764571743,-0.00285075633668027
0.0642030972644299,-0.0719925308256865,-0.0051280320105213,-0.00494604765050069
0.0576925231174526,-0.117225287682907,0.0186706350408894,-0.00403305054201134
0.00966888689343552,-0.116207351231444,0.040716709452849,-0.000708467989861557
-0.0157068309124769,-0.0718940354012106,0.0471922929923193,0.00283324326784918
0.0113693004079348,-0.0137427658655895,0.037415311960013,0.00491718070486553
0.0550762711471802,-0.0127351320651892,0.0398453303699575,0.00486094424674539
0.0651991357789476,-0.0760112384668576,0.072625311014942,0.00355758307354209
0.0611344006685375,-0.123501985337334,0.106581018403787,0.00286704538982633
0.0793227709604284,-0.0906098014606926,0.101191973767792,0.0030258171167022
0.0905296116237604,-0.0059908503452526,0.0657850196795594,0.00248090693902644
0.0553846635652596,0.0518700186468977,0.0339301966706536,0.000981361666469134
-0.0219565006671851,0.0512657950486822,0.0136370898712534,0.000174583633169348
-0.0911613179098111,-0.00135394421076071,-8.31224413222476e-06,0.000596358181838213
-0.101380827987492,-0.0736245689135204,-0.00591320763380893,0.000731293609126603
-0.0758179031284418,-0.0976636008737469,-0.0139012014140189,-0.000707002833650081
-0.0544034908998082,-0.0295213314602271,-0.0409170511571359,-0.00322624726513762
-0.0351363955060117,0.0757731643614066,-0.0670116317001081,-0.00510374256367267
-0.0202359520380198,0.120596689828619,-0.0641187025860837,-0.00509643370205998
-0.0226290395753464,0.0948433411295743,-0.0458381666609473,-0.0037946305104735
-0.0333507796694146,0.0395614861871036,-0.0351151020914693,-0.00281010611782968
-0.035452573283063,-0.0111075824499925,-0.0349572454672008,-0.00271577115545652
-0.0221323264843568,-0.0132601095685485,-0.0333605207598548,-0.00240031113079251
-0.000671817705082269,0.024953235651832,-0.0299094627918453,-0.000901909225501255
0.0139627993907233,0.0373760491042159,-0.0287504432110772,0.00100018593369968
0.0252549446521744,0.0174736344904195,-0.0188575153057433,0.00224469521227296
0.030817691641773,0.013126980244607,-0.00627660074774632,0.00247062211198276
0.00884228002874251,0.0158935331418002,-0.00445530147081999,0.00129040896586676
-0.0339877190645296,-0.00712833647492449,-0.0079779215968686,-0.00104916129644256
-0.0674949871218805,-0.052432740253011,-0.0100752868193414,-0.00301616586860894
-0.0831825183452611,-0.092333550865625,-0.0106958515027534,-0.0035998429751726
-0.0570122555070807,-0.0951796486966713,-0.014415045253899,-0.00333985353511476
0.0172673179763209,-0.0686676775641546,-0.0241473718973987,-0.00281017849585561
0.055153396954453,-0.038831402023814,-0.0345491006149072,-0.0019264761242558
0.0167114102040858,0.00429405783000833,-0.0444371281716748,-0.000678334551171863
-0.0301210827969279,0.0633866356262925,-0.0581162607528873,0.000685080270098102
-0.0347700243977681,0.0817109863033565,-0.0679914259122946,0.00197049914815691
-0.00104266468637908,0.0403358773527477,-0.0625985855597059,0.00323015352811663
0.0535180255692216,0.00377270495286831,-0.046223568439864,0.00434657173449926
0.0946523184420634,0.00886191063181872,-0.0330924591021463,0.00461632091566361
0.0919556420162021,0.0334633770594252,-0.0285730100147455,0.00340236210437613
0.0649975242532707,0.0393570308578504,-0.0232228989005487,0.000442796122958115
0.044110595828201,0.0360754417141231,-0.0175473285698191,-0.00340953920103093
0.02078653653734,0.0578175144677976,-0.0208198914741035,-0.00602307236181189
-0.0217887557607185,0.0579275363926738,-0.0231040350498256,-0.00630966764784841
-0.0772913637783457,-0.00458870024048993,-0.0153454577648864,-0.004849496593183
-0.11271254702883,-0.0704099314454484,-0.0065810355654648,-0.00226307939015486
-0.0925785269317251,-0.0945403535183633,-0.00458508505259903,0.0011040959189058
-0.0319258397336953,-0.0962699131459803,-0.0105474392588236,0.0044191412339187
0.0234650976589935,-0.0850260326264795,-0.0278161045289548,0.00623063475554829
0.0590692822081587,-0.0493261927510748,-0.0491514436618172,0.00584396356412228
0.0913821578369292,0.00837423319783781,-0.063598126645535,0.00404975935084847
0.149733369981135,0.0852705125504224,-0.0760604274007213,0.00175124730378836
0.235740158229995,0.157348740882216,-0.0827267254925092,-0.000535898536496226
0.293847660945732,0.168748065399082,-0.0723589422660749,-0.00259484637336854
0.275172104567126,0.11221548434896,-0.053314906117272,-0.00421361994089921
0.184438831229648,0.0348384246966809,-0.0384720221257124,-0.00404080153484321
0.0797031763693728,-0.0288477899551446,-0.0352439355279791,-0.00120828162999821
0.0201559725332561,-0.0770102367381871,-0.0406217591818206,0.00275383529285063
-0.00533381621999657,-0.114414109582195,-0.0378566172312399,0.00596258258730068
-0.0550333499762523,-0.114705255652017,-0.0347724838446159,0.00773807058887792
-0.152147244669433,-0.0553774988933438,-0.0449040394156097,0.00771373460240206
-0.218871763570376,0.029058587126933,-0.0540428945438002,0.00577056020920949
-0.174578197882732,0.110678863085393,-0.0493575266987259,0.00227234813687917
-0.0615462045855268,0.173420235505014,-0.0300012664207673,-0.00251155499943915
0.0470884339507537,0.162383952883422,0.00156413856332985,-0.00746187523076151
0.118453935631671,0.0740831868639077,0.0472705880022926,-0.00985141024677105
0.128614116212651,-0.0217489573395073,0.0900604808292892,-0.00749536045652336
0.0927174617431643,-0.0705883771723671,0.0872474426357236,-0.00159864861701243
0.0731799485723073,-0.0754941672831342,0.0471962136072855,0.0036501188013791
0.09302832794211,-0.0885592599274165,0.0207333826089916,0.00545359140872816
0.103758257769791,-0.120431911569481,0.0111189560050453,0.00434088730856134
0.0764249325699017,-0.116345848628272,-0.00336546977198288,0.00179866190111915
0.0399941196632072,-0.0440381249681674,-0.0313547107978623,-0.000679397966869348
0.0382497276134044,0.0704860653477123,-0.0781681564507118,-0.00178305947145334
0.074221030479996,0.174461102699997,-0.127368193609293,-0.00169953050093635
0.0813043626628651,0.222729701936722,-0.145082945760205,-0.00117612546340598
0.0295927164756875,0.214302358604475,-0.125538638956556,-4.52609241558639e-05
-0.0184175482546062,0.172848395903582,-0.0865608521332512,0.00127940099842173
-0.0274904766687577,0.0955901145016987,-0.0404384990684869,0.00174665744312679
-0.0111616060552326,-0.000745035894754692,0.00514078653378196,0.0015631953645933
0.0242029240680576,-0.0805900883802485,0.0392906394764549,0.00160039083644693
0.0558050938505471,-0.131482168307919,0.0517708694212644,0.00190882063349221
0.0531959671533698,-0.144716512525296,0.047682321473855,0.00167293195370741
0.0220364383542028,-0.126030056150034,0.0333947607187392,0.000410106186633305
-0.0280699912356583,-0.102709790690406,0.0137216575516681,-0.00139863414297458
-0.0989287904275364,-0.0793220792616424,-0.0027925427148166,-0.00265222687735123
-0.159520437023902,-0.041303523375424,-0.0184320386750347,-0.00275465737876787
-0.163269305064801,-0.0113827265233267,-0.0316224133996312,-0.00272988388036977
-0.101355046464395,0.0193263064215287,-0.0401785919103382,-0.00387385436183688
-0.0376779528398757,0.103111564472699,-0.0458249760622489,-0.0063538499447819
-0.0477226112430971,0.190484213492048,-0.0498054940789497,-0.008515943660771
-0.10006786836682,0.205935633612373,-0.0659596801534674,-0.0075046006096921
-0.0675922137137127,0.203715005206523,-0.096884456043659,-0.00354871614779461
0.0882985007977524,0.234053508410763,-0.109722439869717,-0.00053768475516495
0.205528352210198,0.210053416935491,-0.0701482297179698,-0.000276387958308258
0.152581350279001,0.0847285696501602,-0.000927418297318267,-0.00026170773882236
0.0234697488277046,-0.0398808196678052,0.04961986732043,0.00168521216632036
-0.0343157260569959,-0.090558062410804,0.0706160248425829,0.00481428696208928
-0.000123699488666223,-0.0938410913277764,0.0701539318770356,0.00808104983338562
0.0513441594768431,-0.08593335633753,0.0531598075977499,0.0105736080645316
0.0829886806177206,-0.0709619459051443,0.0309784837234046,0.0107963301738311
0.104442533410767,-0.0419677184939142,0.0168378560830337,0.00866792025485486
0.0725453223692561,-0.00905311642515821,0.00662388862606651,0.00589194084070857
-0.0216654890813106,0.017514666467574,-0.00307397817526639,0.00344010478956753
-0.0954529831832114,0.0282050851264949,0.00137087443927187,0.00107061870396658
-0.12879182419415,0.0158833701996036,0.00905087925800285,-0.00135496140009679
-0.165150845360322,0.00106254888985885,-0.00855189203900234,-0.00444203421830144
-0.199306005106677,0.00818691642722037,-0.0361665599937397,-0.00863949990239297
-0.197356797152005,0.0447199118304895,-0.042023514664912,-0.0121223808677558
-0.133628139650383,0.0850559920279395,-0.0310877573085867,-0.0121662422388834
-0.0305183910411125,0.0791527938643069,-0.0197012040437989,-0.0085325863004328
0.0593549072181232,0.0335028321650081,-0.0147310237683243,-0.0034514903904193
0.135854400108593,-0.00604221840439687,-0.0135710830024122,0.000995820225170484
0.196999882263166,-0.0224874971702661,-0.00854989396533135,0.00457114489642359
0.206751005436234,-0.0181187203472611,0.00170470475123512,0.00762607386776093
0.180233142118675,-0.0121740340174525,0.0165840659806018,0.00923341943375681
0.187175667347612,-0.0123899225359547,0.032532082082448,0.00903502607064796
0.232470349123522,-0.00858856244028429,0.0480730503305374,0.00867662748297642
0.218831131259807,-0.00954505143654055,0.0636202982606668,0.00913925935145186
0.116344764503463,-0.0183975653522674,0.0735837636268103,0.00927070267955587
0.0118763958973735,-0.021374294960228,0.0711890835894291,0.0078504580095567
-0.0502441598235585,-0.0229873849900564,0.0556979339676068,0.00493676976295641
-0.10428853223115,-0.0373154841695702,0.0300596368246115,0.00152117838475388
-0.186819755740297,-0.0547891866593343,-0.00308708510432187,-0.00176286942360109
-0.285490511048862,-0.0440733941499658,-0.034295061836861,-0.00505426350413176
-0.341449795513121,-0.0294934490608434,-0.0488782063032818,-0.0081233657680378
-0.293342229797355,-0.0683576690729396,-0.027528715479731,-0.0096142259895422
-0.11821522952091,-0.134172353037434,0.0294189955049433,-0.00805972319743179
0.109378659024248,-0.156360217471094,0.0748845595579666,-0.00441348566882758
0.259124304209842,-0.113269444089634,0.0793341807662985,-0.00166147228862757
0.278257048114119,-0.0659409504927607,0.0727363635256113,-0.00158445002724532
0.197062169046622,-0.0586377551831875,0.0721456720212686,-0.00281981110538374
0.0905638383197584,-0.0629197236761151,0.0629460759172307,-0.00212972531120996
0.0293357425218199,-0.0302517521778044,0.0494742549100971,0.00188245561647313
-0.00963399303705578,0.0619820574879144,0.0441285903164392,0.00682848510791425
-0.0803241375616816,0.152403519025449,0.0330588619023967,0.00906594552222476
-0.149353576436504,0.19185813228832,-0.000937635216005726,0.00684016115437489
-0.148876348498827,0.166684609805074,-0.0360545142633931,0.000626358598261967
-0.0959218462013017,0.0397716117588911,-0.0473980214993081,-0.00685353232102883
-0.0395636555975769,-0.111491373004503,-0.0491349997684064,-0.0113775188628277
0.00458575011106785,-0.16812268841087,-0.0471092222369921,-0.0105831482465654
0.00525484305694877,-0.167504721194954,-0.0238376673278949,-0.00580808860260429
-0.0258767406933239,-0.168070679400371,0.0191706596411122,-0.000602421415885564
-0.0302949651782429,-0.14026522242349,0.0566491769354786,0.00215491810368302
-0.00991766401219795,-0.0764771594245341,0.0692036244370502,0.00238264186725197
0.0145268760256238,-0.0319554607956512,0.0661915329951555,0.00116332897304016
0.0519436749468165,-0.0296106213327922,0.062984095425082,-0.000906696459160237
0.0737741859032297,-0.0468572793007323,0.0609701923570577,-0.00270654099170464
0.0482861718850459,-0.0793282016896583,0.0597156831125593,-0.00292566900144134
0.0121722159094702,-0.105381240276376,0.0528817485859473,-0.00165110668094515
-0.0110535374362112,-0.0802926109142894,0.0268487561931167,-0.000255139103909038
-0.0427360926186556,-0.00583621755223335,-0.0133243336432944,-8.94451086769124e-06
-0.0793719018228102,0.062021596229463,-0.0330322561549754,-0.00125607069597116
-0.099212058360854,0.0854536164745404,-0.0197902964552816,-0.00319471868268039
-0.097548212002853,0.0858246413660622,0.00574086465420138,-0.00438044406271866
-0.0867169275607671,0.0994392713902547,0.0280250210230612,-0.00421216620641949
-0.0775084902008502,0.123958122405397,0.0325814535506762,-0.00347722508801597
-0.0499341398164407,0.140260233926059,0.0169419303734752,-0.00306184426787344
0.00777441614439745,0.142036275456321,-0.000565226755907942,-0.00332182848570949
0.0564150411256535,0.10936287310215,0.00253480089622881,-0.00377694104260055
0.057218011291685,0.0475457046814114,0.0237229083370738,-0.00278145715023818
0.0135667254570861,0.0179150815342325,0.0353537325581287,0.000246895711744344
-0.02400987051379,0.0515622687825685,0.0144154049882248,0.00353159462152024
-0.00461169125665715,0.100706259134599,-0.0344511116877384,0.00515888770516623
0.0614847685707239,0.0925643458964514,-0.0624903400051163,0.00434103339422879
0.108660434048553,0.0229966191319815,-0.0534904214865545,0.00206186655987383
0.0844464690116376,-0.0501914288512243,-0.0461225696367452,0.000563824474537023
0.0374195810711133,-0.110515929232292,-0.0396619428045317,0.000447996814082066
0.051550147536221,-0.155339002972849,-0.0145430141197903,0.000981060110420191
0.108409497129936,-0.158127095541132,0.0203387380542695,0.00201011873291425
0.125508743247666,-0.127137907821544,0.0480765477209765,0.00345408963358588
0.100925777516788,-0.0986470749236026,0.0613176352718343,0.00524999402320253
0.0862228729672636,-0.0822640452068112,0.0651255120061838,0.00717702132859124
0.0655428464560123,-0.0646111546993965,0.0559581360307514,0.00790772354696652
0.0200603665705481,-0.0506371275803139,0.0476164920809249,0.00620550683481069
-0.0347077433804621,-0.0591474029202792,0.0549328620352894,0.00287818039260451
-0.122571066474203,-0.0666936014320074,0.034435661696762,1.2832750544348e-05
-0.256927617558665,-0.00912002408591359,-0.0383394440730797,-0.00146680359903423
-0.342123113065995,0.117999081825986,-0.112779259918068,-0.00186553367734806
-0.292669804523024,0.250722963228719,-0.147949464666394,-0.0016364704728471
-0.14433255521269,0.316413348039751,-0.140342897569033,-0.00163566886135371
0.0584858519027623,0.25963465796014,-0.0866176280745302,-0.00262774715618323
0.268633652276816,0.137811514373695,-0.00979186596230919,-0.00385742946743674
0.36712085635484,0.0615157385529736,0.0474344446219732,-0.00370338030437478
0.290345984808576,0.0119774266620764,0.0716608528717184,-0.00195584419043145
0.147295045699384,-0.0526186457923308,0.0659478084944715,7.87607558278332e-05
0.0502403002809024,-0.098062844589805,0.0420426078941543,0.00175817519616371
-0.0174828197924588,-0.114060024834493,0.0192909554973073,0.00371242276011893
-0.0698147257202253,-0.108789029536195,-0.00283612365368474,0.00582784730440284
-0.0849780810835138,-0.0871623323822456,-0.0293546922523761,0.00675580440159109
-0.0919771704109661,-0.0744745265886569,-0.0452839647700088,0.00565694571356041
-0.13207184093473,-0.0432598510927656,-0.0458067783774294,0.00312161086945317
-0.191847644861858,0.0545143000789012,-0.0477489103465906,0.000252859179425778
-0.177619929060306,0.15104069682979,-0.0519995371670832,-0.00225369236964922
-0.0327237517926568,0.159984585830758,-0.0423093817462078,-0.00352052839795503
0.0824273372845235,0.0969174127587343,-0.0209270101756037,-0.00270438517615275
0.0232680273767706,0.0179191266087751,-1.95146301041962e-05,-6.165484708286e-05
-0.0829224244518371,-0.0312140559758717,0.00768880705914923,0.00327145706776727
-0.114100659937123,-0.047784169736781,0.00103724854466994,0.00577953447151523
-0.126830518924404,-0.0648077714937888,0.00168136993933281,0.00579331695786306
-0.149854429855904,-0.0764582519398304,0.00114928023507291,0.00268424589560534
-0.10518970465855,-0.0554511942931275,-0.0190673953265902,-0.00219405216243411
0.00215881520131037,-0.0141500530555335,-0.0406126678907857,-0.0068650747061637
0.0702308006186097,0.00307089239256807,-0.0416765841265196,-0.0102634550099771
0.0692789688855732,-0.0123457831666256,-0.0190495359767066,-0.0118298607994742
0.0168242548401618,0.00437253071180146,0.0119655602959634,-0.0106884729376262
-0.0378204306841563,0.0527190267142256,0.0354446170534074,-0.00672094263092174
-0.0565632852698478,0.0519929150742625,0.0450316590818564,-0.00203375893396355
-0.0669652164487695,0.012283439049041,0.0308085985321701,0.000826674263566451
-0.0705231967831528,-0.00684633259605882,-0.00359423229944657,0.00160562736494538
-0.0516203611828441,-0.00961442263811385,-0.02157404171354,0.00196355203530603
-0.0118122461792383,-0.0217741774580593,0.00724334071271539,0.00313963953855585
0.0756060865864949,-0.0403860561542505,0.0571671034257222,0.00462260418654644
0.219343833432001,-0.0463783273964042,0.0831734286536385,0.00535992033749049
0.348946994744604,-0.0421303663523597,0.0828733250103137,0.00548169979515802
0.370311237449561,-0.0604267415362654,0.0688529764796608,0.00569995374302645
0.262648052814126,-0.0913486163378969,0.0476823587766439,0.00602746756648593
0.0968917258242351,-0.0709947678308592,0.0360100159373967,0.00555137246491198
-0.0672870169273205,0.0016874022845878,0.0417660029694219,0.00336262630299931
-0.212951466828339,0.0352525012271012,0.048169898045994,0.00049738729633895
-0.302299205704614,-0.0131149326245596,0.0226866267616394,-0.00126100245930614
-0.332778775356429,-0.00309028612210833,-0.0526678326075398,-0.00336856129265154
-0.345311718692893,0.164215163547275,-0.141087795726517,-0.00876841971887907
-0.28435446669821,0.268098617251647,-0.153703764767372,-0.0158988198328509
-0.0983119343693124,0.128056864127093,-0.0603077087849171,-0.0188336018183319
0.0936690046009991,-0.108839664856365,0.0724892967885641,-0.0141621386126052
0.224160808983554,-0.240513846772758,0.1645539604125,-0.00444222135920437
0.332572463227414,-0.218955183191234,0.159443632865224,0.005095413742114
0.363784585232424,-0.145216765540122,0.0858119381621154,0.0103013622711788
0.301556774889013,-0.115063534440963,0.0365388684084319,0.0107429662349684
0.213625032802928,-0.125042248498088,0.0341194536711477,0.010074433348131
0.118220149070982,-0.141784489245147,0.0324548414952148,0.0110914813683659
0.0161162115926806,-0.119844923256143,0.0151248358696211,0.0120850652325884
-0.0912700130882746,-0.0380596960508539,-0.0056384994843077,0.010775947008169
-0.156474562258962,0.093128622655584,-0.0309070698816017,0.00702604646784282
-0.11797952942646,0.212725670486825,-0.0512434417007442,0.000701938467267403
-0.0282428949568886,0.169706122624355,-0.0465042908569629,-0.00755431573749892
0.0345454989235161,-0.0069907703009694,-0.0172259749361272,-0.0145190323223303
0.0758631278598454,-0.117310352728907,0.0126204398348039,-0.0167599567427521
0.121893035209596,-0.0935283906724145,0.0164836346092294,-0.0138738751522871
0.162938488593375,0.018070385868633,-0.00355188224606862,-0.0084606701137624
0.183824656367197,0.0937690140483732,-0.0162528066027144,-0.00333654901776963
0.175860452517267,0.0537056708283467,-0.00520081928461161,0.000485453698012369
0.10764569060606,-0.015879420567343,0.0105878634289603,0.00319411422897645
-0.0110349725640941,-0.0346242678095475,0.0144470934500782,0.00555891084235047
-0.123608715295282,-0.0276434070050408,0.0135412614390692,0.00830851761229824
-0.199841994990973,-0.0161487551323584,0.0128784653283492,0.0107310620345399
-0.236586294833157,0.0419573023262866,0.000578791659360416,0.0110014384476396
-0.245392315657592,0.145563161594702,-0.0271197644631972,0.00742516810660107
-0.198400208104838,0.180182081218107,-0.043334173662904,-4.67252807186385e-05
-0.0921366039147367,0.111742528447131,-0.0291476568134912,-0.00889038058689572
-0.0180501184238411,0.0460072352865572,-0.00803808358127476,-0.0157799071135011
0.00419345341011357,0.00542042206256182,-0.0024626272077641,-0.0180031546372726
0.049834082875368,-0.0732057018743743,-0.00520673584482208,-0.0144419122987125
0.121879236939466,-0.162912896521624,-0.00439705893760646,-0.00729003082708267
0.162516603107346,-0.146767058470552,-0.00531441390360093,-0.000315611748615822
0.149710278330983,-0.0363814782003817,-0.0152643497312077,0.00430067995267329
0.0613343062265233,0.0655457899694435,-0.0364413942686526,0.00632846503177524
-0.084471129446921,0.134616957825698,-0.066116922718333,0.00650178224015862
-0.15230019709361,0.122281614843682,-0.0843090598215916,0.00558828844517199
-0.096273253602944,0.0309106559567811,-0.0876927619920454,0.00432421221098367
-0.0377667672577121,-0.0226643352464638,-0.0773676333745221,0.00346236181401031
-0.0307339032619104,-0.0158314349841563,-0.0392248369565769,0.00287315184523065
-0.0564406286252136,-0.0460681788218163,0.00925997549460761,0.00135391379687073
-0.106439498008245,-0.145511610986137,0.0448782911184418,-0.00189199611229699
-0.108455881567764,-0.216517301644098,0.0657557849059647,-0.00529898061634428
-0.0099132450076711,-0.16801415417714,0.0728140233762858,-0.00547637998753889
0.124728199244766,-0.0467289286816073,0.0702799480386577,-0.00171401323655183
0.220057320429317,0.0753431774936831,0.0624894604820146,0.00219646082807257
0.231728026716937,0.173980044831719,0.063400026560475,0.00312934919750998
0.143682733116571,0.159357501821097,0.0849973635064577,0.00268237028048848
0.0139211468705676,0.0223446023365211,0.104745056416728,0.00399375968887867
-0.0768015675272074,-0.089278707786905,0.0912533543803822,0.00674920635858837
-0.0949180928050384,-0.106884084269007,0.0492798753577293,0.00800120402494811
-0.0447696438399538,-0.076667552173062,0.0026336410526889,0.00629095131162097
0.0148286707372208,-0.0161784209159317,-0.0437739675029548,0.00275253093787619
-0.0187509379695155,0.0773922191854681,-0.106592138383291,-0.000119857802501792
-0.103859863249355,0.164880631052467,-0.170662142961535,-0.00074090183180757
-0.0634343168039583,0.206963210599171,-0.172582976205032,-0.000116587678991105
0.0689384957813664,0.19607800104557,-0.108989488542737,0.000579021267136762
0.0947293725377781,0.138209611317983,-0.0244688827478239,0.00207377799498663
-0.00928840735749406,0.0448238765094821,0.0634175890425356,0.00495069919747775
-0.152671821763754,-0.0608678250771765,0.112507184714776,0.00817726870161432
-0.233083284188518,-0.131356946705854,0.095513357558165,0.00942873599085068
-0.136809242187077,-0.0677478728833814,0.0432411126321047,0.00605372115846117
0.0801126148943876,0.0989214474959491,-0.00530592522325261,-0.00283431516456314
0.225975024753404,0.154723096105917,-0.0138668530481317,-0.0135926240384423
0.229226717680051,0.0543746480959544,0.021213745266881,-0.0188390319318743
0.157712831200429,-0.0638795963509306,0.0697967941996396,-0.0147577242468283
0.0859206847584949,-0.1161374136338,0.108394230076081,-0.00541525227101407
0.045716683171606,-0.0998436215917635,0.117357025804097,0.00291461426799152
0.00707971389925562,-0.0571769107347252,0.0984704633307096,0.00782296741710273
-0.0666049460100914,-0.0130599906807681,0.0690115650719235,0.0102090140296951
-0.129378075177669,0.0304313369820791,0.0440586031813626,0.0114388129036046
-0.134493555889056,0.0633265557503327,0.0191400617817597,0.0120964388597361
-0.107966155675687,0.0832412165914136,-0.0287264695984861,0.0114323315851689
-0.0638115087758571,0.0834142902311042,-0.0838704705637618,0.00818869067226214
0.0324596962514053,0.0492457916699069,-0.100251551284154,0.00325360372973139
0.174105781245004,-0.0132971726598895,-0.0576231001242551,-0.000725139121624509
0.231230915076398,-0.0509583563513734,0.00426241043909097,-0.00245905746240891
0.106613348310009,-0.000300156925486988,0.0209264883918125,-0.00203800668491691
-0.0929789971353307,0.10361354966624,-0.00975058086386889,-0.000213308923029847
-0.200088747364451,0.170871602194959,-0.0316401781788413,0.000777011920995175
-0.166106418115118,0.183833530642449,-0.023896281718617,-0.00122892948846157
-0.0837626258866329,0.152899514432561,-0.0116610612467472,-0.0057899750242042
-0.0590600541599326,0.102066324320429,-0.0114743102036257,-0.0100329678401831
-0.0846002191353506,0.0818599012606009,-0.0223488530032428,-0.0116320344443873
-0.10322496952196,0.0876859098169707,-0.0303340942607539,-0.010898586393292
-0.0985583476667233,0.0801816293140925,-0.0291885628401053,-0.00875065055716389
-0.0425118668579338,0.0337171547926271,-0.0285053297844683,-0.00508160803112866
0.0890467518542975,-0.0458239948071371,-0.00444749227590338,-0.000506224318765451
0.229219798565602,-0.116876211712144,0.0630617651273878,0.00317607619594065
0.264054224564816,-0.150116365942965,0.121690800194592,0.0046014822502229
0.127836438348678,-0.136792332618452,0.125556180734024,0.0034445457872051
-0.103197973415036,-0.093043177021823,0.0876553681901632,0.000488863752478209
-0.278887990701215,-0.0674548307304587,0.0351796542537045,-0.00284518277011872
-0.355279082855856,-0.0792744864497634,-0.0116123060650251,-0.0051483890275813
-0.382504082408911,-0.0816129045771891,-0.0568145717510943,-0.00489486398548349
-0.337727557023115,-0.0142681569077836,-0.112739125317802,-0.00266375616191258
-0.158884636060031,0.0761432329274361,-0.141929797283014,-0.00203604772533918
0.0700915393848975,0.0820106085875559,-0.112090910310101,-0.00371083202265741
0.242449586648036,0.0109636828186075,-0.0594184343521373,-0.00371777025880837
0.330730179422075,-0.0696070551927965,-0.0148219206863467,0.000371783676768404
0.306532871311859,-0.103252767895991,-0.00584847095837961,0.0063598098727854
0.208441003672551,-0.0751949615188742,-0.0582164461241517,0.00929337183126379
0.132055715412669,-0.00973162634136537,-0.100074984658217,0.00643846040395814
0.109008917921573,0.0960083447237997,-0.0667738177864978,0.00114841840391001
0.0723431186465632,0.203076339141012,-0.0287917320443156,-0.00139302932684324
-0.0114943831594103,0.216723783820742,-0.0256580102396654,-0.000955320438004011
-0.0499742908935341,0.0949153699338078,0.0074306538292606,-0.0007222754244302
-0.000392977793396615,-0.0659842549178424,0.066746295155657,-0.00142724569341144
0.0429304263471931,-0.138953034238851,0.0848992407463909,-0.00138556429830028
-0.000688468766424893,-0.137945171352673,0.0606994689508693,-9.94937781990837e-05
-0.0850151503059588,-0.128993036924263,0.0361500967384501,0.000973166045959037
-0.120229596023635,-0.106297052021228,0.0159788939149709,0.000361443331140499
-0.126800633493596,-0.0820076855091459,-0.0195415331191659,-0.00177373369829794
-0.133323151693614,-0.0848914492142571,-0.0544694716494734,-0.00419005653045507
-0.0932536522736565,-0.0788243723086292,-0.0467401082679901,-0.00634145377835155
-0.0356930824170468,-0.0700189425142936,0.0161385896665722,-0.00739829700186538
0.000200185202854752,-0.0867310078620476,0.0730849969666541,-0.00503678903373221
0.0537047717471333,-0.0851814298297711,0.0506906248777767,0.000889103585649507
0.114805704884013,-0.0501228525568285,-0.0179677538009531,0.00653420289491033
0.163319433092671,0.00495200378394406,-0.0570499893795043,0.0084389604486174
0.225966254657328,0.0613869740439652,-0.0559344422025702,0.0067149910664235
0.268681379313025,0.0615792851269131,-0.0418772715796919,0.00389319719403266
0.230302233141749,0.0283305075747789,-0.0434765968873665,0.00231396502355463
0.148354547550743,0.0312320800291308,-0.0572875772870325,0.001867613448728
0.0831236152251771,0.0145407917562717,-0.0445237856712076,0.000940685161142335
0.0192258851323366,-0.0894978833020281,-0.00271013187182223,-7.04082305399616e-05
-0.049597119843737,-0.174725139435114,0.027822369361071,0.00114404278154522
-0.0811805861322373,-0.094390434753467,0.0265925278226622,0.00465104026940548
-0.0766046213139228,0.0425726673310907,0.0225261250911703,0.00680634594718309
-0.0371732129622445,-0.00894736168246413,0.048316520285208,0.00497816887390822
0.118884930545763,-0.155814725469019,0.0665663027488902,0.00187776223151919
0.323023916578109,-0.123382957994476,0.0390888793848976,0.00150214527600445
0.376798101515807,0.00221029965888261,0.011764268948962,0.0035498683927867
0.299324884255445,0.00833061678465792,0.0340708853306292,0.0053336223354335
0.242348958739614,-0.0799359419450202,0.0785509258013503,0.00564513371212179
0.203193487149884,-0.175271918319684,0.094629166674722,0.00488213753932183
0.0483849875349574,-0.159397101500837,0.0544592517948772,0.00328382294529993
-0.228018339155162,0.0364344978050073,-0.0525603791454992,-0.000340482596311895
-0.480187416193461,0.253424956739152,-0.17833841603086,-0.00779381835393363
-0.556984491389271,0.340858515566615,-0.241394607668743,-0.0193702107562035
-0.399897055351609,0.247896711887487,-0.194095887288962,-0.031673625712571
-0.170345181889322,0.00599557047125227,-0.0576027820513409,-0.0366218569762721
-0.0715049761065729,-0.170213672754334,0.0684364280202029,-0.0274840431587253
-0.0367400968617958,-0.153742970691815,0.114099248018883,-0.00752724253254026
0.0803854552119581,-0.080635064935662,0.100628084899008,0.0124996921543001
0.224335633232132,-0.0696146563896962,0.0614364765291484,0.0244708870214447
0.313479775724181,-0.0663801836164389,0.0110213693107543,0.0270007349109627
0.335115397654059,-0.0433775201946735,-0.0253123935616316,0.0221439350292455
0.272018289725688,-0.0548993321456306,-0.0243589375136502,0.0133595094962749
0.163332884992975,-0.0935675918416698,0.0068109281313978,0.00512579227468574
0.0680985252018824,-0.118492234989794,0.0313680764511286,0.000207582881226994
-0.0124396299203491,-0.097792232974341,0.0150382378440946,-0.00144120204442988
-0.0881116391766924,-0.0385491584788248,-0.0352185071393117,-0.00111514743717298
-0.127287978196367,0.0118252773961177,-0.0793620461751625,-0.000658771203500357
-0.103715392830604,0.0793898096857468,-0.0875743461407272,-0.00239043652864375
-0.0358052083272224,0.164229768675638,-0.0599640986205582,-0.00713612474994007
0.0127153435134244,0.177246043765032,-0.00777482132433866,-0.0122634846785038
-0.0211232880414272,0.115957366425273,0.0356898451888503,-0.014144721473824
-0.114839653726906,0.0501501676776466,0.0274507321276253,-0.0117404155779035
-0.220195668693847,-0.00420696997608608,-0.0260564964328366,-0.00633421211309977
-0.277825663274741,-0.0885963196918129,-0.0737554471585235,-0.00054837063382261
-0.210432983607894,-0.170928743409471,-0.0907991526139126,0.00241256278059944
-0.0945378005797675,-0.149159163120765,-0.102688659407458,0.00097766155994758
-0.0761779759954694,-0.0615576513136632,-0.107397282506844,-0.00343285921606582
-0.114686947892849,-0.0258095775611087,-0.0794176422007206,-0.00776984416489968
-0.0625008814117887,-0.0390961443546343,-0.0488202440861185,-0.0096390521901305
0.133392114504031,-0.0663420503895253,-0.0371224403388806,-0.00836226628532167
0.323978775771415,-0.064921892047799,-0.0118837631767476,-0.0051642105982088
0.328483455998866,-0.0138144760681616,0.0383641851577772,-0.00166295226179722
0.232074482704625,-0.0181952477702056,0.0929272221417901,0.00258217731299834
0.229446024318803,-0.128044085906725,0.141889213420624,0.00846563672810991
0.336255010497757,-0.228326565849917,0.178689895171153,0.0143958478651091
0.410483522470699,-0.195102019194154,0.178689800013713,0.0184861721852192
0.367230811093372,-0.0715141673652257,0.134899957744984,0.020901230869829
0.215444486824234,0.00414852505575536,0.0778802407274006,0.0216508435130981
-0.0677755050881135,-0.0248221684976972,0.0270972987146048,0.0190665615617467
-0.477277824644705,-0.147413050125277,-0.0101343001325247,0.0120306320043132
-0.845103508014014,-0.263175791561459,-0.0325251786797177,0.00185979947395403
-0.935033003857887,-0.175183656902087,-0.0649447752561484,-0.00877710565440858
-0.738069318412514,0.148617944664524,-0.0905573005173081,-0.0180774710501152
-0.412880915524935,0.381804626692945,-0.0608860861144269,-0.0246899318248669
-0.0512375903262401,0.316211726082532,0.0136334000945825,-0.0258218107344159
0.315125850521299,0.181458301858575,0.0922786108622859,-0.0194836393872434
0.641684096106372,0.10932729908329,0.142075730998041,-0.00735538459714294
0.79839974327345,0.00443893585971256,0.148314669468373,0.00635656741541813
0.66670679344796,-0.090234310404408,0.123886796516481,0.0176023603525716
0.381789507431984,-0.0821560508025398,0.0862638552279658,0.023947189976327
0.19374143370409,-0.0204566925382872,0.0336566154673574,0.023836407613975
0.122199801508037,0.0365843595105163,-0.0465194598820783,0.0177411846947495
0.0153350356020039,0.0682380728485326,-0.130981608698651,0.0100946283785819
-0.186962178130595,0.0292271768139722,-0.162424168729701,0.00478116608292101
-0.35157073780829,-0.0818222486333259,-0.115035797369478,0.000392716798070687
-0.361893965182387,-0.178657168525789,-0.0225995742020098,-0.00569621569316243
-0.255380008555562,-0.185421110627732,0.0591072016475024,-0.0117865068108339
-0.11285186672979,-0.117891368583981,0.0830699747043619,-0.0145961207609838
-0.0144053199263965,-0.0472510141113971,0.050355120897013,-0.0138826387162216
-0.00115694072814476,-0.0334256049369496,0.00954921271872103,-0.0104381524936896
-0.0463076494610815,-0.0387097922015411,-0.0215811039059715,-0.00482932347865131
-0.0950359423112929,0.0497973995459208,-0.0482930689108571,0.000763655328499369
-0.118499800368422,0.20537418546618,-0.0460325393025273,0.00403301580823772
-0.102390513943165,0.239203312691217,0.00334775272494367,0.00484723463601462
-0.0432763813617434,0.150502551706693,0.0638859702691754,0.00418715900039192
0.0239544327788431,0.152396708986593,0.077431834894696,0.00208656305362315
0.0508227469070023,0.234151245394559,0.0318579809875721,-0.00168882957600692
-0.00368255579828413,0.185767570421577,-0.0189941052217951,-0.00654502584316521
-0.119499366194876,0.0408907143578792,-0.029465475118877,-0.0107201197711881
-0.169365465525305,-0.00742254431514668,-0.0304343131060263,-0.0110904644448812
-0.0733082106353183,0.0141602112099689,-0.0524140481384087,-0.00651273520142094
0.0292478237369511,-0.0190608678517021,-0.0670400687922223,-0.000670114369454074
0.0111699263778776,-0.0757169218779314,-0.0653205985541735,0.00247411640178632
-0.0364751891838251,-0.0949787350551025,-0.0681787155061055,0.00354226450609585
-0.0501302636465211,-0.0787107110015777,-0.0750420636121638,0.00486424263005998
-0.0970564585864662,-0.0183551572592311,-0.0893800424506806,0.00657380681655537
-0.18619107237898,0.0617766699951546,-0.112240759697852,0.0072489864809315
-0.230995625831266,0.10573375550725,-0.105044128126408,0.00536296580551288
-0.159454582617,0.0723643822397768,-0.053648454611936,0.000726411961699676
-0.0173993155212763,-0.0338003407059246,0.00330004173275747,-0.00479857617391751
0.0749754665756947,-0.0937544695567187,0.0305641838540715,-0.00920490813296331
0.138752853556071,-0.06694077709336,0.0193541399115288,-0.0111068786578615
0.259603627221402,-0.0716128089730488,0.00388807020745635,-0.00936973974579462
0.355717453296576,-0.119884393446277,0.0197823285600447,-0.0040825913715994
0.289152000901581,-0.0755992124475107,0.0298075506099419,0.0028725180754235
0.111068339613658,0.129754142258629,0.0130471426903026,0.0075684372758956
-0.0258449593747386,0.294401803846366,0.0109051601347153,0.00730281160977698
-0.154437955016439,0.188479142299677,0.017109503559394,0.00442556762060521
-0.391029247973054,-0.0510420942834752,0.0176553684231801,0.0026929464674835
-0.6514399239059,-0.178272044023284,0.0389695798759525,0.00305082151301986
-0.637176799732511,-0.133759101572452,0.0744038849033533,0.00457726384905587
-0.290246921037177,-0.0255131718689216,0.122616060402132,0.00629845942679373
0.0663683585356977,-0.0397263717733555,0.177719987757462,0.00851463286219498
0.229281968550081,-0.145017224008135,0.164439534881718,0.012006433036121
0.263353709052851,-0.1801873545069,0.0711919835340962,0.0146987137785715
0.324079630562872,-0.111177000598804,-0.0227585906308503,0.012728714101873
0.401567196964685,0.0445676747819989,-0.0933898877501016,0.00474421069897015
0.305590470682238,0.170203453643364,-0.150951582804051,-0.00739443119244384
0.0502946711804211,0.1443985265458,-0.165493478877519,-0.0196877270930663
-0.125681100203391,0.0890605474333112,-0.122791829662658,-0.0272999498820608
-0.0999117763615654,0.141787610687954,-0.0698092864869909,-0.0263354702819308
0.0185122266137346,0.207140561020301,-0.0626976376832273,-0.0165458135626914
0.0199414856762269,0.175886829948227,-0.0877675916397713,-0.00312446069743755
-0.115094940335774,0.092192722678015,-0.0775409596531196,0.00849165969274196
-0.201831218734497,0.0364355767008505,-0.020516898714258,0.0176110874176848
-0.156407024010772,0.0100250017819521,0.0354365031889834,0.0242335322695262
-0.0540110047920172,-0.0395404409053221,0.0822380736599954,0.0266893826970157
0.017614205577457,-0.0939041342871345,0.13242464618623,0.0250084593788896
0.0484947084712425,-0.0909102453075781,0.166729936794268,0.0209264254326477
0.0800947651135245,-0.0673278344815001,0.183720332402975,0.0152494027283076
0.133229868248137,-0.0666025708454418,0.18716772571482,0.00761394273340631
0.180443622057912,-0.056821257970954,0.150604533734354,-0.00210863136523832
0.182616939042058,-0.043556890874688,0.0808761975029216,-0.0126467488122816
0.14393077201087,-0.0430071015652981,0.0169432848706444,-0.0216143389761166
0.0992729142048958,0.0130118598344925,-0.0292559171724868,-0.0268106409280099
-0.00209083490538745,0.105677010752303,-0.0521072193914868,-0.0272454450429482
-0.16503757111132,0.084631095845963,-0.0443361976050533,-0.023065247120632
-0.208796344880881,-0.0222252673670895,-0.024850971559048,-0.0146745639270838
-0.102244148969345,-0.0649981002369073,-0.0175474112676395,-0.00330663705002956
-0.0218499211637083,-0.0315765446892915,-0.0353442517497877,0.00819606990910475
-0.00958236810498828,0.0255395067490944,-0.0624185323137433,0.0159345580065497
0.0104792454908902,0.0540839548781717,-0.044973363599523,0.017015682192799
0.0323849893352651,0.00351622648252536,0.0270013294126221,0.0125285403053034
0.0400305863872146,-0.0653311734792475,0.072173227005857,0.00670618560058238
0.0508113426225439,-0.0525772023492198,0.035132710419203,0.00272629850903573
0.0311219444089936,0.0299486499066416,-0.0418763703259607,0.000440249691438532
-0.0953617872490134,0.136773369123813,-0.117650644308534,-0.00203956199677485
-0.29112290676259,0.256871967868175,-0.17698084088126,-0.00598980138135174
-0.327381723395828,0.352091443343131,-0.190314055374123,-0.0113694513616523
-0.144853792439795,0.306328811052383,-0.148531858162357,-0.0166560974518832
0.0586865308157604,0.118747030796925,-0.0883292861967618,-0.0194801795527023
0.172510722252969,-0.0498367225356872,-0.0485291107084641,-0.0178164419262735
0.191602882287964,-0.154964319227013,0.00423686968340795,-0.0116585207876524
0.174323351386478,-0.219715192132201,0.111113575058925,-0.00290046222427861
0.208681847731068,-0.220048573078921,0.207719779946411,0.00668701573619897
0.254105367506235,-0.184337270515947,0.225179458719477,0.0149972250096297
0.211670398930675,-0.152364598773632,0.184251349775364,0.0187855216907012
0.10757640387142,-0.119599291938714,0.135014816708888,0.0162292595877111
0.0417346963915604,-0.0883293022547626,0.0936965088994242,0.00978000744805
0.0282558158442414,-0.0514489542647194,0.053450939936967,0.00437216536141448
-0.000327609715204014,-0.0209015545146529,0.0156647160234102,0.002935880284006
-0.107054112024099,-0.0458574611610147,-0.021823764511089,0.00420006978005818
-0.243430439210084,-0.115192168602694,-0.052050363503026,0.0037641407851701
-0.275227631971281,-0.149724553436516,-0.0446309329016404,-0.000759079616004833
-0.17371733232648,-0.0670216157239476,-0.00596826708467173,-0.00554784851680802
-0.0172263025524707,0.0891728660983093,0.00445420393572378,-0.00568021873025392
0.129015766677711,0.169189556827035,-0.0320984271447479,-0.00257597427592514
0.191718847701528,0.155395178071914,-0.0646967357577683,-0.00166596459610462
0.0931343513255616,0.133752441586282,-0.057099463057476,-0.0039932635887857
-0.103735786277809,0.116138184445386,-0.0527444316546869,-0.00535194025179391
-0.262055716776535,0.0646955586750038,-0.0782594477301919,-0.00316159784901125
-0.360794566835651,0.0149941428918462,-0.0979008425951021,0.00106780655837293
-0.399622083388657,0.0553871796357308,-0.0982125358352822,0.00361471660498616
-0.330013643808856,0.14142542420066,-0.0598564130993014,0.00152252027484778
-0.108157591955704,0.107149776430035,0.0207603218325257,-0.00338591000944878
0.27455701772896,-0.0529902606836065,0.0813876325300625,-0.00600239005646075
0.571315562264921,-0.148327562167741,0.0715734506827256,-0.00420073136835985
0.464392791942431,-0.136443290285505,0.0210388389609663,-0.000355837291078239
0.14229625245017,-0.156989780994573,0.0065346715511185,0.00293481667698571
0.0220161780309186,-0.227451476356027,0.0515424710587012,0.0055403092921972
0.0829735781145317,-0.25611618463634,0.106574660011053,0.00821285633592186
0.0127078379530264,-0.2028269044001,0.114551451437795,0.010920596388934
-0.19933074663806,-0.0286188397342365,0.041979268707444,0.0126038679675237
-0.267224957697321,0.218823521112535,-0.0694670026938279,0.0101293762983165
-0.15386315535953,0.323442200095442,-0.12123230135964,0.00131737874995467
-0.10825778626258,0.239691665719,-0.101730355763565,-0.0090343103596845
-0.265409796113984,0.145947963822617,-0.0757752964223784,-0.013655545786441
-0.411655995651783,0.0865401894557242,-0.0603037221508849,-0.0123232484540004
-0.209508902686834,-0.0179071040416434,-0.0194449071790648,-0.0100335943627701
0.204010617153756,-0.169368845114126,0.0580364074681682,-0.0085723826500841
0.366922521413067,-0.281495973833627,0.130259562262264,-0.00550642767457388
0.251529345402309,-0.289564276861174,0.163987486056098,5.39003680737771e-05
0.1835424425183,-0.229830666846267,0.171789861487092,0.00581075485743975
0.194934335869368,-0.194985305527785,0.156777202260884,0.00948615441538882
0.0798260145297326,-0.189752149171685,0.105791592229249,0.00980494859238653
-0.127317310441018,-0.131804242007646,0.0371349112123607,0.00586627087346584
-0.203075226155527,-0.0648727371964578,0.00133172446126553,-0.000884227479822693
-0.111183237899526,-0.0575866202781815,0.00843823729253711,-0.00550331453313059
-0.0431842607494226,-0.0482699128176955,-0.0171806531823798,-0.00459201503434961
-0.119023053926068,0.0806993675004967,-0.12442436202149,-0.00188211125967008
-0.2528859210451,0.359679236902405,-0.239632123371125,-0.00406522852029874
-0.29440150214985,0.520931514562649,-0.243078545135849,-0.0111724265606285
-0.208201797406448,0.342655483667065,-0.118611141606073,-0.0158157366072731
