0.0374918166291252,-0.010779008462612,-0.0109161091484279,5.3560588601767e-05
0.0387705440752406,-0.00274627564608941,-0.0183000092671785,-0.00143635519138247
0.0286667931707633,0.0162316500486401,-0.0147761144052088,-0.00338563712686825
0.0221842505542419,0.0348043186503519,-0.00294414030465474,-0.00429980831673031
0.0251601148843504,0.0362923595587936,0.00234456070645039,-0.00367182462861252
0.0244575199241781,0.0259212643050761,0.000218024880823172,-0.0025869578333392
0.0113811046108389,0.0109150333664656,3.85652600850168e-05,-0.0018259418115795
-0.00546831129528683,-0.00358804669956767,0.00217634422464991,-0.00104183195680163
-0.017543608408527,-0.0164393500601074,0.00153770230987881,0.000364587229202709
-0.0205829149846791,-0.0370671850909101,-0.00270099105727872,0.00223377566719173
-0.0180548674765481,-0.058834547043907,-0.00651488399886372,0.0034826367698066
-0.020192264889289,-0.0668662983642346,-0.0117212633401076,0.00299929987038193
-0.0243386182349167,-0.0578801008878647,-0.0174523885949198,0.000599104485767122
-0.0228373549663474,-0.0336700388932516,-0.0118596934792042,-0.00211266865889736
-0.0180238902965218,-0.0106538773078442,-7.32142489354576e-05,-0.00278093017133751
-0.0105532223364555,-0.000471000417120171,0.00245729236090499,-0.00155509553880632
0.00318061391154315,0.00440324283397804,-0.00545456843030128,-0.000462741594281223
0.0180627526658947,0.0034044996989146,-0.0142504618136743,-1.40852443628776e-05
0.0252504306256151,-0.005463159603415,-0.0134602007248945,0.000678133703960398
0.0267987359673188,-0.0139108929035948,-0.00503923374884544,0.00199050284760408
0.0264339100976977,-0.0200321962739089,0.000980016071536503,0.00303110705286785
0.0241457853764686,-0.0282508236331147,-5.03487934016937e-05,0.00271222542665247
0.0275703820638865,-0.0348871672898532,-0.00637314136917248,0.00123915024786205
0.0389645317890724,-0.0349055737015,-0.0122416405755722,-0.000254755889430506
0.045315099945401,-0.0335339921775815,-0.0146682610995526,-0.000853834280498774
0.0387230135365888,-0.033046776300514,-0.0167643641513726,-0.000702601114462041
0.0237985624183856,-0.0252176851604025,-0.0172396193812265,-0.000659240102378366
0.00363886073773328,-0.00617702637186035,-0.01096599868613,-0.000876460632796928
-0.0175259732636539,0.0122092950061194,-0.00369562913129196,-0.000782176694954311
-0.0309485567100261,0.0131324085977442,-0.00436774274322325,-0.000324368891421365
-0.0340536495275772,-0.00412820570113163,-0.00919827235924334,-0.000153754882381662
-0.0266611339745906,-0.0255130543606143,-0.0107083415209828,-0.000329530777667599
-0.0152483811542546,-0.0324193442734827,-0.00738595924235619,-4.30189096464028e-05
-0.0171990438308274,-0.0184687540297618,-0.00184055926106001,0.000888184939562453
-0.0335729237325104,9.10294268671383e-06,0.00267369929592869,0.00148627712492074
-0.0412273896889121,0.00816734992276176,0.00559249467081702,0.0011864845537593
-0.02819801085214,0.00746159093257526,0.00623705678631695,0.000780334580102828
-0.0061314738978856,0.00157828717224067,0.00188433168105688,0.000968595595964793
0.013808183058223,-0.0119543245209666,-0.00993842552072855,0.0010534243240272
0.0268879135437018,-0.0204593476363749,-0.0213369467852303,-4.61210831887654e-05
0.0270226158251696,-0.00587933474987307,-0.0191575139045273,-0.00186379945510035
0.0153034694319697,0.0128095693021922,-0.00679512254107831,-0.00236916420663361
0.00148494383894316,0.0106323745175302,0.00169333762555732,-0.000435351463023635
-0.00711965481811031,-0.00415377513648268,0.00108705491649137,0.00246107878061655
-0.00883915126356082,-0.0145290827654243,-0.00223055359559385,0.0039580193625793
-0.00570943303399135,-0.0125257075256337,-0.00106997343370173,0.00324521206383629
-0.000747656331251354,-0.00359423690735396,0.00209551422661487,0.00124250054666697
0.00435690723362948,0.000166527755046126,0.00349811298754431,-0.000659044887036185
0.00875952598133831,-0.00383374378153015,0.00441450075623828,-0.00165813449569026
0.0113043087041228,-0.011187706696267,0.00474301700483881,-0.00177403779877703
0.010376652107767,-0.0165439342551691,0.0034899670628325,-0.00145946474657583
0.00398564084873684,-0.0175568741902082,0.00200359335411809,-0.00105972611206239
-0.00580455492359812,-0.0152773703900404,0.000994457824540139,-0.000706918595638623
-0.0120064585895752,-0.00883267380723753,-0.00153309998953563,-0.000598051271048808
-0.0110127675659198,-0.000170050257904206,-0.00373393291324371,-0.000840957889368378
-0.00508902141458464,0.00437964944652298,-0.00355038467080833,-0.00118175453497692
0.00203241904355301,0.00428907578002886,-0.00274798545225554,-0.0011722453877582
0.00635142722974799,0.00397290838876087,-0.000683281650026294,-0.000744002599351769
0.00634960615263377,0.00582269118290821,0.00238018697670016,-0.000126648675883583
0.00479374044486167,0.00764426464168989,0.00380921162921735,0.000787627758272951
0.00353446745152987,0.00545331422041435,0.00359628297443655,0.00197630032219839
0.00269312098481203,-0.000813131980148384,0.00329794871631986,0.00296274084486352
0.0031070543335578,-0.00584524877541976,0.0018651577238704,0.00329105793333135
0.00129267581483108,-0.00308991009478846,-0.000624778574123255,0.00282786421392152
-0.00692857666238356,0.00475637296649354,5.34600356589601e-05,0.00196657190452652
-0.0178504495156631,0.00760142163377057,0.00494942674114561,0.00123899548512122
-0.0258831315290879,0.00203391422441102,0.00978484398473264,0.000753701320789116
-0.030497785773482,-0.00745934476701089,0.0101018304836251,0.000234610360026556
-0.0309776802547745,-0.0157969833574845,0.00479301783011292,-0.000576870807737537
-0.0256299043480081,-0.0183955225545085,-0.000600038309451059,-0.00126335305131948
-0.0171148720465116,-0.01400138037774,0.00111649707556022,-0.00106585806592726
-0.00913923877354375,-0.00879513158291289,0.00423572911200205,-3.76286490200467e-05
-0.00258960043396452,-0.00529110437512611,0.000588984840519308,0.000556577199071347
0.00372921966067529,-0.00261960072377796,-0.00528664640634039,-0.000383839386611761
0.00719646177672285,-0.00164427634925425,-0.00689613081862704,-0.00233623510293506
0.00672322218613782,-0.00136952941369655,-0.00471943409556346,-0.00387380330720115
0.00786975213477785,-0.00265037993122834,-0.00233995687014719,-0.00389406049724054
0.0063285944305481,-0.000995996662517125,-0.000751328765854938,-0.00255482969948907
-0.00702573795975534,0.00771521087538732,0.000675841139501841,-0.000713408301060268
-0.0233559904749861,0.0205444434048923,0.00697550920901731,0.00143010117664394
-0.0294529431100024,0.0325416667846878,0.0166215181327862,0.0039219255977315
-0.0282426501863763,0.0339943331187453,0.0170178225256814,0.00622974036639785
-0.0242842637642968,0.023920650615347,0.00933351993878555,0.00706408031546662
-0.014587371436336,0.0112652368326723,0.00463215382846644,0.00562212578055824
-0.00293700518912973,-0.00519528247749594,0.00407779402853709,0.00310841934331895
0.00193455363926279,-0.0236830688030979,0.00345934738630826,0.0011377057071753
-0.00122859370822423,-0.0285730646630028,0.00326727625270323,-0.000254140377697757
-0.00716188189118542,-0.0206562771765684,0.00431005839522611,-0.00156041672326864
-0.00938808940000426,-0.0142963732534074,0.00387473594917113,-0.00273000607115106
-0.00548802558323507,-0.0108275333059034,0.00266997150316622,-0.00306389791922766
0.000768746127996094,-0.00562673682336964,0.00195626379407434,-0.00181863278960341
0.00329979664641308,0.00139668846846356,0.00129359235078996,0.000361718611513839
-0.00164059973208032,0.00731536816361931,0.000527918699478262,0.00184703984562811
-0.00863146275536945,0.0111881312544111,-0.000542322648698468,0.00174533176310387
-0.00600795168170442,0.0122070333707036,-0.00196023833582015,0.000408037457929045
0.00389741231819864,0.00447020593993726,-0.0028515198651019,-0.0015387366441852
0.00535702978524179,-0.0111848184526186,-0.00259620444648302,-0.00392612756556276
-0.00480012990478182,-0.0197224182262367,-0.00149565227814255,-0.00593813658506176
-0.0134811315542326,-0.0133922685664109,0.0029181286072331,-0.00577566351112073
-0.0145997416277304,-0.00413125519457722,0.00808861239731661,-0.00279941813958637
-0.0133520885256003,-0.00198688539553973,0.00847074504495847,0.00152527436042963
-0.0121181401748577,-0.00306489744331704,0.00688190671066772,0.00489976791041685
-0.0112091752989344,-0.00293278873174095,0.00741114984427047,0.00576308974215793
-0.010889014556084,-0.00146662955529138,0.0100561523634874,0.00407931116180695
-0.0091978306670835,0.00230058230286097,0.012377538957451,0.00132583370379304
-0.00391688778232915,0.00429717517025456,0.00915104502070303,-0.000660324280980327
0.00373807579792038,-0.000820681256474205,0.00233666505397963,-0.00159476322690975
0.011362904001895,-0.00650499022879484,0.00099170221685781,-0.00217214604196027
0.0193144610563836,-0.00869089809421156,0.00344748285405741,-0.00251873526958241
0.0225112320416504,-0.00704733191948011,0.00381722476225771,-0.00250244700608611
0.0169216195348905,0.000722196283621684,0.00335173358527435,-0.00209357865491967
0.0112015077445543,0.002946072213724,0.00254809316005044,-0.00147320945734216
0.00926260240924916,-0.00766822500774378,-0.000964217416631405,-0.00110610383299492
0.00458627865835341,-0.0165043198049401,-0.00571544716097623,-0.00109707258563667
-0.00476303489359332,-0.0109052078949928,-0.0058324183841878,-0.00106794532952734
-0.0132487136689512,0.00216483680643681,-0.00062958285138381,-0.000832613275154149
-0.0149161801981466,0.00614441120071391,0.00392064954276157,-0.000643074976681851
-0.0107345416381759,-0.00524934310732898,0.00545284353459387,-0.000850689958696021
-0.00742441768069418,-0.0182580567188863,0.00666145250060522,-0.00143206930800941
-0.00654692071168948,-0.0205746138829794,0.00764324938762957,-0.00209757089038652
-0.00354723544948556,-0.0223622906311468,0.00605470916863821,-0.00266116447242345
-0.00121554719539464,-0.0271083220580758,0.00335713103894331,-0.00236041684708483
-0.000991817390158063,-0.0231641117152797,0.00332622212039164,-0.000306056465382574
0.00214447832232124,-0.0100389702089868,0.0054964454473369,0.00290949875592118
0.00420083989731928,0.00748082312444166,0.00806267116074879,0.00511308246384533
0.00119516466192943,0.0238271262485997,0.00998786595379411,0.00415579016533184
-0.00279927514213876,0.0285897655064629,0.00869989782009594,0.000837837539710755
-0.00247095993759824,0.0214637588576985,0.00625282031408271,-0.00189918307989694
0.00303608919220528,0.0120936108381809,0.00581169754706293,-0.00311838780451
0.00623042789600872,0.00374204661756436,0.00462622894398561,-0.00391531439165903
0.00385896413934511,-0.00397747479075537,0.00220291756706137,-0.00478957505476683
0.00298920264022354,-0.00731724563081514,0.00200599175020666,-0.0050230139756671
0.00605481418143707,-0.00527279922940099,0.00390754852350408,-0.00401060670312567
0.00856785703275587,-0.00363152768164694,0.00475545942604747,-0.00226495619959207
0.0109872789064426,-0.0053091018015119,0.00358726545953065,-0.000705680124463374
0.0113779829421128,-0.00684619878749793,0.00274848379768232,0.000325366746112569
0.00536199038037438,-0.00511356062122959,0.00284210812994159,0.00120804109412828
-0.000803279660416175,-0.00105911911894325,0.00374308876632853,0.00235670979303699
-0.00225459249398229,0.00185878811668567,0.00762275574634474,0.00359863870413872
-0.00182238890175361,0.00448611312601607,0.0106578292082872,0.00436847947468542
-0.00338280128511747,0.00914261004157282,0.0100893652064628,0.0042069875860379
-0.0062095732735276,0.0147540254175551,0.00958710160664834,0.00313560994163478
-0.00485229152498842,0.0195835170016877,0.00795526801718026,0.00149963671939995
-0.000451443411677708,0.0186949077352113,0.0039822049060353,-0.000320493632475459
0.000699828663269953,0.0145207361844033,0.00188233109959685,-0.00190520028124611
-0.00246601299562627,0.0198546010654782,0.00445012725545893,-0.00276405516247233
-0.00368127917767728,0.0301316469329635,0.00834482607188344,-0.00243157528427193
0.00124035338687558,0.0277199991806397,0.00851482416637396,-0.000877902019716769
0.00611942272689111,0.0106988226986263,0.00573520191013201,0.00117154705102555
0.00631807685374633,-0.0122958773943144,0.0025153973838101,0.0025190924806918
0.0080085526750339,-0.0308879757604291,-0.00049048402176285,0.00229977394828379
0.0147101544868162,-0.0380140804428935,-0.00307163113970617,0.000637329174474472
0.0188772982476064,-0.0323515407689791,-0.00449359869082777,-0.00156576165806034
0.013694555809081,-0.0172617608207495,-0.00213274941411751,-0.00321250624176488
0.00308285262632734,-0.00339083258311415,0.0026523608088222,-0.00353163063110842
-0.0061528257500212,0.00379904951991603,0.00453293222456113,-0.00227406739577602
-0.0140245050235198,0.00689167998745089,0.00304825100530409,5.04821741939979e-05
-0.0182340225516142,0.00816679668888026,0.00306071825738748,0.0023477322607906
-0.0145309275091471,0.00629324409085435,0.00492197125024162,0.00391637277809841
-0.00831811058345252,-0.000323194453668844,0.00549350198505245,0.00454148846493765
-0.00500115834842248,-0.00776708401705498,0.00477371289398562,0.00434435562931252
-0.00401525253619906,-0.00948795646922782,0.00410291134710783,0.0036967248269309
-0.00447030551573182,-0.00387788792248502,0.00522847959423431,0.00285969883543136
-0.00656257981532602,0.00344769297519847,0.00750320584450179,0.00184012313024587
-0.0115865065099726,0.00717525588192976,0.00701273461690724,0.000731408356315822
-0.0144768378144898,0.005496866384315,0.00406586446225677,0.000217490401934433
-0.00811682440071626,0.000328955772926093,0.00352929195043813,0.000685169972606065
0.00105461743979688,-0.0042874435612807,0.00565768250565016,0.00152934345029453
0.00078379805482311,-0.00802262720979535,0.00708825999961233,0.00153738271760881
-0.00831211419248604,-0.00979625873416286,0.00534820419085903,-0.000224366653365531
-0.0130409671165141,-0.00811124989107158,0.00039079134851151,-0.00301937758153756
-0.00352530412426437,-0.000222872990283817,-0.000991365407677897,-0.00469254262781405
0.0115285117320348,0.0137638379850113,0.00413667951797527,-0.00379599526414398
0.0165331098328868,0.0234396073865354,0.00859713873253685,-0.00103398969680638
0.0124970318466249,0.0262244245801294,0.00990559958176404,0.00150598019090899
0.00631643779938874,0.0266944613786615,0.00986486626448397,0.00257994025976143
-0.000372915058269717,0.025181157186713,0.00913810829806569,0.00256499382067427
-0.00537568313925302,0.0240850827349983,0.0100712028254035,0.00219089792867676
-0.00929784641612774,0.0250886748048957,0.0125438680279834,0.00182845572216577
-0.0148683794788173,0.0236302543977599,0.0147450171508885,0.00179925690142035
-0.0209412120526681,0.0149470880771538,0.0152677249717644,0.00224838910399714
-0.0244859266197813,0.000236575886893728,0.0115048606872747,0.00263888497507406
-0.0254771391348416,-0.0151267166068784,0.00543514639492104,0.00238088059227134
-0.0264883383248142,-0.0240137948901775,0.000820981094066253,0.001588486423151
-0.0292527260237303,-0.0304971061128176,-0.00576344475259267,0.000873402502090147
-0.031746055843179,-0.0399834155264677,-0.0126552470566913,0.000558188128561905
-0.0267823279266985,-0.0404068598962867,-0.00950782812575223,0.00032846973184648
-0.0150320353922281,-0.0248518238334246,0.000431492656741596,0.000115387945149824
-0.00864311301821007,0.00195362983140166,0.00740643965089089,0.000123441711733908
-0.00566732679266061,0.0271165909429012,0.0119683098706099,0.000242397028238454
0.00468481114019923,0.0306904499838445,0.0149105406907403,8.82483001719888e-05
0.0174092338513397,0.0122646892309039,0.0138716216424471,-0.000775734413237014
0.0224558362921705,-0.00160229192769989,0.0113531584848566,-0.00217273011784839
0.0184860094973701,0.00666717111795928,0.0112011116472689,-0.00303577084636552
0.0113357561846705,0.0209459595687145,0.0126615024499094,-0.00257169846567789
0.00722043349034208,0.0252091165902429,0.014477894718605,-0.00126436312646
0.00495569426285471,0.0252725848336239,0.0162901793864563,-0.00015762210171344
-6.0604582592938e-05,0.019186596902531,0.0174267421234051,0.000487068349952715
-0.00805497796453978,0.00362681419282703,0.0167326993569007,0.00114027359976727
-0.0146863360397171,0.000528144765105204,0.0153723713860674,0.00184891450740476
-0.0166592035305785,0.0201045456311557,0.0163970585274214,0.00245625416692068
-0.019745412752396,0.0382610319951367,0.0186322463858143,0.00297683973455223
-0.0248000821657504,0.0364836411754469,0.0174693626619121,0.00305019577321099
-0.021589644244905,0.015813392973104,0.0116802957534973,0.00227173632423559
-0.0094121806918839,-0.00974928727492656,0.00562440673344412,0.00102537955308095
0.0064945495306564,-0.0221108556585521,0.00182741002844994,0.000140210918382834
0.0200093260841082,-0.0180925313053558,-0.00288853604504447,-0.00022929519362637
0.0237077859502199,-0.00687178914888282,-0.00878761311350728,-0.000701782022814636
0.0228970874373136,-0.00942108207780078,-0.0138062632491145,-0.0017867443660527
0.023256730908635,-0.0394758277974681,-0.0180445848498306,-0.00304617212010056
0.0205929296336946,-0.0685764716634828,-0.018143066421198,-0.00370969006742226
0.0131557786252769,-0.0666278076194521,-0.0122303013139258,-0.00369733819820616
-0.000717512715870228,-0.0478469904289135,-0.00597972430942056,-0.00293396923842857
-0.0126605188485332,-0.0347478449445857,-0.00157260277980472,-0.00126208927974537
-0.00865732570299893,-0.0303266083138893,0.00273616810721506,0.000547819177951522
0.000597284402890848,-0.0275735994450688,0.00709294315800687,0.00118570099135062
-0.00128552978296468,-0.0187062005369432,0.0108724340432292,0.000458214971325144
-0.0065883459566621,-0.0061197029079072,0.0119184015308909,-0.000445942729209815
-0.0044699282109943,-0.00267763459981108,0.00989454520183038,-0.000687518112857273
0.00371486572655137,-0.0126155450905014,0.00522529097537351,-0.000290996058216664
0.0136196462051717,-0.0219028318286905,-0.000918545643827616,0.000338143369583435
0.0178471057214703,-0.0141218375062274,-0.00400367475857285,0.000494408148304834
0.0130262982640987,0.00598089806127424,-0.0013120143041463,-0.000178923303201835
0.00579689070619717,0.0156849122313956,0.00288912057998502,-0.0010950265487511
0.000163772251653631,0.00924195958332633,0.00250646991609109,-0.00147659333618551
-0.00216242468604237,0.00291093814413353,-0.00101085599025757,-0.00123914530914978
0.00237930591179243,0.00676940658972168,-0.00110264653570301,-0.000691902927909796
0.00973510307970202,0.0104237078366829,1.22881011771388e-05,-0.000160885622667157
0.0100998034103381,0.00110701448749384,-0.00299131595754253,0.000147878439434213
0.000623785763532132,-0.0112415498245082,-0.00791860430345222,0.000239771053764023
-0.0121581755419437,-0.00880883379181815,-0.0116193323603952,0.00027335005754681
-0.0218264704937984,0.00434461059387456,-0.0149221584599372,0.000433117544042608
-0.0273687330789619,0.00388662364109281,-0.0190970725022335,0.00068259525225476
-0.0276473641961493,-0.0248708548815428,-0.0205338345041982,0.000490332255676361
-0.0227126776193695,-0.0619108306550759,-0.0190926885691094,-0.000390561092978303
-0.0214333460217337,-0.07206009581944,-0.0168656314509449,-0.00158912732777198
-0.0244626971497257,-0.0445123467872083,-0.00977842650408641,-0.00275042905112156
-0.0194955796960649,-0.0027933318878758,0.000955357905512547,-0.00310814431105945
-0.00363790409694879,0.0196796500393728,0.00760978420446059,-0.00195407429071521
0.0134240265014273,0.0189078718674498,0.00834141373141745,0.000152431515743488
0.0227933824817086,0.0195332570758493,0.00665895017408154,0.00166753180378381
0.0267363247215208,0.0257050404317136,0.0031706518580708,0.00175142173975426
0.0269364613667852,0.0216838369742775,-0.000747636482037821,0.000960354997128346
0.0186665474767199,0.0173423148002162,-0.00141755544724608,9.51662228026451e-05
0.00565598328435461,0.0249588332677528,-0.00215500632032701,-0.000391784900895889
-0.00245646857889077,0.0287749602242,-0.0058357631705713,-0.000511281546005391
-0.00538677216906056,0.0197981644272332,-0.00736894837000994,-0.000483946600515432
-0.0101393034767371,0.0110746897850733,-0.00421342530237472,-1.90168936532422e-05
-0.0142229995771918,0.00908447511965285,-0.00176836392368795,0.000997950165838159
-0.013620855495957,0.00732459859732897,-0.00424024326460453,0.00184407979025247
-0.0149772653687393,0.00807604166196971,-0.00875512773538073,0.00194100376641838
-0.0204284785845078,0.0174080284082133,-0.00976627884255877,0.00127800483997936
-0.0244939502954385,0.0249624780040631,-0.00612653538484836,0.000335934629148646
-0.0231363991353886,0.0195179007592054,-0.00267372906657663,-0.000237471367668528
-0.0151689507394302,0.00816108075140937,-0.0032543301809248,-0.000316289401748951
-0.00272742824373652,0.00274896939477093,-0.00572877468441813,-0.000168571886551234
0.00868442221510145,0.00311709955401395,-0.00637253103969791,5.14160461126688e-05
0.0153660860865257,-0.000116145245128042,-0.00742747280465998,0.000442559376297775
0.022613821119364,-0.00790188631693532,-0.00733347458434362,0.00091202818217618
0.033089169463683,-0.00494694668720593,0.000629978882529989,0.00134455299907497
0.0368656782605767,0.0142454383229224,0.0104908271093622,0.00192173039472089
0.0282918678183279,0.0278885559624054,0.0124933337578839,0.00239358860432517
0.0142704037637114,0.0223689309291035,0.00854273279864471,0.00217809918836674
0.00420050912510902,0.00976502705653473,0.00335893419441915,0.00118840285344996
0.00151433469972856,0.00242807375929252,-0.000111267534242419,-9.16057146883981e-05
0.00340245943263178,0.00170447879156907,-0.000705778244323482,-0.000918926400833651
0.0067691380716791,0.00108116526381584,-0.0019017198114919,-0.000937395124475566
0.0115518946717648,-0.00442587736326886,-0.00598860779323828,-0.000732306439258339
0.014800542920585,-0.0113629299581506,-0.010605467274832,-0.000995240438612254
0.0124901948572879,-0.0088239089860507,-0.0111203687489208,-0.00141464091899492
0.00841928600756548,0.00645486012463641,-0.00680254083928373,-0.00120424185058254
0.00923160758424701,0.0172037863804317,-0.00210647210268554,-2.52916098757551e-05
0.014486285491176,0.0134871391273164,-0.00111351120266388,0.00149489756476609
0.0168275904675947,0.00573730782803756,-0.00331569460013862,0.00215240840485157
0.0162439419587783,0.000926705101172624,-0.00534718715531019,0.00159600494295937
0.0189457185614299,-0.00212077733570847,-0.00416749257081506,0.000391989145505271
0.0224377926660726,-0.00427348026049376,-0.0011082650265952,-0.000605803430755144
0.0223563846932836,-0.00581198142171539,-0.000596932512576254,-0.000670388557924256
0.0198390007258254,-0.00675703461167235,-0.000159723842813908,-1.8088333595726e-06
0.0135336749354715,-0.00475141265196819,0.00202956570938722,0.000572730737923267
0.00362608912170321,-0.000657002472335232,0.00464456788739499,0.000830085545803602
-0.00180369550889052,0.00235296706436769,0.00802761913178351,0.00110945715416704
-0.000446879258218774,0.00524341943576238,0.00928214112876826,0.00128785764346241
0.0005305033360593,0.00786225594590761,0.00699268547973118,0.00101017782585935
-8.35581417734542e-05,0.00972384507490765,0.00390276981813631,0.000214851762787046
0.00326141944056577,0.00986344129874596,0.00131716058810724,-0.000860356582174522
0.0106923984133624,0.00746672526501805,-2.25977883665145e-05,-0.00148545328730596
0.015870163676434,0.0045790407001316,0.0010757078939708,-0.00126847931255777
0.0173329736018147,0.00159367323370909,0.002382916356683,-0.000796887033387982
0.0203201756672694,-0.00155685217005885,0.00202369962564261,-0.000607035576162817
0.0267595796484812,-0.00742225314606071,0.001204703639419,-0.000579144407534017
0.0328186754908234,-0.0184874095853036,-0.000865604016991803,-0.00044038534208168
0.0332758765487073,-0.0242861905157136,-0.00573447679784631,-0.000141750517501037
0.0241520671203975,-0.0159761856532053,-0.0107018062875151,-8.12927642097051e-05
0.00575943240710854,-0.00697110815834134,-0.0129675422161055,-0.000559559621527493
-0.0163185546707655,-0.00626750495837145,-0.0122942196160751,-0.00117742715648529
-0.0380237988168938,-0.00236596444383015,-0.00851283042886297,-0.00152581574151369
-0.0544292126362611,0.00684242749885454,-0.00465522074617754,-0.00186840189365473
-0.0566627009858701,0.0131547459870499,-0.00438980524556457,-0.00252185810178894
-0.0484107456757113,0.0200597384793163,-0.00374562611579656,-0.0028281645915
-0.0435316148336144,0.0323749650054571,0.00415441694323571,-0.0018134300170841
-0.0409427451623962,0.0433619963443152,0.0151561092210218,0.000437766313487769
-0.0314675949083782,0.0465379191291069,0.0206067116422698,0.00247219768315455
-0.0153226123457206,0.0419886053941509,0.0209989689081972,0.00282769733919172
0.00897571194315333,0.0250388162253438,0.0172515601023857,0.00175957983103693
0.0368776508241847,-0.009572008331966,0.00857269363807477,0.000349144848255747
0.0505528395785251,-0.0399745464856573,0.00166574368241133,-0.00116408733295494
0.0496071765171366,-0.0368949527988529,0.000558083193653903,-0.00273297417900079
0.0477053567100897,-0.013011435772502,0.000422381303333341,-0.00363644350838129
0.0445584054053874,0.00601321921088655,-0.00154538396138013,-0.00333525826288344
0.0336909978059823,0.0113777314479923,-0.00564214219813935,-0.00232176319474254
0.0203924169915545,-0.00563171385505764,-0.0116855633040333,-0.00157207330962674
0.0104423728150539,-0.037352368998383,-0.016696293787026,-0.00157355126414286
-0.000440399034037003,-0.0482293373349167,-0.0158278853870258,-0.00214102593065685
-0.0132562878204039,-0.0210725828570402,-0.0082516923965465,-0.00268234103834154
-0.0233280209465458,0.0123171873509165,-0.00147990783424605,-0.00272313237043489
-0.0275132854554469,0.0198647854498538,-0.00187126175425805,-0.0021899250456105
-0.0257647042217971,0.00733913601376054,-0.00444240717749387,-0.00110067862849834
-0.0213296568213339,-0.00677979218079266,-0.00253996930457512,0.000176201374046189
-0.0190505478267911,-0.0144303021057385,0.00312214141884372,0.00126834172055121
-0.0204492908633936,-0.0112480683411211,0.00956406979260597,0.00225856266273914
-0.0238937747056367,0.000187475425978766,0.0125287101815337,0.00290440770327047
-0.0229708969926044,0.00657213395122914,0.0121028593555328,0.00277677319186541
-0.0111207800658608,0.00717195111684299,0.0116440011164481,0.00190240955047875
0.00518886690498537,0.00677659244342288,0.00883932850881732,0.000589384890800948
0.0130795013989408,0.00288147024666837,0.00366525625153461,-0.000973598103937036
0.0112831997593764,-0.000953240308191695,-0.00137896673874234,-0.00268326457835824
0.00720857450482768,-0.000965498912613466,-0.00749474093170452,-0.00428486952884573
0.00330588183966018,0.000909691304777919,-0.0139178787711142,-0.00548282008418718
0.00238505182731238,0.000377362472348736,-0.01725258053257,-0.00598577679672969
0.00668855333495058,-0.00592911995483547,-0.0157285620213096,-0.00549014478056392
0.0115605350454121,-0.0227367670264294,-0.0122122797593814,-0.00367306941526115
0.014212283473479,-0.0432220587690057,-0.0116221814880297,-0.000768394330122626
0.0146899441175622,-0.0465714965184199,-0.0127173178986738,0.00203715716417595
0.0111455633952895,-0.0407027251145347,-0.012871243666151,0.0036029979028667
0.00312181364037981,-0.0448706713863252,-0.0123626988557027,0.00348722771408474
-0.00517335866135188,-0.0463049460417816,-0.00874358517984671,0.00225876203624973
-0.00813369916047482,-0.0338262943941401,-0.00315088034397232,0.00121160237741268
-0.00664808147730204,-0.0180617097497439,-0.000344257871506329,0.00101808616937905
-0.00609900614163515,-0.00515687039921402,3.95166734071632e-05,0.00152144521836421
-0.00404151920445259,0.00725295893231698,-0.0024196516851243,0.00216621216768824
0.00277512896794447,0.0195862253154552,-0.0090539564332355,0.00220167719578845
0.00686534114700501,0.0274401377621217,-0.0119189298467738,0.00123932189324838
0.00277987480206087,0.0239371525899896,-0.00784297291531726,-0.000175550230283667
-0.00274664425243845,0.0144421289321718,-0.00214851034530392,-0.00122120565761889
0.000363916924229617,0.00685873494838931,0.00418030908223776,-0.00144824577570571
0.00816250280360055,-0.00193799992201461,0.00448391760385471,-0.000386388631587142
0.00625632903445027,-0.0026441236291517,-0.00187969935320594,0.0013276374280737
-0.008999335009891,0.0054310107626543,-0.0056665621692831,0.0020804239187854
-0.026521696195778,0.00077788944529036,-0.00928559024369943,0.00152580291963468
-0.033282928956402,-0.0125280599955072,-0.0134979004531941,0.000466145790125432
-0.0275353098937459,-0.0155120878312527,-0.0126361341495589,-0.00043613201802055
-0.0163073327167674,-0.0124000889186334,-0.0109007590209786,-0.000490300665080074
-0.00825618943237901,-0.014518215238533,-0.0121554040766762,0.00046740101210134
-0.00625719085195989,-0.0176519923898309,-0.012932131695193,0.0011538491921672
-0.0032592198430457,-0.0134395318457977,-0.0113465013911073,0.000733978404492553
0.00327804689463931,-0.00587453592143691,-0.00812723347260122,0.000150690972360336
0.00813328967178478,-0.000518288445585149,-0.00485652908571456,0.000561079402692948
0.0120550011443441,0.00414935314608989,-0.00220555108166035,0.0020746152651921
0.0173604374047987,0.0100483784147902,0.000348268840101298,0.00373568516591447
0.0180767628224245,0.015043505920103,0.00158724165845704,0.00456951269582413
0.0113257234858759,0.0190728059025707,0.000898705469241962,0.00452223075850237
0.00262910449034642,0.0243943250122613,-0.000866292401492296,0.00383059637545951
-0.0032072294645327,0.0262299910145341,-0.00232182768855283,0.0026463367354125
-0.00750060904147223,0.022929815873744,0.000981564067291147,0.00121095684680943
-0.0126506542684014,0.0194467135805093,0.00837738078150759,-2.3757910602044e-05
-0.0151055300781449,0.0175517217759193,0.0126861477180875,-0.000542024847827988
-0.0144961081498278,0.0164030316773516,0.010740273150938,-0.0003721533332963
-0.011655307134746,0.012664595925898,0.00556591278095068,-5.77968197697831e-05
-0.00823916004718313,0.00452037509979045,0.00265632366333438,-5.76251812311693e-05
-0.0107630096946011,-0.000165596263335226,0.00397493355371514,-0.000255079086580603
-0.0156372418901257,0.00194954169973464,0.00383292719158709,-0.000223592451370659
-0.0120166493298065,0.00645043346431894,-0.00240154577159163,0.000143297393040719
-0.000443498858846581,0.0125770996793243,-0.00873231043479114,0.000632367187173103
0.00769398125110938,0.0143838112115952,-0.00814170122062114,0.00102790083985226
0.0100607278121243,0.00979005583068684,-0.00198300386744834,0.00104010404950078
0.017609214863573,0.00848232662985632,0.00481112963961569,0.000436302688071182
0.0290151896957955,0.0151801810613418,0.00797311498902295,-0.00038301546716007
0.0293500334926067,0.0228391002205035,0.00526865696065952,-0.000757129130398931
0.0198792106049719,0.0209211735298579,0.00168016588998524,-0.000483998396689283
0.0136458509554712,0.00401566242840606,0.00343416354284824,0.000137888072319188
0.0100690704732278,-0.0165000605948761,0.00740834483302488,0.000755968768752279
0.00240039494225954,-0.0174813802048816,0.0110459912798597,0.00115855932677214
-0.00501631652829343,0.00176926206980329,0.0159402408551308,0.00127203381945739
-0.00464385894312456,0.0193637344556784,0.0187484137767536,0.00143376791935935
-0.00423624778593362,0.0251706939395391,0.017284343318999,0.00166378299645557
-0.0150551180851979,0.0264536269725458,0.0149624547980463,0.00141992376165483
-0.0276203147162489,0.0317781274353385,0.0130514336082341,0.000541752747015133
-0.0287981336241175,0.0397162614718574,0.00776516028576882,-0.000516840175864075
-0.0203374110419345,0.0408754253188565,-0.000110315898592849,-0.00142934498098577
-0.00912775865547626,0.0327624781590594,-0.00435543955083308,-0.00268385981434059
0.00307557243981696,0.0244688091718927,-0.00491588383111991,-0.0044372262684112
0.0157774732516771,0.023546514842462,-0.00527136217057299,-0.00554728670212218
0.0253097356077564,0.0222097862275407,-0.00639570971407179,-0.0050284146052567
0.0298169544074046,0.00278652029321428,-0.00883241351715809,-0.00310215713804102
0.0311519228148227,-0.0337155084829141,-0.0122222475527402,-0.000944356132859701
0.0321689468188857,-0.0561484975684158,-0.0143482163251495,7.31664990239718e-05
0.0365733815061643,-0.0497808330898886,-0.0145710313001041,-0.000196628922833363
0.0456848182313253,-0.0378851368711386,-0.0140823796113182,-0.000654498656933786
0.0471061421758862,-0.0327482452500381,-0.0106307603401838,-0.000632856765151255
0.0281916264017502,-0.0209587018262173,-0.00383262531457509,-0.000439535437037068
-0.00158036061105847,0.00126010798870721,0.00290071870291164,-0.000206415544605048
-0.0229650512785925,0.0196134755902558,0.00865484402291944,0.000269485992255825
-0.0277041661931659,0.0259136928342449,0.0117926700451823,0.000645290044645161
-0.0213761031900376,0.0245410691486123,0.0115619000920982,0.000500779619153599
-0.0140968152532146,0.0175249216931778,0.00801306685519566,-9.73205417805086e-05
-0.00711139414916154,0.00164951319124215,0.000286684993789513,-0.000906077256467967
0.00342005941517623,-0.0207190151606705,-0.00932783575040053,-0.00179599618031113
0.0122743971127283,-0.0326829075546673,-0.0139389133974816,-0.00269434471457067
0.014454352537994,-0.0226992969552589,-0.00981222249474595,-0.00295817226772602
0.0129314024491104,-0.00891189140675205,-0.0035627362426013,-0.00180349425986521
0.00942024706884899,-0.00675580756763948,-0.00143213396675987,0.000336934550552829
0.00405597078812004,-0.00683722344703168,-0.00276283196816856,0.00191231651292762
-0.00144248489363688,-0.00319225063053689,-0.00506432686780114,0.00198390780487237
-0.00444419542606045,-0.000133327317614187,-0.00488485102593195,0.000962307721804472
-0.00476397777929669,-0.00132651057239502,-0.00362028179057815,-0.00021196781456667
-0.00213297396384658,-0.00617021795739711,-0.00669748770467265,-0.000714567635012164
0.00344603092891793,-0.0103740869771758,-0.011195904450961,-0.000374581654767013
0.0063909193143621,-0.00730814608068007,-0.00937056889533918,0.000283622714009493
0.00399563473105317,0.00633117331973444,-0.000978674096545651,0.000745182114193626
0.000563358802049605,0.0236652464521821,0.0061238257579235,0.000859060050459412
0.00600761729589955,0.0383677729415301,0.00579689783515723,0.000513438128352824
0.0213332222597274,0.0499658515755329,-0.00117806623202589,-0.000268429109986409
0.0257354127272938,0.0470569741293132,-0.00987416306509819,-0.00114262841599537
0.00904988331100322,0.0208884326033374,-0.013198615293696,-0.00168083742111732
-0.0128729562930109,-0.00781402579167578,-0.007809297720323,-0.00174886219292953
-0.0255927077861644,-0.0189374285091905,-0.000236430880226217,-0.00126213088363616
-0.0288340734315854,-0.0173656782681471,0.00318926243688066,5.06038973844452e-05
-0.0258351951521252,-0.014089893918184,0.003220022322838,0.00184723059766667
-0.0164962388217501,-0.0156215897187768,0.00195819173673278,0.0033197133538655
-0.00424551330262526,-0.0245254531074293,4.42559881063537e-05,0.00397978828095272
0.00620343942550025,-0.0375259484246435,-0.00322826493940242,0.00376279832429101
0.012955711132212,-0.0447999102465847,-0.00695472564262038,0.00275229612683376
0.0134012968620129,-0.0414303453491157,-0.00845769382223171,0.00112543079135423
0.00882180469757439,-0.0353165017323293,-0.00733031418156516,-0.000666962921958841
0.00761303766263694,-0.0284822129989984,-0.0039811253471161,-0.00202571550329318
0.0121639472368445,-0.0105348560041979,0.00148251379067714,-0.002427338232409
0.0142611132380554,0.0156353213707516,0.00583382898712579,-0.00139761620798653
0.00955963106415359,0.0356192483280426,0.00792254698735221,0.000877401637810555
-0.000702855828898938,0.0477729390908712,0.00801180373667731,0.0032530577402993
-0.0124994874761786,0.0563514474609071,0.00665561711376873,0.00471610848413276
-0.0180168601809772,0.0658561019512786,0.00633795820752889,0.0046818794102027
-0.0153225428353623,0.0792459293841182,0.00383826553404467,0.00317260752869587
-0.00788164653539032,0.085127681513566,-0.00263965362748472,0.00114988420691528
0.00488081463496074,0.0704318145683859,-0.00737037463902942,-9.94141898511061e-05
0.0202994502073989,0.0494752606210322,-0.00622874574361817,8.44909541732096e-05
0.0271372579872187,0.0408793073835716,-0.000466660987029775,0.000932481028104047
0.0194706481895609,0.0335816475176797,0.00381797600823393,0.00105039085436753
0.00869497808007561,0.0196029038536964,0.0018667417030934,-6.81255230741327e-06
0.0113484150438324,0.0049084378471934,-0.00185913209892163,-0.00157910781116319
0.0272458731920757,-0.0159709037327639,-0.00310863941384627,-0.00258527302464618
0.0392665900789881,-0.0545974689415923,-0.0069980636634458,-0.00238697277463258
0.0332489826978512,-0.100313472632136,-0.0137941595974412,-0.00153146925668899
0.0161477997435793,-0.11143826819747,-0.0142920630986447,-0.00100622141726615
0.00531210853069457,-0.0662793540147884,-0.00676451632533254,-0.000710780102894668
0.00531895937948659,-0.0024066497513044,0.00138431760777185,0.000106351741561471
0.00803479654558346,0.0373446810508392,0.00418608225703388,0.00142450704798124
0.00719288021024748,0.0498409107404595,-0.000814932820465016,0.00262359101897319
0.00411720090192387,0.0417793404514545,-0.0109310645036259,0.00313856356963521
0.00597207274801795,0.0233815133945991,-0.0191102674774902,0.00260726602240896
0.0134279704904136,0.0169634618410882,-0.0163749872957692,0.00123214436277432
0.0175661334566247,0.0241017470614588,-0.00175421887603217,6.65050583340645e-05
0.0186828293081839,0.0237952536805517,0.00837118761704624,0.00014618794713308
0.0208943456420715,0.0130032899389537,0.00647194703385166,0.00103193900247127
0.0224788041636832,0.00392749563508678,0.00294030171374855,0.00150824045980033
0.021767272995051,-0.00017957231403014,0.00188294019255668,0.00152319130512075
0.0190096650142008,-0.00137843669530764,0.00189023847575134,0.00150894459479999
0.0166818978810576,-0.000392521268107839,0.00198179458699969,0.00125203694947225
0.017394046857244,-0.000303805905261161,0.00100976124413816,0.000656719028333345
0.0203955248861015,-0.0052560594329881,-0.000305151620902836,6.84814395070805e-05
0.0200537406645789,-0.0130389952621453,-0.00205292100900888,-0.000404761379560189
0.0115284272448902,-0.0170428762160903,-0.00469035614948139,-0.000912894858711304
0.000257563834363015,-0.0157835680539938,-0.00816511448536963,-0.00130711344360142
-0.00601001100402812,-0.0137834166022491,-0.0109892130862108,-0.00142499505596998
-0.00828451760036686,-0.0115111333778365,-0.0107004105675443,-0.00142648494234077
-0.00790760211065,-0.00533416443668408,-0.00878644372871021,-0.00145326834317329
-0.00620948403236388,0.00180992820820015,-0.00654121635153961,-0.00116373151207373
-0.00585854996934154,0.000240880058542633,-0.0018102310014342,-0.000271602537838213
-0.00453066434356104,-0.00985269981987491,0.0024686873302622,0.000810009305778902
-0.000912901481044972,-0.0184504369139225,0.00257012578121197,0.00157484076804102
0.00302353848890433,-0.0197696848950964,0.00064820751260764,0.00163450560697252
0.00534624889126026,-0.0122613533445982,-0.00118201535524685,0.000450969625083437
0.00261018314429475,-0.00232182748533687,-0.00139496391788601,-0.00201806280039047
-0.0047144074756755,0.00184242422428352,0.000247265452316221,-0.00470649875914267
-0.00862075281361686,0.00416462175997881,0.00300513404466283,-0.0057346122233489
-0.00826238217012132,0.0122231122910986,0.00800698955942961,-0.00373163096041218
-0.0163084724726071,0.0264985228086846,0.0157973493670285,5.64716327482425e-05
-0.0388959060764313,0.040370591371528,0.021635003321156,0.00265823110480811
-0.0633756829018495,0.0439510264935053,0.0184656068000994,0.00283472815218872
-0.0716477062273205,0.035245326521623,0.00870278792818463,0.0015363000516596
-0.0625602952316918,0.0249277905832777,0.00252587447130302,0.00017101300287632
-0.0512620933323279,0.0176232274366807,0.00395253035225411,-0.000425447287754178
-0.0416069087129204,0.00543935300356086,0.00687120830687699,-0.000238163403166511
-0.0249054269195235,-0.00711564152345505,0.00652379899645015,0.000226379761215975
-0.00716103416913276,-0.00744047952508001,0.00556093336309452,0.000169470622097224
0.000962044840170491,-0.00338949012375459,0.004738197298958,-0.000739881961636861
-0.00190691549532245,-0.00652492777713748,0.000754262817288843,-0.00222123521581226
-0.00471852767766276,-0.00491969568145043,-0.00669387189902146,-0.00393627345237601
0.0141838274449362,0.0129557282739117,-0.0131865044320446,-0.00529314223264079
0.0419363016584905,0.0299711383395499,-0.0141749926738633,-0.00549468920166207
0.042759414994151,0.0303571726327941,-0.00694574000820985,-0.00393559546177323
0.0187481478702324,0.0237125504582844,0.00354454520477297,-0.000740602557296207
-0.00162517479714251,0.0158686814302669,0.00859296081337987,0.003014341353319
-0.00569759606521295,0.0108143007193111,0.0102356925282707,0.00572799674344195
0.00217711606274698,0.0150945699368984,0.0116377833124917,0.00616197066240338
0.0132260629549284,0.0117492962297305,0.00845063337130984,0.00382623354827075
0.0154383815953302,-0.00352110066185011,0.00278738977656123,-0.000632245074411165
0.00868457131885879,-0.00365444669480585,-0.000425011780075741,-0.00521209902111246
0.00561824406852607,0.010650817360877,-0.00381415901148994,-0.0081915118929531
0.00678095273707645,0.0150914563241855,-0.00578659724828048,-0.0091407964999922
0.000628219024042871,0.0117739513667947,-0.00370653912593863,-0.00805532512554169
-0.0160446313073878,0.0153365490769397,0.000277332641946118,-0.00526111835329826
-0.0330843369836594,0.0185998810779897,0.00480613225044176,-0.00179154290780158
-0.0392641036102361,0.00568100630119397,0.00745658407714895,0.00130806399752012
-0.0364442898181527,-0.0161030067447883,0.00730116259673461,0.00347229979730544
-0.0319687104397854,-0.0371477167734301,0.00429993419906926,0.00460299132431973
-0.0214645437284469,-0.055468497359141,0.000540705448880406,0.00482424577998669
-0.00463649096113493,-0.0526897126312872,0.000593806840899798,0.00434856748723128
0.0056748603588645,-0.0284052101024648,0.000280181159265374,0.0036506388593605
0.00430838034913283,-0.00515828640126026,-0.00511142380189995,0.00302669409107596
0.00172992690765324,0.0111153438219566,-0.0110062502686053,0.00226108237279409
0.00691193664201272,0.0230242283187657,-0.0157603647751219,0.000941825247811859
0.0131932391237174,0.029663418338457,-0.0172618860657759,-0.00136353657921455
0.01402701504356,0.0390757373447221,-0.00847168997274445,-0.00424405228746805
0.00765645818040473,0.0532412711132241,0.00659421726259705,-0.00587474828709635
-0.00356262733326648,0.0535033553732661,0.0150079970285671,-0.00504074539662795
-0.00983067832920845,0.0359833453142558,0.0144486136100179,-0.00263246260218043
-0.00804970915946597,0.0181718701149961,0.00975398775715953,-8.15987026213981e-05
-0.00656967041591076,0.00114710647605688,0.00410770081246936,0.00174790853237294
-0.0123699172058979,-0.0193813853014381,0.00506997189293357,0.00226196428525913
-0.0160055273634093,-0.0359977933138895,0.0135864883633975,0.0021468726308828
-0.0135086399600821,-0.0509145624171995,0.0188540620070128,0.00302532143322175
-0.00974993563967755,-0.0631368418368895,0.0163940169507982,0.00473942751041709
0.0100982640136421,-0.0572138580275177,0.0125884673272612,0.0056681912480761
0.0480374641743933,-0.0386185430786713,0.00968709430809082,0.00546096151367672
0.0669802385234148,-0.0507043425912861,-5.75771317598006e-05,0.00457705885154691
0.0414821791488828,-0.103036406494219,-0.012525011878516,0.00240948491680231
-0.0122729398989526,-0.121204501873775,-0.0107797960587787,-0.00135160409570254
-0.0686133940931976,-0.0569795757068106,0.00735407194992549,-0.00499818978406537
-0.106201225311763,0.0316897730489956,0.0247000185091237,-0.00649552686455078
-0.110440624124879,0.078986795100319,0.029320312883901,-0.00556421997143484
-0.0886980074346848,0.0892401242798447,0.0275930623580474,-0.00282516377784769
-0.0558766384502637,0.0800704660493327,0.0246261003378998,0.000951681615399423
-0.0213158386760671,0.0456090738322078,0.0167181211909742,0.0044562027846724
-0.00164124057645787,0.00943192389837977,0.00850879693032223,0.00640511596753735
0.0029641838730359,0.00820675324098857,0.00454812528626438,0.00651341867723449
0.0212705177381414,0.0271035802652738,-0.00831033060930059,0.0054086481302903
0.0591750913839447,0.034761993827048,-0.0303669172844483,0.00307662827696239
0.0925087268706118,0.0253466956171938,-0.0444178231425775,-0.000642447690047608
0.101275882905335,0.00513504494616878,-0.0464511522282978,-0.00464740370994371
0.0770948837734859,-0.0131532011926949,-0.0339660274133859,-0.00743141262638881
0.0324360057533986,-0.0133385918582301,-0.00682010505009584,-0.00779976114658108
-0.0032677094957913,-0.00206485893141481,0.0166667063416782,-0.00552574129285712
-0.0136209444382895,-0.0092530730141067,0.0202365138816593,-0.00172796134401665
-0.00389397093866184,-0.0363390984599281,0.0109020037072439,0.001811651858898
0.0103882353585288,-0.0560064857550831,0.00517966756859889,0.00392459921633269
0.0119095630816111,-0.0565337262487852,0.00556717880309802,0.00494516733489361
-0.000734621809479433,-0.0375425075856876,0.00634476266330199,0.0054398778878778
-0.00887766655841224,-0.000303279790874258,0.00510040663566598,0.00525687883082525
3.67565648802942e-05,0.0335512278345747,0.00110013117359983,0.00439001776009536
0.0218782964932667,0.046354016613289,-0.00198071655236763,0.00294356625481548
0.0529626650095519,0.0558997922447754,-0.00152981486059785,0.000982471987350395
0.0821856341549928,0.0704510801559975,-0.00257467832779623,-0.000970684489780087
0.0913146990510237,0.0727939159976585,-0.0125039932278159,-0.0027296664044184
0.0793369843507132,0.0558321259729418,-0.0286982982087552,-0.00463863031722064
0.0549003634279799,0.0287265951229032,-0.0388467439130881,-0.00637757389221191
0.0291123840073197,0.0144988465716179,-0.037505155613714,-0.00702951882215948
0.0137434858906801,0.0232188021793847,-0.0293743349127008,-0.00610653705234764
0.015075146975167,0.0276942229510649,-0.0239643000194635,-0.00389313570183061
0.0290727397696882,0.00816346219233263,-0.0264675418607598,-0.00139991324911545
0.0425392106463034,-0.0148559412283638,-0.030974054261006,-8.42515958748534e-05
0.0458404095157197,-0.0170841917000009,-0.0314588603099242,-0.000856634695369343
0.0349843561413402,-0.00617236979072935,-0.0316300749844739,-0.00280542955309022
0.0107241431783817,-0.00520548871020965,-0.0339607794274819,-0.00349759035018397
-0.0119845519864698,-0.010140014027907,-0.0317278675591622,-0.0015201099124845
-0.0158190742874292,0.00363083772917217,-0.0199302916543662,0.00221256625466728
-0.0140049182600063,0.0419773504050551,-0.00197298278526284,0.00581660079560838
-0.0315488178908134,0.0858462359551955,0.0111472312567968,0.00776201881467187
-0.0652871609472035,0.1026829289141,0.0122565597347792,0.00706085742542508
-0.0904255508143636,0.09146800821892,0.0100986455741645,0.0037132621501215
-0.0899532531211406,0.0935114350870836,0.0136156245360434,-0.000358789389092508
-0.0692752062581041,0.122019296693032,0.0209314224771412,-0.00230617698730528
-0.0509646248810349,0.147158341387441,0.0300232260869105,-0.000997471297656325
-0.0559898628307836,0.149028893461596,0.0412122170398472,0.00190663260667864
-0.0748518359098638,0.134080068627949,0.0486196167486408,0.003753116373903
-0.0874433387633805,0.0976717540162067,0.0421699420969588,0.0035982402741089
-0.0854371944157945,0.0334790386989351,0.0240250279379876,0.00227132952435819
-0.0504370964938576,-0.0271934972956847,0.00619210495987538,0.000658150877587125
0.00742125874343802,-0.0583750894376655,-0.0033630597718428,-0.000783379319001477
0.0302025625482721,-0.0659480393842909,-0.00517422305667944,-0.00179379769050495
-0.0132300839639705,-0.0751181602399151,-0.00557550669195417,-0.00211681304602834
-0.0764890517597986,-0.0824100671726651,-0.00229045351291281,-0.0015250044787326
-0.0954453601092573,-0.0334758137384649,0.00722239918706982,-8.63719798174518e-05
-0.0744094607616401,0.0643483262267459,0.0111424583648158,0.00148281233930899
-0.0415758084943134,0.125305571902695,-0.000169035663646126,0.00181195814506028
0.015475870301747,0.0980756429827197,-0.0239053835316721,0.000285727893757207
0.0996568310925727,0.0189239909134831,-0.0544153137201255,-0.00183301812682667
0.172523437401632,-0.0386446547922552,-0.0770940836261574,-0.00284396302537607
0.184563196804552,-0.0372784130250954,-0.0727027823694248,-0.00270347779146606
0.122534497815124,0.0113499389757141,-0.0477048601561738,-0.0026379744693728
0.0416843216401264,0.0558863507642662,-0.018879596511946,-0.00253363661762109
-0.00702251283849126,0.0548783383126094,0.00478399565148238,-0.000519174677635945
-0.0404186691234734,0.0319994769837638,0.0159175658632491,0.00354556046135931
-0.0945937149469587,0.0372537099270755,0.0253030470949058,0.00718520107199786
-0.145631682134195,0.0629916103654797,0.0389420956601356,0.00867481705373186
-0.139063789949875,0.0643189169635068,0.0398730742963282,0.00826728627788027
-0.0890502080258076,0.0426718514123616,0.0271107377149748,0.00678493527519341
-0.0430451618008579,0.0258542567320406,0.0133589090167729,0.00495798790478349
-0.00985640651690955,0.0176888875706805,0.00305535116994426,0.00304432829666278
0.0249555117443636,0.00224893543171987,-0.00537423914567855,0.000754366615449344
0.0656609194638685,-0.023919089421473,-0.0144189437967965,-0.00185521848728898
0.099928416579989,-0.0408843970090286,-0.0229780073133204,-0.00433248672960794
0.114621617893165,-0.0428968825998661,-0.0323367570032079,-0.00628113179134603
0.11348187280021,-0.050076282373008,-0.046770187769848,-0.00728811291423134
0.117389433640862,-0.0741335286595127,-0.0662297250650857,-0.00710511075120024
0.138293543773599,-0.0969296476872289,-0.0817394916479928,-0.00603898285024103
0.163832337628053,-0.0990394892729889,-0.0807707309645462,-0.00457868767353854
0.166767124744841,-0.0917743471638835,-0.0650607986990062,-0.00287885355904441
0.137423040623914,-0.082673189862171,-0.0477951119346955,-0.00110578576993322
0.096710673677776,-0.0621744836102855,-0.034928954645371,0.000237374499852319
0.062297542832295,-0.0391688889862452,-0.0262641219394446,0.000745422182301024
0.0390315204582958,-0.0152951081877067,-0.020981867762633,0.0003965503695412
0.0283471659701156,0.0181912190468549,-0.0185157869072967,-0.000332416929933958
0.0314036841783331,0.0392480138937637,-0.0225888779924723,-0.000685567571976057
0.0479245936185747,0.0326244964097596,-0.0307958360973074,-0.00060926501236262
0.0650646168218364,0.0166436404276209,-0.0342016647601097,-0.000695046973017576
0.0717244654948688,0.00453640022087396,-0.0324883082638429,-0.00117378576617407
0.0731977600556736,-0.00555704900469314,-0.0280177297985669,-0.00155513261990493
0.0756912554202668,-0.0151415888685726,-0.0215675591450071,-0.0013119355896855
0.0728474005763492,-0.0207022521491561,-0.0143354441053066,-0.000532824487669281
0.0536066564883679,-0.0186409467251361,-0.0119550584556592,-5.02713312265984e-05
0.0266495628991744,-0.0148629452677877,-0.0196014133122145,-0.000630917187456767
0.00518794553348844,-0.0256749260690692,-0.0294022026790806,-0.00179893781213205
-0.0270759887514126,-0.0477602544801986,-0.033172960944252,-0.00248970425438489
-0.0695981323997761,-0.0511854181494157,-0.029661227006995,-0.00225565799222725
-0.0913514303242005,-0.0373131646310939,-0.0244483249165887,-0.00116990970256668
-0.0835988847322495,-0.0425762957886281,-0.028216366816295,0.00053405869144526
-0.0521106208045845,-0.0549829594451232,-0.0366840937377123,0.00224715730734224
-0.00312570756508547,-0.0417459865396209,-0.0386853164633318,0.00308485120315124
0.0404701408313559,-0.0222327495366128,-0.0324265447709536,0.00271351618155143
0.0448336453217906,-0.0113309613822169,-0.0185415313232692,0.00182517491607572
0.0053796431741541,0.00161983986273431,-0.000594994952453257,0.0010921651390646
-0.0370792771930806,0.00807199263083699,0.00893581092769671,0.00024999336735563
-0.041490410133742,-0.00315674534935292,0.000402547787993077,-0.0011889767865094
-0.00882810800234658,-0.0180935237775549,-0.0118002248304155,-0.00275756958669747
0.0276667191515976,-0.0228912752606402,-0.0114983356681071,-0.00304308694346089
0.0430588835405553,-0.0187855200515144,-0.00790885732198353,-0.00168010197002926
0.0424672741002058,-0.00277323159987308,-0.0129637006156315,-0.000184014225802536
0.0399475048161486,0.0256732427252666,-0.0222954152249403,0.000156312617386091
0.0310147483372596,0.0488884405478754,-0.0251298596338558,-0.000188793142695028
0.0175366296835826,0.0398576735846757,-0.0206009887997557,-0.00016354027503866
0.0167610692479556,-0.0123066507475648,-0.019220124830976,0.000275082555986988
0.0222855942757556,-0.0632288795680553,-0.0237651103669799,0.000393842834053059
0.0128090050616341,-0.0570755079177854,-0.0245291200795424,-0.000191846428376984
-0.0169865062669753,-0.0214566730944538,-0.021161449429526,-0.000849400442789261
-0.0500918497231915,-0.022171213240774,-0.0212550799119564,-0.000761600896463586
-0.063997272238454,-0.0540623198737885,-0.0216949314415209,-0.000394458679571076
-0.0539268040906217,-0.0659429280601902,-0.0177872855930418,-0.000595884207966378
-0.0304952861531327,-0.0537381096173303,-0.011255292122025,-0.00097259726358397
-0.00735142483250034,-0.0447856102059881,-0.00290892520787796,-0.000623868189616909
0.00598202678943609,-0.0406896499534028,0.00460404451528875,0.00060432898465494
0.0144116451220443,-0.0288852933731602,0.00357438444003123,0.00217059361719841
0.0260370515212651,-0.00913891802032397,-0.00764709389509004,0.00332048738464557
0.0332450132699219,-0.00794735694286559,-0.0189188331828343,0.00354624833256456
0.0262549491544567,-0.041907933386089,-0.0199302325030844,0.00322075522377535
0.00957850846610554,-0.0768811958133944,-0.0162449786408577,0.00296655335523385
-0.00299239404915067,-0.0830770570959888,-0.0183623275177072,0.00251190099341635
-0.0067407773212655,-0.0703758068610901,-0.0202592370429278,0.00141210302456156
-0.00809626969992493,-0.0528937711435314,-0.0160104907614262,3.77839233177846e-06
-0.011113333168098,-0.0289075546419027,-0.0100381416637181,-0.0013168577193035
-0.0146057959373793,0.00711770726732394,-0.00390456327766062,-0.00234669110352303
-0.0143515644160726,0.0385594495069817,0.00474285328515955,-0.002451151438369
-0.0117740789312171,0.0373694747085486,0.0166085803140326,-0.00124949102225376
-0.0133421213703575,0.00819624310127913,0.0255222346839796,0.000508047099294354
-0.0140546752608983,-0.00715947049651709,0.0243666998470835,0.00140094502347841
-0.00846449030951679,0.0290416713692226,0.0194599379366142,0.000840425526413427
-0.00655993991254786,0.0884261990497167,0.0201915734379397,-0.000705181022184878
-0.014056448200458,0.108480596786328,0.0255577901916223,-0.00278342591612547
-0.0178484966486536,0.0885155285519555,0.0334266372623435,-0.00444789265340633
-0.0121753588290606,0.0497317765686215,0.0317303102482946,-0.00435312775495816
-0.00618101081165039,0.00187741122767998,0.0108803129629211,-0.00271172532689142
0.00342699513958725,-0.0336503857195063,-0.0110092274838304,-0.00103012779689247
0.0177341304358409,-0.0613784095807904,-0.0209187341649024,7.58103447323541e-05
0.0145907183613133,-0.084554197886903,-0.0218886469817245,0.000736170396462447
-0.0138932213006358,-0.0811798368823818,-0.0148502190554108,0.000956061902333817
-0.032444561314519,-0.063982062962563,-0.00486554602024403,0.00145450199280938
-0.0350595608971334,-0.0502892900487886,0.00332944269579027,0.00293497643175123
-0.0575245800108351,-0.0334970843145655,0.0062296925329842,0.00430760638083559
-0.081968191243827,-0.0192885950640782,0.00400027170240831,0.00374860356814978
-0.0765585666000932,0.000353934240841638,0.00527242688193384,0.00125969273454948
-0.0559842717971465,0.0316553386955815,0.0111725672709163,-0.000948842984238378
-0.0345601012349873,0.0475430852511596,0.0125198660559349,-0.000888403741781334
-0.0184525220495397,0.0362908145634221,0.00773350769900627,0.00131996539370682
-0.0162541195718685,0.00844464506067605,0.00259480758862427,0.00398835634215616
-0.0184424693404129,-0.0112151359555088,-0.0066381841137696,0.00503259556152612
-0.0133380010293673,0.0050548745902808,-0.0170856198421391,0.00340339918068986
-0.00127858619038165,0.0305619326691421,-0.0176682476560093,0.000397119274302134
0.0213141772586196,0.0233970827629088,-0.0120764724814594,-0.00171190547604293
0.0453117383261987,0.00166711829311308,-0.00939193508815028,-0.0023086205957306
0.0480473584032645,0.00432655277621458,-0.00864208286282729,-0.00216068978196365
0.0347988427418164,0.0160792388555546,-0.0050904463187067,-0.00161419580530283
0.0263500241397137,0.00737044148657057,-0.00131312604740423,-0.000823661431662018
0.0141310186814892,-0.00042589804404361,0.0029211903868081,-0.00046078682679471
-0.0111484720152455,0.00965772552976613,0.00689714813510413,-0.00069748106933765
-0.0314803749062611,0.0208454719904568,0.00339848360285702,-0.00100829454980001
-0.0355191808758586,0.0198024326687585,-0.00473466219342452,-0.00126676106909314
-0.0311267839451183,0.011326017650222,-0.0108022189172534,-0.00164641451386148
-0.023332020792481,0.00580539405631153,-0.0152695112730283,-0.00166519323415969
-0.0124925066188767,0.00228094433629805,-0.0203708354780226,-0.000463640526346273
-0.0027757039317769,-0.00650017575040123,-0.0236084959367806,0.00150239103277025
0.00179234338074886,-0.0121812071939091,-0.0212266524285568,0.00246574605420907
0.00167299669163212,-0.00590569203562412,-0.0175974762371022,0.00181579338840027
0.00779614628926188,-0.0073142316910406,-0.0151206280810636,0.000681320526577184
0.0158672465202909,-0.0174858017069705,-0.00886427079060997,0.000104648898300446
0.00298662877284701,-0.0113919269957661,0.000229595918561313,0.000181439434171863
-0.0238292600391383,0.00106150614938479,0.00707196624419982,0.000316448353680214
-0.0393261117513638,-0.00295215962816754,0.00952708239306189,0.000391026572243537
-0.0403917129154593,-0.0174396181105234,0.00755006192072653,0.000996261867194138
-0.0373065717962149,-0.0359814809622874,0.00427228736357011,0.00215135730044225
-0.0390132244703504,-0.0455993323548231,0.00716378532687261,0.00326374461605629
-0.0408112058322074,-0.0263575094608071,0.0155810223409599,0.00400555252591257
-0.036785876847488,0.000847537686464873,0.0201063790844891,0.00445752003807703
-0.0425703868317146,0.00357005763887467,0.0175918018297871,0.00449769559482241
-0.0597727047338785,-0.0153145355676802,0.0117806178308995,0.00388329183040232
-0.0626330485130758,-0.0306151703350964,0.00949256067226979,0.0027719293871203
-0.0409530631656031,-0.0194951787967724,0.0146486084819135,0.00156249138021666
-0.0159408066228736,0.0113396109665399,0.0278149999026912,0.00109448775199465
-0.00434531455371416,0.0347484097173708,0.0445174380294901,0.00242547513619277
-0.00705530243591317,0.0465984937380425,0.0550357253385896,0.00470523662842927
-0.0244582279939914,0.0469177864945949,0.0507636100762248,0.00494784400836044
-0.0441451577403839,0.0319054741788886,0.0311697600470834,0.00137189705867689
-0.0464026727558917,0.0251416680700278,0.00918957550092724,-0.00457565851881546
-0.0197246857629199,0.0344904905021352,-0.0078608539925759,-0.00976776606519685
0.0307248619386013,0.029762771649995,-0.0229719625875496,-0.0122810278190918
0.0834759669231361,0.00599652598105208,-0.0364020886912646,-0.0121739343495148
0.104896756710649,-0.0270213647201543,-0.0481072174191406,-0.0102144176869141
0.066337600658867,-0.0746484434270796,-0.050868197845014,-0.00701039616124774
-0.00985870353556439,-0.0973658340172733,-0.0385844270431549,-0.00318757617749055
-0.0793567969768886,-0.0571623502206892,-0.0204458954047742,0.000657122573166025
-0.126718240634698,-0.00607434277522498,-0.0027850625453998,0.0043925210771218
-0.136110931152825,0.00015977088950693,0.0113191768697765,0.00794353360004835
-0.0861992222124462,-0.0461821443902469,0.0127793395633117,0.0108789157696243
-0.0078633005755211,-0.11561390403516,0.00505331933332576,0.0123627177720199
0.0378522537861781,-0.12487158959345,0.00427342237487956,0.0114520816556285
0.0385998476524438,-0.0622839161136372,0.00843627903108905,0.00827599696446324
0.0176056984967201,-0.00985488156394135,0.00600082152737434,0.00413748408665823
-0.00581747773619423,0.0180275569694875,0.00502787021651861,0.000289799593812957
-0.0180663219749411,0.0452348593774041,0.0121611350149324,-0.00227553220634413
-0.0162406851065652,0.0468764177753075,0.0156646110640767,-0.00351428937636602
-0.00922821440087392,0.0147260064774873,0.00529683428349947,-0.00487167159796498
0.00023232851199295,-0.0188150956456541,-0.0116259345585033,-0.0072671943754059
0.0120359229617758,-0.038065104255023,-0.0226989737943455,-0.00974787033810416
0.0223677112606337,-0.0474301835348861,-0.0301773161482347,-0.010758562945914
0.0314092329795328,-0.0523493899687932,-0.0378204256462568,-0.00947248077327063
0.0392748572248356,-0.0598485576680178,-0.0391147157425854,-0.0063227895359267
0.0431703637378849,-0.0716868459281166,-0.0362231014565734,-0.00273964486450979
0.042065893900519,-0.0819820101334053,-0.035758319218161,-0.000126878643970488
0.0373782917111419,-0.0856817714076177,-0.0353960795090194,0.000785894020811161
0.0298652020874598,-0.0821844648297806,-0.0338627425414131,9.49051028873136e-05
0.0198794345898498,-0.0758937928246952,-0.0298986599539029,-0.00128444726985944
0.00903327662036773,-0.0705390080986424,-0.0203838369704409,-0.00196844236860613
-0.00226019184462337,-0.0661734971542708,-0.00923102317886609,-0.00127553961892688
-0.0173295924935049,-0.0647046039784225,-0.00193614128482972,0.000187983015069255
-0.0336360616465329,-0.0605274273827879,0.00248249914829681,0.00142349346745816
-0.0434468860718523,-0.0504385365261355,0.00475634323314463,0.00196679053504594
-0.0469024283298999,-0.0402834012063995,0.0070936407865658,0.00225778183315881
-0.0493602146691468,-0.0270358813966893,0.0123371076399848,0.00276783514933473
-0.0491514203525513,-0.00658998733543142,0.0189728817340621,0.00301237435241415
-0.0374027654719651,0.0132517423257356,0.0275322106507489,0.00240622961463923
-0.0124003643537179,0.0282313972248513,0.0339650186482688,0.0011036896341086
0.00548959512234916,0.0389265048943983,0.0275446564577788,-0.000901779777733316
-0.00620382549230013,0.0422149813123377,0.0137914498981503,-0.00422318038926154
-0.0354900161908859,0.0331843532744714,0.00675240132477167,-0.00870157162735401
-0.0525208944186927,0.0100855139665685,0.00602277985663144,-0.0124732502009738
-0.0490968310344696,-0.00678422566078887,0.00901511551958474,-0.0127215300287149
-0.0397969458431755,-0.00434366725270444,0.0179894359499526,-0.00765642953580436
-0.0451790753603566,0.000375970956109181,0.0272481307515179,0.00136662625234054
-0.0736293252301586,0.00694530238810411,0.0308760726380107,0.00971322528292063
-0.108818976464849,0.0251668136953358,0.0358367234052931,0.0129652296261999
-0.126886985772276,0.0364828415818629,0.0443880311136174,0.0109405706282143
-0.118603917235678,0.0196546826648929,0.0492574429590499,0.00696928508793264
-0.0956809305202393,-0.0144197966140259,0.0491914245525487,0.00389291139895017
-0.0834810136653301,-0.0403728609470452,0.0509685766465115,0.00216638985529354
-0.0961976584584211,-0.0423902689123306,0.0593482483366083,0.00124374364947014
-0.119254946271884,-0.013072350065834,0.0658169297614639,0.000986145711079307
-0.117662344158046,0.0418024454438864,0.0613115441413098,0.00134575834867777
-0.0789406228448906,0.095886211021363,0.0551094149603104,0.00156685581961771
-0.0368775559352183,0.118728752188897,0.058078208032077,0.000922379179566782
-0.00927259817442784,0.11128146629822,0.0633457296387623,-0.00017140657480593
0.0177301349406135,0.098089736992166,0.0634029853490838,-0.000779691484615963
0.0274862001581389,0.0764034922684125,0.0629225027836705,-0.000302769189507805
0.00212036780696174,0.03951279070146,0.0633231860654852,0.000752489104526094
-0.0264829590806974,0.0131220424770285,0.0609577415192718,0.000844384819364607
-0.0261512549416943,-0.0115844422171215,0.0573019435583585,-0.00081154760101236
-0.0131838456303145,-0.0650007403203115,0.0495683891180307,-0.0033650058649187
-0.0253433609405106,-0.115023686678744,0.0317689922071201,-0.00562129779118861
-0.0598856344418001,-0.107211167367913,0.0177674626952933,-0.00668450847909643
-0.0805086462207174,-0.0526506091408084,0.0227403510330363,-0.00507846142817074
-0.076693484144989,0.00468091295224446,0.0336750230227148,0.000194811256067318
-0.0478497441319247,0.0408617800965655,0.0339904508867717,0.00746827906665479
0.00162711275890276,0.0307368811433775,0.0303458967222856,0.0133566292143477
0.0462019598194668,-0.0129662960698515,0.031436281686815,0.0149983515077605
0.0785478798841908,-0.0221112116081736,0.0314213688226544,0.0111144231974137
0.107273934870508,0.0355982353299216,0.0323635998602585,0.0032046464078258
0.135332952490597,0.100742262602812,0.0411173162956901,-0.00438959158813731
0.14924519858418,0.0931623511226599,0.0469033415878683,-0.0079308586877132
0.130378743461299,0.0237504998043753,0.0393118459464048,-0.00772835092566984
0.092938977349178,-0.0243936141200644,0.0333554164159697,-0.00564104973902293
0.0433581562294568,-0.0228891177217652,0.0428894835046321,-0.00182315027773829
-0.00693552840703321,-0.0232254365161009,0.0554915294118722,0.00313460009798295
-0.0199889948372326,-0.0571783495902007,0.0534617023946373,0.00662462014879722
-0.00371212240876372,-0.0880732962290309,0.0393124119115151,0.00623975845594885
0.0230987527224696,-0.0795237839884326,0.0288092405678381,0.00215507077627704
0.0603351745069916,-0.0447569723381929,0.0287703709387576,-0.00256626552536729
0.0866626591225083,-0.0141424356994882,0.0294734274290209,-0.00460092579688693
0.0925258600196701,-0.00517156070172534,0.020758930102328,-0.00333103824518055
0.0885490853813075,-0.0156666511421068,0.00998680616081189,-0.000517965390510842
0.0706163898228908,-0.0367301959629012,0.0064188702833099,0.00150406761314613
0.0377866391380766,-0.0443090210289327,0.0142940074832805,0.00159252773203016
0.00730216987028817,-0.018386033519588,0.0311744985257557,0.000917682325448863
-0.00678719186236971,0.013332565993507,0.041771003939276,0.00114215357070763
-0.00774848129610663,0.0274886584647664,0.0421757660143652,0.00197728087091321
-0.00667045031702566,0.0321928990553873,0.0414483123848377,0.00216198495000782
-0.00465997717201556,0.0239790183337118,0.0398304229757271,0.00158813242830183
0.0100680889840736,-0.00115731935318707,0.0350820983252845,0.000669000530021494
0.0389686475074583,-0.0254884773222058,0.0306759745281548,-0.000578012981449919
0.0635568143200409,-0.0383905933687435,0.0313792149878065,-0.00181849744083975
0.070824478315559,-0.0481872242471891,0.0362049778935314,-0.00247659346473876
0.0681507742074167,-0.0566330677671677,0.0402963004108293,-0.00213267018219308
0.0598685973911338,-0.0523322324959349,0.0443778448564406,-0.000574330252918715
0.0379550915871898,-0.0343593373035013,0.0451535036257536,0.00181049103554521
0.0124780220066238,-0.0251644391519183,0.0356099384687419,0.00374071450040038
-0.0042786513413911,-0.0305046472536967,0.0263797935477089,0.00392345233340623
-0.0245744301727154,-0.0161491352405511,0.0272820345143908,0.00268214324153437
-0.0548433696105341,0.0304908473347249,0.0283877845829701,0.00131379624966833
-0.0813976599758978,0.082035554165678,0.0275316732885804,0.000167691420141456
-0.0929730555964081,0.119988727824122,0.0319862127982665,-0.000726934792516713
-0.093532569142879,0.147503405968553,0.0426617136784701,-0.000978923627735576
-0.0858473560307714,0.159450269829663,0.0494181829305819,-0.00104109413388337
-0.0574171255738965,0.134750308496492,0.0454426239504075,-0.00184866111487767
-0.0114111384321686,0.0766743582484125,0.0450689933475187,-0.00281949504560261
0.0268146197177631,0.0192651672838468,0.0516253943121045,-0.00206189734339109
0.0412051845406117,-0.023380436146016,0.0519153858717172,0.000946939824248608
0.0292275055725218,-0.0410071432472928,0.0507718823128479,0.0042715698783469
0.00693824928864556,-0.0182438666450906,0.0556400741559223,0.00501034058521843
-0.00698542898711565,0.0114281524933835,0.0582181777797434,0.00181737851834509
-0.00966003937370757,0.0235360457601308,0.054535390128446,-0.00292105243915473
0.00170507850893199,0.0199253614345119,0.0429678904645325,-0.00477657182580341
0.0180843115774773,-0.0155260275636273,0.0269058463025865,-0.00263540378556891
0.0171559402215782,-0.0823579441928899,0.0233795438710284,0.000231454404101067
-0.0149891222426529,-0.132375484558788,0.0357417826339548,0.00120869837855339
-0.0723752971162922,-0.106773218743106,0.0472727495747848,0.000891850840025331
-0.119059208096119,-0.0175922327171473,0.0501632076085339,0.000585904027677767
-0.129519354153813,0.0542639721452372,0.0505538534269357,0.00057900089009561
-0.114505480332978,0.0749389910902022,0.0550122862916047,0.000891740071242988
-0.0884657575777127,0.0911317339451129,0.0653945424678746,0.00151475848583599
-0.0655615480153887,0.123501219705286,0.0709719757778657,0.00215054774265109
-0.0422887231217414,0.141757350478214,0.0577083795649296,0.00206495796453298
-0.000195579596303105,0.128267253153156,0.0284071956456438,0.000286970013153684
0.0440783050410796,0.0791394737745843,-0.00291111173980929,-0.00309029523779689
0.0626598987703253,0.018461813737421,-0.0208821781734991,-0.00686630771525789
0.0624079648506035,0.0126641641349547,-0.0119339225558434,-0.00995890423026283
0.0627523636114026,0.0658845178666337,0.0181329193378829,-0.0110985344814414
0.0581035762689787,0.100188512424285,0.0442336614609681,-0.00884443279678489
0.0336216065745163,0.0813388731210252,0.050976158022712,-0.00419840662070893
0.0073241720588093,0.0432724962562554,0.0444226794647854,-0.000848228366525369
0.0162863850706347,0.00730056498866621,0.031709817346822,-0.000906677399582176
0.0566433496018026,-0.0129172642592862,0.0182788187410549,-0.0026800265984688
0.0885754322449118,-0.0095524942955251,0.0132950425127962,-0.0033528663430905
0.078514978109138,-0.0132450272926083,0.017730530534762,-0.0021511338955453
0.0214978376690354,-0.0148660648974414,0.0219783369827203,-0.000391913321418838
-0.0310925568620887,0.0144346664214761,0.0195733008271825,0.000278874717639934
-0.0383079346479371,0.0396907501087411,0.016431629741364,-0.000595067312651095
-0.0143931331943323,0.0172032271533363,0.0119853393450509,-0.00231078964734272
0.0447029133281116,-0.0525686737823929,0.000457519700500595,-0.00353544661350601
0.131308954483234,-0.124455660972677,-0.0127725988298443,-0.00268983199742229
0.162801863216452,-0.134546643967453,-0.0142978523390944,-0.000146347610250423
0.0998535191578502,-0.0694076591206644,0.00405119416160988,0.00230961750116413
0.0198320068969931,0.0117015219742655,0.0277023521773165,0.00479509809895496
-0.00643106725897016,0.057505619769845,0.0377524569215394,0.00750512071745519
0.00379990497413538,0.0592400546443215,0.0339013014515692,0.00845020060732964
0.00693952309959141,0.0317712736851084,0.0204089599189941,0.00620835044250111
-0.00481352310818072,0.037364338760045,0.00976685497390143,0.00119667869400468
-0.0325958027581962,0.0963597234063449,0.0120193187467041,-0.00505296463495532
-0.0775490272805364,0.126392668892059,0.0137294016630869,-0.0104066571973855
-0.112861738847432,0.101463626305586,0.0147991878160296,-0.0138046132224319
-0.0999591821850919,0.078187155395806,0.0243811882513802,-0.0147012706760092
-0.0407504681267969,0.065305988434966,0.0286150575886457,-0.0125410965215926
0.0144443225387,0.0535348598946157,0.0192878223043397,-0.00853811750561259
0.0365914382534358,0.0606120099924045,0.00579532570536848,-0.00470808824206723
0.048426668211336,0.0745268361568352,-0.00518513766807247,-0.00169777565303521
0.0855174855904604,0.0594568974989453,-0.0151770899580177,0.000796553281480466
0.141437151919574,-0.00275643224601382,-0.0211262393381284,0.00262119421403973
0.163217381918561,-0.0920614453107872,-0.0139097887234656,0.00327241550119291
0.123812406628353,-0.137929024346052,0.00239733063327024,0.00315046712430711
0.0549096542092551,-0.0875373108222913,0.0132584556926705,0.00364670288909193
-0.00301065214477518,0.0171737536508147,0.0117806291427573,0.00513082287843237
-0.0255590684331927,0.0927425078382552,0.00343338383070619,0.00625852773940765
-0.00994677346294406,0.0929315795898877,-0.00120768375877776,0.0058037630134644
0.0234785061050212,0.0392486203371258,0.00761861503194784,0.0040988426286981
0.0527377923091313,-0.00528092062471557,0.0270074983234092,0.00283498301934638
0.0612169872869569,-0.00770594736158105,0.043890026941757,0.00236797629672528
0.0584655815611526,0.0289340521387568,0.0558647841846174,0.00118879672148069
0.0597592914706038,0.0946102864386519,0.0641335415634101,-0.000802129435266995
0.0424363331814826,0.16636577977258,0.0608406129620992,-0.00207233051949518
0.00303673563384073,0.206560701196643,0.0435149980585457,-0.00228815503223172
-0.0264598379658422,0.179638230201212,0.0245749996523755,-0.00260453575922323
-0.0475694850011847,0.102665916179355,0.0197868442927417,-0.00309113734985808
-0.069419868804189,0.0475964832670566,0.0267919503957827,-0.00225264559361176
-0.0654977934811557,0.0266613760551317,0.0209063432920385,9.99885145854984e-05
-0.0108922125391531,-0.0274118266008339,-0.00910911567372166,0.00180786832290373
0.0755001322436688,-0.142113326126345,-0.0519562889047539,0.000927694808233349
0.128587248109129,-0.22393820216771,-0.0773503754780043,-0.00228270706122011
0.115132328522352,-0.165697803851769,-0.0567411445046822,-0.00569676010996633
0.0788455582532711,-0.0246200572461237,-0.017483446912655,-0.00696715555120816
0.0541761194138774,0.0624541312779267,-0.00446738046275386,-0.00537635078702093
0.0387162525681071,0.0634085883484896,-0.0128274068339666,-0.00223618903421896
0.0482492344432075,0.0307202863669229,-0.0178861802794179,0.000751828872888209
0.0869341516542599,0.00234738972936965,-0.0160968278097053,0.00299653496935675
0.116875028286002,-0.00771650595215662,-0.00883302792125587,0.00526986581850842
0.10904918083101,0.00501462650051171,0.00128505443312855,0.00833314718986515
0.068660491509691,0.0225730020029455,0.00663271494994744,0.0111415195841379
0.0216964963802905,0.0210305493283784,0.00911996543559777,0.0118324843147228
-0.00266244501367349,-0.000394492684110501,0.0122422682380724,0.00948099346506462
0.00949576094672096,-0.0203793216160197,0.0108300394391889,0.00447661515033916
0.0494841836883585,-0.0182283285909748,0.00766841922430069,-0.00108043189717899
0.0755532736844215,0.00759201511887529,0.0119939434180139,-0.00368369510808711
0.0573966856352175,0.0323934405295512,0.0147373737152976,-0.00196346042059088
0.032972885344534,0.0335282275483481,0.00683811658869188,0.00104992547256678
0.0345171873242887,0.0120881595996827,-0.00693760528645278,0.00210359352581254
0.0446624341612314,-0.0250937079510587,-0.0235912244176944,0.00100578943005698
0.0544453021600159,-0.0596068289231676,-0.0349031070205813,-0.00104526175782526
0.0605513326679471,-0.0611392175134897,-0.0312858628391805,-0.00258164416278656
0.0478290977737081,-0.0353376632629298,-0.0194763378171528,-0.00179806933198146
0.000751520026707683,-0.0204078301887396,-0.0104352344152522,0.00165796637347522
-0.0691282053728798,-0.0130954553694428,-0.000939010786475234,0.00535465682096779
-0.112087165600562,0.00270175203480009,0.014849444511251,0.00722094364711651
-0.104965996564648,0.00586351334070101,0.0310090005765017,0.0078940577806446
-0.0815733333532905,-0.00680927802652266,0.0333996299484587,0.00833390448454968
-0.0721965302973049,-0.00609743647422339,0.0176026990351575,0.00820456179706475
-0.0572614623732797,0.0277768974923001,-0.000200153015931098,0.00707364689900445
-0.00906383107224665,0.0710015569239782,-0.00716517591405127,0.00592366545369142
0.0372877843675664,0.0699674697550363,-0.0116487504714334,0.00608948561840151
0.0482095277300597,-0.0103866105531286,-0.0277275126393904,0.00607208433657526
0.0495297222180257,-0.116556613375918,-0.0508268291485056,0.00231543352272365
0.0453652626546223,-0.102147762835036,-0.0522977524525764,-0.00540630639175522
0.0276524183772306,0.0360473796564222,-0.0254809440036093,-0.0119764271555389
0.0237035167730795,0.126432033408181,0.00322642300695151,-0.0123056464407901
0.0557420535575178,0.118856744390985,0.0211721349148989,-0.00628089186946344
0.0918646144986387,0.066456918901162,0.0209056599562513,0.00284040434519926
0.0751882894211825,-0.0211723295611313,-0.00301209765800034,0.0110906164851446
0.0237350975031401,-0.105497690545495,-0.0223184519525018,0.0149431833910844
-0.0120031553680561,-0.101934276075422,-0.0107167367380787,0.0140022404516055
-0.0396358468877743,0.00460166660549631,0.0149326370023552,0.0113657622249428
-0.0781917932412768,0.107105855004178,0.0299277381739715,0.00927773725091728
-0.116199065999569,0.121637038081922,0.0339118338159812,0.0073008686366488
-0.124500309442394,0.0915991550587572,0.0321919378848434,0.00479474841227366
-0.103600576287435,0.0787267305793526,0.0193140618672743,0.00218703855707286
-0.0774457146591149,0.0943385741535246,-0.000358547862004211,-4.6037588440467e-05
-0.0516450500920223,0.115806711080379,-0.0064886057981945,-0.00160144164219717
-0.0413280692447752,0.0976666745491236,0.00239099524113812,-0.00209406485156507
-0.033156895958439,0.0410297892171039,-0.00162261496152236,-0.0024256268651588
0.0177328939163622,-0.00741710661622153,-0.0266797034198916,-0.00444318048294456
0.0939423060167986,-0.0609959162181451,-0.0491561287000809,-0.00800614848145029
0.147978714866284,-0.134228439854678,-0.0560689547012822,-0.011257328080135
0.1573848220079,-0.13320703553966,-0.0429340695825328,-0.0127816026041341
0.114724980267775,-2.21754338539104e-05,-0.0117828741157673,-0.0117083013341742
0.0519692137342355,0.142971239426926,0.0109746168042491,-0.00795151377280115
0.0133987943169677,0.159664385188787,0.0043840154334099,-0.00302512967082531
-0.0112835267868055,0.0845812031091545,-0.0147614731375899,0.000781749279699744
-0.0450640733648458,0.0248750882337271,-0.0216735742502167,0.00250761428797271
-0.0682943478776863,-0.00420085340168588,-0.0152530400651775,0.00286047967364539
-0.0612910048523425,-0.0327031068354176,-0.0085116553147658,0.0026144169997501
-0.0329540785177485,-0.0479864347947751,-0.0177210682537844,0.00216777085753936
-0.0111631676486209,-0.0596802945230202,-0.0418373268494041,0.00182773711973965
-0.000274521161051824,-0.105676412119715,-0.063573886665737,0.00124013245029945
0.0128866263862598,-0.155834679291437,-0.0750093333035487,3.2816083730246e-05
-0.0169523887985766,-0.123361932474712,-0.0633373643409756,-0.00109881220179609
-0.10445182628741,0.00576414636819675,-0.0253559770716784,-0.00181044337610616
-0.18052671469441,0.156312778183957,0.0165911681859139,-0.00305809441721572
-0.211979376136167,0.260631225672766,0.0415317802329825,-0.00511250160877487
-0.199961139267257,0.293003464003043,0.0417233901550223,-0.00668119453521769
-0.144418703427734,0.254118100627881,0.0295111456557656,-0.00694928003234778
-0.0676426860197153,0.172438616598486,0.0176755424249081,-0.00681890937067243
0.00917337126495871,0.114148567773457,0.00117282901847789,-0.00725097531948226
0.0797444244555447,0.0594124259086048,-0.0319894871613294,-0.0085344784157788
0.128624459139399,-0.0618728084891963,-0.0710945652237667,-0.0116987679708624
0.141964892590687,-0.184211656689725,-0.0817315476626428,-0.0163029466992158
0.13688004756056,-0.219261496925327,-0.065801114319258,-0.0175914095893218
0.114437233401471,-0.203946850782241,-0.0689839081734238,-0.0122444230594114
0.0538189931520679,-0.186932056837608,-0.0963914866880087,-0.00440438282041937
-0.00968081550771857,-0.138058463105042,-0.0981731365961461,-0.000197462037646293
-0.0397748870906226,-0.0614293663335928,-0.0632097383898429,-1.15608439889454e-06
-0.0678730948495344,-0.00914187532585672,-0.0276162213544869,-0.00036852579285592
-0.101201025550554,0.00971354223111381,-0.0161533032387256,0.000287080265455801
-0.109034714198103,0.0201351638367491,-0.0340988104445584,0.000846613655244685
-0.0847976611852146,0.0225641402520817,-0.0605899730845334,0.000191369429730433
-0.0396554478707796,0.00785813845078941,-0.0645037411238708,-0.00104206889520758
0.0104225539882327,0.009248176262319,-0.0392358265106074,-0.00138851530221125
0.0570330728885519,0.0270822382813604,-0.00738505539833802,-0.000143513140749357
0.0609371785001709,0.028664266257922,0.00721750270619867,0.0018056674486965
0.00446499994014429,0.0372103830698102,0.00579028860499836,0.00282387195606234
-0.0494456350061923,0.0571480125622951,-0.00967053170774428,0.00213116732301725
-0.0787404910345821,0.0510123199898218,-0.0334213380433152,0.000135152633485596
-0.0939485060626032,0.0183747327500002,-0.0461528842577393,-0.00210605699099659
-0.086422958305019,-0.0164114712647505,-0.0465152334274325,-0.00373462466375703
-0.0671278365433121,-0.0364196054080556,-0.0458440172593275,-0.00474313949565927
-0.0419834534034134,-0.034774074381712,-0.0446131369408795,-0.0050509012210069
-0.00453395597812102,-0.0323546746985698,-0.0478061643900442,-0.0034952479906439
0.0442131894711715,-0.0560182978298485,-0.0641531024171648,-0.000191552089746359
0.096094323333696,-0.0833489261564453,-0.0758910195983137,0.00260705682322526
0.135087704334873,-0.0826648078764538,-0.0646658205190036,0.00386819760029748
0.149882339685155,-0.0667044320356599,-0.044435569539984,0.00392898996843745
0.148909799360546,-0.0451040533379324,-0.0338609102851542,0.00309579331361499
0.135898919731024,-0.0115624548315067,-0.0412413995239923,0.00215855317274993
0.107866438211753,0.00682736468369595,-0.0614373068818959,0.000868140153395287
0.0884871330754913,-0.00910868149058142,-0.0699302502521858,-0.00181748386874118
0.0965490069477163,-0.0370518779785507,-0.0599474795914479,-0.00465061473062038
0.0828396987509734,-0.0207984196136107,-0.0433931408253503,-0.00514452968181682
0.012594687323263,0.0591159086209653,-0.0271389713681879,-0.00233636563622501
-0.0491992230692005,0.0840269134779015,-0.0297099047540147,0.00284695239783433
-0.0576538102459681,-0.00651691785100988,-0.0507359467759044,0.00761298701145683
-0.0562504987323653,-0.0745423128958809,-0.0513876521861169,0.00969757895652084
-0.0746299014092999,-0.0409840073299924,-0.0244119410081563,0.0103654441177693
-0.0889063652405599,-7.75720353678525e-05,-0.0047639726493006,0.0116609093673929
-0.0834134171180752,-0.0149269831693318,-0.00620938855029141,0.0128730570825596
-0.0656378692437919,-0.0472617411728247,-0.0187168422717057,0.0120981282848292
-0.0316240463265241,-0.0712980533417166,-0.034241942611041,0.00931531276595741
0.0331023225342349,-0.140678972873569,-0.0547122836612144,0.00702802316031432
0.119119612760153,-0.277044692318303,-0.0712513676645395,0.00663929905631291
0.173386075241275,-0.342817901777358,-0.0592347264348991,0.0060893291561668
0.142654580350829,-0.240518017878138,-0.0299217860591214,0.00385053074969688
0.0500132813427672,-0.0648105746225994,-0.0153599607221545,0.000835574276014411
-0.042538322435536,0.0697416224783629,-0.0193958914859199,-0.00174391724635024
-0.0950889893369397,0.131374600838304,-0.0319317860934602,-0.00318274602845146
-0.107315592174968,0.156673865507893,-0.0499910219530039,-0.00347484467593168
-0.102389696486471,0.196837892184926,-0.0646921908728456,-0.00322900156639796
-0.0804823937203703,0.196249283538033,-0.0695350675468572,-0.00343273621448236
-0.0514767263177387,0.121544143767212,-0.0590124018578294,-0.00423200429078537
-0.0120523473736734,0.0703773048537113,-0.022494769979909,-0.00328812970911728
0.0427174505486384,0.0507803977379533,0.00938484312970539,0.00172666008278265
0.0483457836379115,0.00709765537815777,0.00398844562212188,0.00823797686542348
-0.0136876783919581,-0.0202916377292962,-0.0189880398153442,0.0102772614540704
-0.0616376271091706,0.000471444401287529,-0.0281207094082396,0.00579572682010359
-0.0529675895638552,-0.0017084698941185,-0.0208200694627338,-0.00123884978395591
-0.0148137099932365,-0.058181136783535,-0.0147394729271129,-0.0061297391793872
0.0274895973855786,-0.0891807660843836,-0.0183374652450835,-0.0061094159322157
0.0537152777792781,-0.0792416860653833,-0.0350830255767111,-0.000271705032236549
0.0531097382336724,-0.0771744161861271,-0.0553257476183065,0.00855850251275969
0.037373456559048,-0.0821603647012512,-0.0625565891727104,0.0159809537323235
0.0182722874236466,-0.085675006890949,-0.0651345553874012,0.0194590155389777
0.0178396120167873,-0.0953936201423403,-0.0711285480611922,0.017752264584028
0.0670451253967977,-0.116967858651117,-0.0772736506828787,0.011213918776651
0.132981870048322,-0.147781879780078,-0.0828950117221424,0.00204531892861277
0.130972952668049,-0.173307031257716,-0.0863806654075443,-0.00702115316466522
0.0480493849804789,-0.181544486284725,-0.086055440632723,-0.0136542784789339
-0.0664762515671955,-0.133789399412217,-0.0742407659095592,-0.0173320304876082
-0.175870533920106,-0.00629542595022986,-0.0404893910289336,-0.0188129184089119
-0.216076884615965,0.124854545084296,0.00237323937181445,-0.0179399473022983
-0.158680101323673,0.181275761550941,0.0191878597743659,-0.0134922451336429
-0.0863754397449054,0.165356904997283,-0.000539362220516316,-0.00565734429769006
-0.0590552185600005,0.107235566031186,-0.0237860228338428,0.00236111001939523
-0.0491156751663017,0.0286335959869522,-0.0193307730525692,0.00738321283578367
-0.0302517824141374,-0.0400133470559504,0.00262484795492907,0.00919674591055517
-0.00232077505615033,-0.0723176122026833,0.0165774741401917,0.0086435547079432
0.0253968657422582,-0.0762333732003592,0.0187081893720047,0.00610932192204821
0.0337689127870742,-0.0645658990945268,0.014841313273128,0.00355298896884023
0.0380095899099697,-0.0663742349984125,-0.00184457036636548,0.00348107099799338
0.0696788154760305,-0.134911097154985,-0.030092815510474,0.00523677046758538
0.104986018948235,-0.224928162702957,-0.0461053972013301,0.0063951303294611
0.105278081786777,-0.210320438072491,-0.0460171959785839,0.00581429053996711
0.0894042176768993,-0.0648302230050086,-0.047029783069913,0.00311164373160112
0.0764541770117094,0.115840491565896,-0.0569849375438197,-0.0013648288059625
0.0134566730337071,0.218086764361833,-0.067253323228437,-0.00644738660104454
-0.0997899729657538,0.215080116007513,-0.0486073716452225,-0.0108008052658754
-0.163163160574115,0.173580367229459,0.00223566373385881,-0.0116797988421202
-0.150681168123235,0.154221197690818,0.0448883044200814,-0.0070416408543746
-0.104947038129469,0.13605852342775,0.062253833648256,0.000753264215400963
-0.0264702283900508,0.0650773182325659,0.0705020679256018,0.00797748327420662
0.0677521207093146,-0.030671386223462,0.0679456352872862,0.0129763455174952
0.112543414857945,-0.0860226676156852,0.0404890422161878,0.0145349726428576
0.0915800736105758,-0.142652412120331,-0.0100156114801496,0.0114157553941236
0.0449063972606742,-0.244834525904455,-0.0628475685825969,0.00462271604789031
-0.0157203670109068,-0.303751742334297,-0.0803231801327181,-0.0022632267133173
-0.0705773972830405,-0.270763860525277,-0.0478434087049511,-0.00522746526908529
-0.0741807543208811,-0.207277536916041,-0.00539548951497805,-0.00264713912382765
-0.0693676043202527,-0.126132586503403,0.0174570420814881,0.00228887162667551
-0.129541563899743,-0.00274841102094736,0.0420987127445527,0.00458672986180059
-0.231955429139003,0.10917583024327,0.0683253124250682,0.00406543234636762
-0.313732366889514,0.140342559011354,0.0604149129034811,0.00360962945586024
-0.325022861810761,0.120501154817085,0.0249940816742697,0.00232477777556502
-0.264920689929061,0.131646298494987,0.00597521106778135,-0.00187534533458025
-0.194483924314515,0.185724135379359,0.0226415099208875,-0.00574087537346214
-0.156543339471196,0.204314876851701,0.0506520091960091,-0.00486423672746294
-0.114970163740449,0.164889754305476,0.052831429216967,-0.000617947155510381
-0.0120943375218585,0.130044682344823,0.0277909315997016,0.00334380341297193
0.132602102422916,0.0834876638229619,-0.00653235070633224,0.00566731594114927
0.264958135308303,-0.0371393666557571,-0.0498757660128082,0.00460445367932389
0.350005806112786,-0.173941067451829,-0.0858067807479604,-0.00174230895798879
0.357522420069461,-0.2503002452152,-0.0912780294804569,-0.0102519315625145
0.301086175339588,-0.285058231076891,-0.0771380823585152,-0.0146465522874725
0.22512258181627,-0.254768075945386,-0.0556124713104685,-0.0128129719882623
0.144200472024518,-0.12369545571842,-0.0291223925938531,-0.00749207636267482
0.0529044499314228,0.00967504079633175,-0.00703184028634526,-0.0015867591033046
-0.0342308456940739,0.0372814345072333,0.00120746973669689,0.00351359330220717
-0.102200504336923,-0.00117633588430869,0.007202676104653,0.00669846581215881
-0.147663858275288,-0.0104872780839885,0.0249439582195545,0.00697363221997439
-0.144204934463655,0.0305257151158627,0.0362610626900209,0.00459002356008646
-0.0799148699689134,0.0644312168715747,0.0261419748388066,0.0013395316346498
-0.0180167028856479,0.0193445948119979,0.00413218597572712,-0.00113879558381834
-0.0145510719519527,-0.0890850754488688,-0.0262431085194761,-0.00315010446083498
-0.0381175550350911,-0.125496788021677,-0.0588283682077356,-0.00621421164506058
-0.0664062911816514,-0.0205842560163752,-0.0671671395659003,-0.0100115969313909
-0.10763097360605,0.10288558857314,-0.0463419941090739,-0.0119399896702515
-0.122927035589168,0.122905103017041,-0.0255128232481719,-0.0110179205230717
-0.0773035521380118,0.0448291163557924,-0.0210697046064439,-0.00880839841310579
-0.0295278667912003,-0.0355416993470118,-0.0220727429137818,-0.00666336517838908
-0.0685291061492258,-0.0318640538752607,-0.00685693878635549,-0.00464454211013665
-0.159449690259777,-0.00393213374263084,0.0318093445189469,-0.00246147383639983
-0.18019900637658,-0.0393132612395534,0.0780026796039609,-0.000867533788688571
-0.113713401919189,-0.0800289897564399,0.125308305737941,-0.00119849467090874
-0.0383518477038701,-0.0423678659939071,0.168760823110642,-0.00226051268317995
0.00858685851533747,0.0356435260901436,0.173527882212035,-0.00113115402899559
0.0315729431924087,0.0741416676905894,0.13047328510928,0.00111354693061817
0.0640901199503251,0.0516381669963543,0.0753405482791082,0.00103012320597902
0.146331383498666,-0.00905120004263671,0.0138569161269726,-0.0011078788045289
0.267914736742207,-0.127327318679454,-0.0895796555472946,-0.00438911133149667
0.35818362804887,-0.268048186652561,-0.214855764479466,-0.0109766255272478
0.356689881054071,-0.287580981982498,-0.270627430393408,-0.0200998643109852
0.279026023795574,-0.136189089185111,-0.211944477020067,-0.0253076278727331
0.141231567589769,0.109674077797615,-0.0815539357078227,-0.021444536816701
-0.0318777495296601,0.249990894219383,0.023519598753484,-0.00949640153418514
-0.152432278635084,0.176933077363088,0.0478574550555225,0.00433780350469992
-0.180917607873374,0.0720751876327049,0.0412875777767999,0.0136067896975921
-0.1760356736113,0.0680565213891603,0.0506884685516088,0.0170969589283305
-0.18982819263199,0.0869142275585947,0.0664819803591503,0.0168527496333667
-0.195584492024631,0.0305262493781496,0.0813516897080196,0.0138992744522143
-0.156084158405811,-0.114260791049227,0.0879850443077662,0.009566372137015
-0.107367788515845,-0.239411712756451,0.0736406026420314,0.00548890291360589
-0.0870939486552336,-0.211852138204781,0.0553744765842995,0.00137870728851434
-0.0875460508566479,-0.0587641275283196,0.059666236708652,-0.00212985996146514
-0.091468796410675,0.0671889788436125,0.072616878179394,-0.00194957843494112
-0.0696617310544334,0.105209391064519,0.0623332682335957,0.00186553458843892
-0.0260861514852889,0.143828093426154,0.0366172197405641,0.00463778113485613
0.0065755238414264,0.231754700060311,0.0157156917622154,0.00357081416546542
0.0205617430588463,0.276701605005974,-0.00583348932648767,-8.14392726711279e-05
0.0379751051588757,0.196404271055838,-0.0354440032155331,-0.00472579180585935
0.0966040818784289,0.0457406612391799,-0.0646661112174738,-0.0100695383781232
0.210995115481684,-0.0814705093135016,-0.0787050894899398,-0.0150794441447168
0.31032623619807,-0.179492675857371,-0.0745838869378146,-0.0166891245241674
0.288608823347178,-0.262209429345633,-0.0606813012428987,-0.013318161150031
0.17256370966464,-0.287022160204477,-0.0433296519056546,-0.00682796104013356
0.0592822643546371,-0.243697327647605,-0.0251162502250463,0.000988300690762729
-0.0482977770963017,-0.177558134571677,-0.016048746180024,0.00928133816884215
-0.149418258067587,-0.118426040254335,-0.020195626072876,0.0155296535966224
-0.195618881855281,-0.0467616831202711,-0.0177365623803345,0.017064236128565
-0.19191282406488,0.0654320626708929,-0.0069413366116879,0.0146282278618069
-0.173591592951877,0.152503719310135,-0.0105005172766061,0.0110936067317321
-0.154592788555985,0.146639194719027,-0.0123119214816397,0.00769799894739659
-0.131455513691641,0.122008880762461,0.00989123358487412,0.004180165978518
-0.113215521208309,0.143584679076483,0.0323658308352429,0.00132899088645202
-0.116673510490018,0.18354888711192,0.042437911002188,-0.000317518016402628
-0.126762845547543,0.253484448323254,0.0591680498349208,-0.00164510780863038
-0.116249752214992,0.336516586858763,0.0841818591506734,-0.00272786748242488
-0.0754287099197575,0.338368254151264,0.0960178457764921,-0.00299765402710444
-0.0354920887580118,0.269140080957635,0.0937955306225616,-0.00234758291300681
-0.00347324188232298,0.215000775342177,0.090332938983383,-0.000145310384924428
0.0920933837725477,0.143436866539436,0.0647897273268146,0.00337895459956674
0.253406299111802,-0.0150996135593524,0.0135574979096785,0.00499275475980347
0.361183346221529,-0.25734787293222,-0.0316397290835934,0.0029582647241942
0.328595850158677,-0.489238063224598,-0.0595982195805171,0.000208872320269993
0.150340151682538,-0.517446713312812,-0.0530638063662122,-0.00130029365262479
-0.0759636642512198,-0.290153276964048,-0.0054725267844471,-0.00291097593132138
-0.209901870975178,-0.0201346566179027,0.0379204905459758,-0.00427331375234027
-0.249987292047946,0.124952990467209,0.0588575676324443,-0.00262578026507577
-0.241557195391928,0.218426689792888,0.0780712160485738,0.00284743456423668
-0.180105849325613,0.306283928196665,0.0631489546111714,0.00937040073047776
-0.105468167120045,0.265408073264394,-0.00936302832010376,0.0109597771692174
-0.0619291583415322,0.0669459422047814,-0.0660566614913597,0.00422147248670536
-0.0351131547811916,-0.132048374540048,-0.0512805298763714,-0.00524348223780971
0.0118260942071142,-0.193758273984479,-0.00198618821812863,-0.0102547080609419
0.0783997881253676,-0.131863832116458,0.0366259351503061,-0.00965507130306032
0.102018284575715,-0.0394144297540443,0.0523944688649773,-0.00490363009486433
0.0546795622150858,0.037571404236553,0.049047566585667,0.00163191058531896
0.00841379632455175,0.0634244946320095,0.0421957816401133,0.00659504981208273
0.00394168946453347,0.0361478138123029,0.0443016380298971,0.0083870123715222
-0.0104166507906864,0.0509933073246137,0.0530918807350402,0.00757443235154819
-0.0466518618235646,0.121664473132603,0.068449478929519,0.00558904216327327
-0.0487049028023872,0.13748275732421,0.0800519877334279,0.00371606760524474
0.00234069154874623,0.0758014537637332,0.0687353331359128,0.00122177200937121
0.0481314507905398,0.0509237489588782,0.0533036886245372,-0.00310190785539159
0.0538341803004489,0.0940214509949829,0.0530958329020185,-0.00750303400188275
0.0675272441618195,0.0868978192410895,0.0444877045488979,-0.00952990676316723
0.108947220461255,-0.0164944548626182,0.00401116684704489,-0.00959498163855123
0.142636036096212,-0.134838557016033,-0.0485726731180536,-0.00888150757750966
0.161980553462401,-0.188235327314931,-0.0716331925687557,-0.00697719399087133
0.181098813791421,-0.168133567267283,-0.0624389249133301,-0.00355737450993395
0.185083194130985,-0.189715856855981,-0.0608028385208909,0.000185529080228708
0.146583160602562,-0.284467147202204,-0.0777056055782274,0.00204280966507222
0.0746227778551842,-0.283422738216234,-0.0733673904909719,0.0013408649987829
0.00824421902054903,-0.160876012002245,-0.0348299135568633,0.000609543905436747
-0.0159730721462076,-0.0573243500393367,6.96619454450403e-05,0.00250397395487603
0.00131847670496256,-0.0271556617170348,0.0065161624013839,0.00592371809780083
0.00178740423871914,-0.0242107656734949,0.00377065112748809,0.00732026649248235
-0.0313938230479904,-0.00101399280636998,0.0120958817652164,0.00570499674278694
-0.0560361332538579,0.0387269270166033,0.0199473560234256,0.00341808276529351
-0.0880286643962309,0.0569804739300755,0.0124171908584177,0.00223787087713822
-0.148545169806966,0.0395996410829106,0.00190217783613606,0.00129425937260411
-0.184674586590319,0.0185336115974279,-0.00157595481538074,-0.000610036534896147
-0.166698113368738,0.0296726013114936,-0.00189750984271014,-0.00276751421482638
-0.102613236285938,0.0606538462284373,0.00714898421702687,-0.00361572817022137
0.0187480160107327,0.0360205039692017,0.00478447329138385,-0.00223794809272893
0.187476693338287,-0.0335732587467381,-0.0282839576125728,-0.000259875329084737
0.323263035534934,-0.0382473228551936,-0.0512482043763791,-0.000287644911389024
0.30231278682758,0.0267536449710173,-0.0271015229829562,-0.000887538233677776
0.127509273041686,0.0774857862804455,0.0211347846083465,0.00115467011488953
-0.064369531624181,0.102783172858432,0.0556819391866585,0.00494791992913308
-0.190824446147309,0.112630161248547,0.0762407958539064,0.00686208500916446
-0.225273407582826,0.0545225987515455,0.0875115919963786,0.00612845509092109
-0.183525242519901,-0.0378074626103845,0.0851230642116584,0.00556026188570379
-0.125614717909688,-0.0255035405172286,0.0782385692423502,0.00703710949479021
-0.062080936557375,0.105374464862192,0.0652654141980861,0.00923711910509412
-0.0056815756067061,0.157713644631519,0.0305778381366082,0.0100720512519771
-0.0111643638401586,0.0284348875426721,-0.0178478358554681,0.0085453262388492
-0.057210372907335,-0.0979127287533609,-0.0471049540176477,0.00432582015882596
-0.0964564265494801,-0.0328662522266375,-0.033049356126156,-0.0013535628264933
-0.163323711924574,0.184288486473825,0.025015523547017,-0.00567601140434985
-0.244129870161723,0.328853788245154,0.0760208712488219,-0.00689750773311634
-0.263438375777618,0.248346179689665,0.0539678275388486,-0.00487355973715604
-0.19243922373301,-0.000210797970154275,-0.0198795632065078,-0.000375720529213539
-0.0437769335105879,-0.240562360436683,-0.065503127246973,0.00388192094054036
0.105608737455609,-0.256595239943428,-0.0467457539473923,0.00571875200247316
0.19245131839255,-0.0749533086403817,0.00183034982992854,0.0063953413840656
0.228863078677516,0.0184937831736057,0.0365800382515905,0.00754032160824271
0.229456704721518,-0.0287559070374377,0.0534535586770274,0.00893075611662952
0.212468128796032,-0.0225899880738809,0.0544967650160249,0.010045814226493
0.179310617598719,0.0813622737522144,0.0387291210886487,0.0101582497666946
0.0816866145098508,0.179759397887369,0.0177880183596127,0.0079078918132538
-0.0446657169258228,0.218267852583632,0.0024572616146352,0.00344573455889855
-0.104677069904598,0.209948011136633,0.0058191328752283,-0.000842462097550314
-0.12033634568458,0.176683298144932,0.0244048316697116,-0.00319660520983196
-0.150388576043873,0.157098655979908,0.0352087613791947,-0.00451817293025802
-0.187466149727439,0.162895935518348,0.0368256672447643,-0.00635254041937933
-0.187928302532341,0.134166737381577,0.0293289913415843,-0.0077875374744061
-0.104443586050136,0.0678917425749907,0.016272391025226,-0.0053912135419411
0.0374630322458092,-0.015640437163683,0.0030611530204056,0.00331735233622665
0.129466993862176,-0.137575301975238,-0.0218948867611952,0.0144610203316122
0.127314445185089,-0.224422581480643,-0.0405972429747064,0.0200551596966821
0.0948783611747525,-0.210964248456262,-0.0283602254575432,0.0175279886751349
0.0821398917480227,-0.189516609068056,-0.0130193468265531,0.0106642231293546
0.0756051126826856,-0.217809756289508,-0.0217712917161806,0.00225829793795845
0.0615375562045247,-0.215390678945005,-0.0369133816610801,-0.0077834970568143
0.0577800553404614,-0.136649565025531,-0.0451186138721717,-0.0183600270697385
0.0853008239083959,-0.0387024686841907,-0.0514980212267423,-0.0264558618206099
0.124370157748304,0.00943653998880215,-0.0496228560429158,-0.0294753188404863
0.123227560069321,-0.013368546369496,-0.0347486467833438,-0.0257360870514337
0.0939304584706118,-0.0847560987631361,-0.028138474901989,-0.0156783394786798
0.0863290386647403,-0.128301595281891,-0.0382316086544858,-0.00262185435559275
0.0927164070412096,-0.100772283850448,-0.0528816846216934,0.00936586235641369
0.0717087173278288,-0.0705828610864857,-0.0615955034407706,0.0166251519141156
0.00217207815856082,-0.0795015594702824,-0.0472347164271117,0.0176102088884664
-0.0863104011175957,-0.083608696761529,-0.00536784344039577,0.0141575213690464
-0.138209800113763,-0.0519343385770302,0.035765229983057,0.0094535818007651
-0.146458131617986,-0.013933336890648,0.0442144174216258,0.00513386755357698
-0.148896123823518,0.0124385762773643,0.0291863831867382,0.000301244894031071
-0.129901343208713,0.0375470818643622,0.00858130459728625,-0.00596252096566987
-0.0751786759579882,0.0333588177339517,-0.0168554856828018,-0.0129907466354108
-0.0145940172921206,-0.0259760059538863,-0.0265201598788354,-0.019075764085181
0.0710217533731557,-0.105311072405944,-0.00802844347191137,-0.0209365055048952
0.187740415959297,-0.119069929029122,0.00345551353579719,-0.0167995825564202
0.273664829126782,-0.0628608102551284,-0.0160178230748095,-0.0107694467827039
0.270944848888626,-0.0344133596528057,-0.0365584348233452,-0.00766279707008255
0.181270585198667,-0.0698083656913175,-0.0375474737476568,-0.00675319853001931
0.0491336557093574,-0.097454873237281,-0.0279583849457276,-0.00553724780310226
-0.084668058320263,-0.0395117680554833,-0.00795234083826752,-0.00395655339710768
-0.179483044262077,0.0520935973306704,0.0157528200096325,-0.00260586430176693
-0.203255704960997,0.0725409144858434,0.0297792511726752,-0.00129577574673863
-0.174293525125088,0.0215617676527424,0.0361420499679709,-0.000240722802642836
-0.14366262716598,-0.0507124764920624,0.0342442421153329,-0.000220724888072812
-0.124484793587077,-0.0901081762659901,0.0253966870312805,-0.00165156777705791
-0.0763846605256478,-0.0771161072634856,0.0106956506298527,-0.00395327415129624
0.0043207572074941,-0.0777666952659735,-0.0154140146567328,-0.00594570176693066
0.0475033748125583,-0.0957414641103143,-0.037850700016276,-0.00754740200890613
0.0133056887933101,-0.0581458158873073,-0.0331564984099724,-0.00931051458936045
-0.0751349371488073,0.012211891536192,-0.000227646972321485,-0.0104018840640481
-0.177403234645562,0.0707787674125719,0.0429912288976128,-0.0097007425207099
-0.245533980988505,0.134200580021308,0.072876143964374,-0.0078129308904408
-0.252966748631686,0.181008629174228,0.0730152927704288,-0.00613959112991643
-0.204237804786236,0.14467037895652,0.0582423373086652,-0.00533693469039053
-0.127123049262036,0.0310091433926857,0.0536535514591308,-0.00538381191181439
-0.0509542149182306,-0.027995028590054,0.0482464340995284,-0.00618241178721182
0.00509402753219262,0.0386889729999761,0.0257976433180637,-0.00758334727914617
0.0394915732565382,0.114135657062607,0.00691248606264545,-0.00882178297289045
0.0866585487677106,0.107727804484101,0.00222041022421579,-0.00821022146064018
0.145592929919755,0.0607768667417366,-0.0131437733970539,-0.0050300517217739
0.163372608411515,0.0140785644474746,-0.0433727025288214,-0.002225041540498
0.130647930959319,0.00576377320007523,-0.0475484361919527,-0.00278359636161807
0.0953949247849838,0.0306867729587541,-0.0138949788043124,-0.00341715986129549
0.0711979222008524,-0.00118099953577754,0.0104569051258637,0.000353537817957383
0.0388909091650597,-0.0572900150079877,0.00710704380678276,0.00627294367247362
0.024001348869741,-0.0326794770861634,0.00417603084128722,0.00987162439195878
0.0350862864516131,0.0241516256753639,0.0123274399785147,0.010267044708043
0.0177945975232067,0.044350400000103,0.0199021476659872,0.00873958575755545
-0.0326319446472215,0.0633734306845435,0.0293120074704054,0.00661372131587835
-0.0647495571227592,0.103686304874418,0.0452296785820745,0.00554675901107415
-0.0916923936240481,0.12607664273481,0.0541841898352265,0.00653890373535873
-0.130910043713179,0.106647017373402,0.0406839075718836,0.00744850937135482
-0.124218535092107,0.0542121086454215,0.00745901818335627,0.00531631740639415
-0.0518741747601518,-0.0256192106660714,-0.0225638180713197,0.00104752058866718
0.014300188556017,-0.100764159663312,-0.0260498015947944,-0.001788409314909
0.0171579129898546,-0.0720253361055459,0.00961760125258567,-0.000974235001319552
-0.0190112347685552,0.0618682851658466,0.0522807128921779,0.00385385583150944
-0.0388955952353649,0.129732335296111,0.0485311506982076,0.0106592600500466
-0.0224992117667872,0.0990990008968213,0.0254407306045321,0.015295331980579
-0.00218936844382979,0.0907931064235256,0.0399065026401842,0.0166049008787847
0.0119640965772727,0.124335622733419,0.0750347648655161,0.0173396313710449
0.0408625004303058,0.135779263528794,0.0774720480679378,0.0186735954591581
0.0781494325105112,0.045158922845941,0.0212676082351304,0.0184116331308019
0.117399644249829,-0.153241676744021,-0.0610715524248885,0.0142609043346483
0.1506270746514,-0.311515052717832,-0.104638822056084,0.00788485587772281
0.158775217492014,-0.316350710417334,-0.0958888263278107,0.00385489453132876
0.114050016259727,-0.224258326252798,-0.0637800525225081,0.00338314052579625
0.0330691970564335,-0.147343671876797,-0.0308641463921675,0.00371603467615974
0.000998687430457529,-0.110201771807286,-0.0149154450385798,0.00323613720835014
0.0270489937221742,-0.0241831274206453,0.00252557447044519,0.0027941371527136
0.0304182510604154,0.10931788527986,0.0311485736025888,0.00388532487710092
-0.001054888785083,0.165783190512501,0.0316289430597598,0.00648027121226553
-0.00623227750150432,0.13708198476833,0.0122658252043574,0.00763882257564317
0.0375375244705765,0.125286548381595,0.0305062377304949,0.00571327016727813
0.113944341486821,0.138440018225705,0.0683020753097506,0.00435171680275305
0.196539035153235,0.120869087291145,0.0572045492685996,0.00630397078730183
0.246314090569711,0.0697392693529738,0.0145701624559194,0.00825264102900001
0.237325236168504,0.00601237494494587,-0.00253879931786632,0.00732634338582819
0.166420613906719,-0.0441910164320384,0.00408627941189753,0.00612368268077946
0.0584540939507655,-0.0541997525975102,0.0161269394035803,0.00807139743804623
-0.0468656110932816,-0.0229212810988327,0.0257518030191419,0.0122273129869185
-0.13674018137318,0.0345380296485442,0.0314532335672397,0.0144842578911075
-0.216845987223653,0.122851986576516,0.0504782110839647,0.0128222811430758
-0.280624237140185,0.220310857347723,0.0749801756574662,0.00843799040071308
-0.321614301541209,0.266857804078167,0.0837954220237289,0.00283298935232295
-0.310557995602212,0.238286005693737,0.0787127850669811,-0.0020111253219973
-0.228200995846277,0.167862313565872,0.0537656087990837,-0.00487207032562803
-0.085659946802897,0.0676372247164397,0.0138189837872257,-0.00758107946764469
0.119957555782722,-0.135722400003995,-0.0235810213511924,-0.0109543729771022
0.302038295614269,-0.368201972953164,-0.0420383234407434,-0.0135592762948015
0.376834048887287,-0.449376119462842,-0.0360355990939504,-0.0152389743824002
0.411854637576401,-0.405401886494409,-0.0337311033756478,-0.0164845556503783
0.417365178684029,-0.320836099641047,-0.0398405900304374,-0.0173736498765723
0.317920019235217,-0.198781455842977,-0.0231981116074724,-0.0177069629796766
0.134710696684248,0.0208128265424175,0.0244444550416358,-0.0168867935810858
-0.0638569361685339,0.285677507555954,0.0718326180515097,-0.0141320015989518
-0.222986916245539,0.367444312276785,0.0765408334994062,-0.00984417810983582
-0.298337660861603,0.258208378162902,0.0448133767094001,-0.00677302910290868
-0.286453540711974,0.223683552152313,0.0292192318591519,-0.00619403496867937
-0.196797589329449,0.315602893921876,0.0357343697133397,-0.00504823831593949
-0.0963923337995967,0.296340909102863,0.0255128115995549,-0.001189328808096
-0.0497909080106239,0.111134391740208,0.00214516213757428,0.00254252095290289
0.0194396240780447,-0.0680706173031228,-0.000657307772938485,0.0034520730863009
0.150540211156674,-0.169229454400171,0.0106560426395062,0.00305330058338494
0.235165363633189,-0.194112868023999,0.0109054762903983,0.0030867929608367
0.19148085744337,-0.12316116954944,0.0113596212440639,0.00255945360218961
0.0768286149928838,-0.0483040825544479,0.0185476082414971,-0.000259956638259813
-0.00514344483834436,-0.00901385974906321,0.0339760766823795,-0.00517137823223
-0.0642384781619351,0.0668276234280746,0.0554290056897706,-0.0084215850173685
-0.153563540544996,0.129070008866759,0.0500809776184819,-0.00718152033011529
-0.223522448372219,0.136254780068393,0.027058296286486,-0.0047291747070284
-0.217412499272661,0.124581834776072,0.0229560448245116,-0.00449938451636098
-0.150828640602487,0.107887112673044,0.0237427637783561,-0.00560815178957781
-0.0320000752568912,0.085528427270429,0.0129569836361994,-0.00736609537981523
0.091397214571852,0.0222691861684631,-0.00746695093967615,-0.010013770595802
0.146755387385918,-0.0963532683446011,-0.0401244609169696,-0.0130179898018907
0.164545180620167,-0.185176799586932,-0.0610709472505214,-0.015727253640237
0.176423694230982,-0.159365842815349,-0.0461805793297933,-0.0168390273313614
0.154918854335158,-0.0624686426414522,-0.00851641745736974,-0.0145800656820041
0.0882332893568606,0.0165319961284261,0.0263489766011793,-0.00851364216887562
-0.0116740369286096,0.057727175000489,0.0453087769243235,-0.00060645450530716
-0.0677800313294982,0.0898843624339037,0.0580235551181675,0.00630096982995621
-0.0329081473195374,0.133834066756809,0.0671528578574054,0.0120699606401747
0.00874450904606521,0.109914326847695,0.036859790635853,0.0177249362995706
0.0012141543379283,-0.0250182063405377,-0.0257222528370832,0.0203256429157213
-0.00971370637448502,-0.135761244651955,-0.0574220989703423,0.0168413194956611
0.00656577326316459,-0.146007422059996,-0.0497748187757822,0.0103328163457504
-0.0198356676752235,-0.080100158689478,-0.0406505472010356,0.00476676357028201
-0.131275886122107,0.0584603647812077,-0.0349705981298036,0.000100434176847811
-0.229080585296727,0.196458914825381,-0.0175120691621038,-0.00282046612826111
-0.219094288899827,0.170905466970805,-0.0204753385382365,-0.00191971971070666
-0.0963815448499394,-0.0232534955244626,-0.0604802255444375,-0.000390901193280099
0.0734069378799786,-0.122388766486729,-0.0748084694873698,-0.00212701562929981
0.196997635493148,-0.0416016950472892,-0.047630262939941,-0.00387573817369589
0.243565755962072,0.00268499581668113,-0.0331407610502923,-0.00205986277007087
0.217536862458955,-0.0375963953052338,-0.038221606250365,0.00092121138998234
0.129214957655728,-0.039690174859155,-0.025333838014631,0.00226128938857651
0.0402746969609251,0.0163623536659291,0.0108072907537863,0.00317327993169226
0.00128482242029546,0.0684482612232336,0.0282265091967511,0.00571741205083176
-0.00566184129157292,0.0927017230750896,0.0142770388192753,0.00879657291586027
-0.0239344865438107,0.096697822732854,-0.00039206100449427,0.0096030507895131
-0.0719663582576264,0.0765640682966147,0.000265514178997041,0.00702687006769022
-0.120466272028664,0.0341285035411956,0.015431593588311,0.00293454571655625
-0.140665201618072,-0.00257559929681168,0.0268724761206453,0.000638579029517685
-0.139213177517528,0.0168282487921089,0.0212721722024659,0.00110199490159445
-0.108124675693202,0.0597542155631729,0.012797961845532,0.00252042767072841
-0.0367624548725037,0.0623584917708678,0.0106680449185172,0.00328235916801166
0.0432100352287396,0.0594969089584469,0.00764364148947937,0.00298401587761998
0.102533831579326,0.0747108517417277,-0.00386317749263298,0.00163825374099155
0.146048180277909,0.0203836486743488,-0.0274890384666743,-0.000903793306039369
0.169592637135385,-0.109808857679829,-0.0448214572095891,-0.0041723812866464
0.156922394727258,-0.144065729705641,-0.0307183231246956,-0.00619687087166412
0.108629110446935,-0.0536437077484098,-0.00306658654309366,-0.00487088846458481
0.04173190261118,-0.00420300953606748,0.00640826574296764,-0.000848019532746517
0.00907504096814984,-0.0547672583700361,-0.00583121321347704,0.00221325557440935
0.0329375445024905,-0.120219926137995,-0.0326018413801908,0.00209428037087831
0.0621148793234664,-0.131957261302869,-0.0590723205126171,0.000198131186963785
0.0600936329970369,-0.0711738718807438,-0.0532907884533953,-0.00186399094255037
0.0181673029776124,0.0324707445522561,-0.015229016574865,-0.00330445230003893
-0.0630488694427098,0.0995176980021253,0.0140089726427078,-0.00280718398450168
-0.133180580348831,0.13496878004483,0.0251596052782813,-8.43861105041463e-05
-0.130235732349043,0.174473340798356,0.0234748997086059,0.00359741281408871
-0.0700452502360902,0.175655511320827,-0.00095791321137146,0.00626202957955944
0.0055022607131214,0.104370242901171,-0.0277788639010448,0.00579446127128395
0.0913042931962335,-0.0507993471631089,-0.0432410327436162,0.00215889209260627
0.1575096794539,-0.201162241445577,-0.0421016155200196,-0.00294876773208436
0.123420051806375,-0.20005939664318,-0.0032768058941673,-0.00784191267133135
-0.0271112555113692,-0.0978061893377622,0.0374302930600244,-0.0103594265629494
-0.146801930138488,-0.0300138026589163,0.0394005970689085,-0.00974865687653344
-0.121577371669595,0.00660367415807815,0.0308432178789343,-0.00757722046830281
-0.0318449885703245,0.0741473691503617,0.0415030294469293,-0.00489814074384756
0.0396399428637541,0.185596835158306,0.0641789207207411,-0.00130935532295652
0.0926149142152447,0.251271003920976,0.0773158512308726,0.00324316375816939
0.108600569275302,0.171138526217257,0.0611868587655031,0.00679377878426008
0.0746828601081889,-0.0123273580949249,0.0224729941737074,0.00629124836984533
0.0448134182851192,-0.185024758602252,-0.0112324571640667,0.00069802840952415
0.071555467231331,-0.280126176508806,-0.0423707901171885,-0.00781583703785495
0.114219027746955,-0.267773909831912,-0.0742780369526371,-0.0161512840690205
0.105172678475841,-0.151819792859155,-0.0785485100929244,-0.0211219309837486
0.0461945357007989,-0.0182043564638677,-0.0551772512356424,-0.0192580116635379
-0.0230343733056718,0.0511164837827548,-0.0296820676727549,-0.0105831632750229
-0.0604943872604322,0.0596010072045041,-0.008780755470829,-2.05626475641985e-05
-0.0347239985138216,0.0459269974246842,0.00884223519215241,0.00744584469925666
0.0236755598042042,0.0554568613088015,0.0250846785903684,0.0111579142326555
0.0341253016530314,0.0892443681197547,0.0442150893527615,0.0137062377958848
-0.0348602730198815,0.0898133735396943,0.0619632619788113,0.0156146960884556
-0.117466094841476,0.0485653217893702,0.0709547361670067,0.0143407490786228
-0.139017587170524,0.0402134854933299,0.0750763616880235,0.00862869888271574
-0.112606267703437,0.0788923696282718,0.0802584338453641,0.000237938436006311
-0.0981563758405653,0.0961967849884061,0.0918123062530144,-0.00796952668157203
-0.129314406379415,0.0617892135523235,0.0961017144045935,-0.0134613703126098
-0.170838541780735,0.0104038415449534,0.0648164399386703,-0.0142370128036383
-0.117986901476943,-0.034110306603811,-0.007479608213286,-0.0101613785640017
0.0797412706338601,-0.141763266735364,-0.106021813824443,-0.00472990143230654
0.263527273167517,-0.314977100214787,-0.185843919499489,-0.00256489766686047
0.258260530141532,-0.384607556432956,-0.194725016211091,-0.00328454555208328
0.148561721421777,-0.255414405497917,-0.132284007096248,-0.00216550690545004
0.0682024685894599,-0.0471928997535307,-0.0447998834788545,0.00261821785068304
0.024985802241497,0.104180541741706,0.0160759230941514,0.00831373620485384
-0.00880028130640849,0.219289525370012,0.0416509632100739,0.0119334138104928
-0.0660374878235875,0.287773312912567,0.0540283550204205,0.0131315233352093
-0.130723097540207,0.217345055255813,0.058365758986342,0.0129870143800479
-0.152898303771322,0.097954935868848,0.0644155638455123,0.0118800226860508
-0.177876886047858,0.0619029145006549,0.0730154846421935,0.0097333738678589
-0.232993766758856,0.0456615864849083,0.0657130719295759,0.00689740936110968
-0.206844335276348,-0.0315023372547911,0.0454716723157155,0.00347811486175692
-0.0815720272199389,-0.115161865547964,0.032252509868398,-0.00101164750774144
0.0051251390278062,-0.113755541988229,0.0285416562021104,-0.00532276596259703
-0.0469473855982022,-0.0608920386491796,0.0143374662737258,-0.00669410173029236
-0.1694098831252,-0.0624994817715759,-0.0138435869862511,-0.00533982574894036
-0.188157700904172,-0.121763691862309,-0.0292725943367745,-0.0041255087411827
-0.0636311188282607,-0.147611338489198,-0.0219278345988863,-0.00452236891088442
0.0936177149264906,-0.0794277991173728,-0.0119111057648867,-0.00631073094001957
0.189165449892965,0.0396833244478627,-0.0020469203868019,-0.00741305930925374
0.216238250661072,0.103582963312336,0.00518939189911196,-0.00413129936319661
0.171952725210505,0.0873956731308823,0.00806215358117673,0.00391712596985667
0.0323520139483916,0.080219151818745,0.0158205364963243,0.013116117881747
-0.118402084469574,0.126113245806968,0.0107213812867032,0.0197077122362466
-0.171801535603011,0.104805402313476,-0.0308345905477404,0.0209405955001732
-0.120670431345351,-0.0571519003762019,-0.0913909740131382,0.0156663868327014
-0.0320517918477074,-0.175387958475085,-0.124064630264554,0.00435909397059792
0.0138171647449172,-0.11922227562007,-0.101789809551145,-0.00925840940975823
0.00814142697481853,-0.0249023616199518,-0.0350837856763905,-0.0169419578473228
-0.00230548346848707,-0.049374760352829,0.0231558344056293,-0.0130850006577625
0.0196276834738039,-0.126831675662187,0.041014036318734,-0.00172108297522629
0.0731629761391986,-0.0947490245806546,0.0414811221874585,0.00915246054471137
0.123857742205628,-0.0148475523944468,0.0262582754449532,0.015034608196139
0.149488637218764,0.00632159577353861,-0.00549924071902527,0.0143973847442742
0.140641803852212,0.0380056216413328,-0.0262289141336162,0.00849759049553697
0.108774913270719,0.0831094617047433,-0.0329319573748262,0.00146044344335849
0.0813887875889108,0.0466796986316156,-0.0441824012285803,-0.00338646594631378
0.0261878219986536,-0.0531902612896519,-0.0616016120227393,-0.00570361782598673
-0.0689929851068415,-0.0922632597260474,-0.0656624710318302,-0.00742759181243956
-0.118168914066353,-0.0376247193168855,-0.0448703166358828,-0.0108418776450449
-0.0814991498088764,0.0230091298565494,-0.0143881555865401,-0.0146976662448996
-0.014775295959058,0.0386718441009782,0.0049804796088122,-0.0144909448486186
0.0274682243060965,0.0162801561855625,0.00555638475323533,-0.00906895655438992
0.0337411604651688,-0.0377114992939668,-0.00403239826495892,-0.00216971291986983
0.0318516063723461,-0.104482902316552,-0.0115420211579997,0.00239686930254701
0.0404641614174226,-0.127245137872061,-0.0145735389548847,0.00375723903475827
0.0521011275031649,-0.09917278017423,-0.0229143219730637,0.00419582011589636
