-0.0199957130972543,-0.065176593297156,-0.0024259111052691,0.00761006594114059
-0.00765710956627911,-0.0697277892002363,-0.00285108601596386,0.00574749812100248
0.00401493543777072,-0.0477514021855752,0.0103581889852427,0.00334982125824192
0.012775199263173,-0.0296487939011651,0.0230831726144256,0.000898830014834931
0.0152877570833997,-0.0262700604622496,0.0223087189205051,-0.000616222499400136
0.007712118586364,-0.0329726277838182,0.0127323052446292,-0.00101134079005696
-0.0047076909281146,-0.0449960015048499,0.00228472736247321,-0.000487144903495706
-0.0162142208637136,-0.0560548748031879,-0.00787944362669023,0.000649284058059259
-0.0237544400668035,-0.0523990139156447,-0.016284477368145,0.00121916937526615
-0.024918460761365,-0.0274125330455497,-0.0156345437922582,0.000266924932943587
-0.0195820663692697,0.00460609372985646,-0.000948525551467537,-0.000628302884258467
-0.00830610484618494,0.0252586227277985,0.0159559739090243,0.00156970196588836
-0.00320523620347959,0.0255207368896671,0.0172392158536434,0.00628112202501921
-0.002767510537202,0.0204358645035705,0.00827696215479149,0.00871521359161407
0.0161433787491086,0.0326443030265268,0.00152423939607157,0.00648804065902121
0.0425046822980239,0.0501751171430808,-0.00446161272008585,0.00213454313875608
0.0476039906512374,0.0554803900615693,-0.014400393653539,-0.00201177508868131
0.0373796587253267,0.0551342299609442,-0.023991779683623,-0.00610067918140337
0.0284118782084813,0.056088089590149,-0.0241556662908274,-0.00965399013359112
0.0220530924793441,0.0574447544146303,-0.0177802671431377,-0.0103724217246149
0.0170207580180775,0.0591440673704307,-0.0130705601276181,-0.00735862222553785
0.0175691407715756,0.0658359418190973,-0.010311731924256,-0.00298613682815095
0.0205993704747077,0.0755604222692439,-0.00823194590398145,4.13067853221212e-05
0.016792089888746,0.0762187709567147,-0.00547844617739974,0.00157466001762909
0.0130511363341339,0.0500462704478636,-0.00271890651318925,0.00285941242662146
0.019823013166868,-0.00262665121244458,-0.00308317653042149,0.00327450977501107
0.0278903163585872,-0.0424115727240216,-0.00205261916022231,0.00150226903710233
0.0224569861980408,-0.0518454649351736,0.0014804299731801,-0.000888839264190758
0.00772368096287661,-0.0519734480557379,0.00123999937289542,-0.00146992620658062
-0.00297335062676542,-0.0493437532864225,-0.00221450111945611,-0.000481806242382294
-0.00982143753108888,-0.038397447170817,-0.00529010632183108,0.000283234256055978
-0.0161865645776832,-0.0223324393545793,-0.00566220315470301,0.000127534503212402
-0.0144527655075097,-0.00497620828410568,-0.00226950695398871,-0.000354999023046174
-0.00332422153390073,0.0164403132762413,0.000793943008271637,-0.000395757774396213
0.00319613489527276,0.0281622127636258,-0.00359364846280451,3.2894589799506e-05
-0.000772525662039219,0.0156258994747963,-0.0146985630750365,0.000166858399412462
-0.0075208329843389,-0.00492618797790795,-0.0252183298146212,-0.000609745879682243
-0.00980062683119305,-0.00973217343684414,-0.0281094503229552,-0.00234942040192282
-0.00513526508821693,0.00382073655997403,-0.020002458084254,-0.00411953525231683
0.00330487779571454,0.0179230738466001,-0.00886066995580313,-0.00424414980027574
0.00406204458917361,0.018877967783337,-0.00131238079958641,-0.00207488651899164
-0.00822486837047157,0.0113625630372184,0.00341119669991369,0.00129369154011583
-0.0177268506674385,0.0100264630409697,0.00696298890155977,0.00384831881272021
-0.0110693435659165,0.0138515597153632,0.00917407702461074,0.00419760218868548
-0.000445556919378608,0.0108893663165402,0.00605798643407865,0.00219884819224769
0.000248547097453696,0.009120633525826,0.00218789889826275,-0.0014092712878038
-0.00433403987337604,0.0175369403404591,0.00400333114004818,-0.00471204758858507
-0.00841959964115125,0.0220488989386099,0.00476879934694115,-0.0057775085053163
-0.00989233777459379,0.0110246678312362,-0.00233183612507499,-0.00445964883174394
-0.0074005348359961,-0.00821817735190302,-0.0139436800121961,-0.00176944627503124
-0.00747504643165543,-0.021308504969948,-0.0214224118812419,0.00112586054124326
-0.0106538268213503,-0.00600997131534986,-0.0152067799576356,0.00353539214851552
-0.00868732381058518,0.0297681364587633,0.0010669367283096,0.00544154173032485
-0.00201146104483287,0.0318550994663317,0.00755998822279563,0.00679345385680981
0.0053082514273917,-0.00752641189290994,0.000240666256349028,0.00762790321205434
0.00836620417221931,-0.0419546748123325,-0.00608207480460906,0.00741679950226879
0.00430538695340863,-0.0533413508100061,-0.00635402342780403,0.00481031183585821
0.00200884702834289,-0.0484071228594776,-0.00284740536819645,0.000255905086586765
0.00753124904557864,-0.0348811345338216,0.000755436029334635,-0.00350849269812644
0.0170967546860131,-0.0118103434719845,-0.00159557142348398,-0.00505536877049007
0.0244289039862482,0.0244503653614184,-0.00667296767645328,-0.00509108426443716
0.0210692776467297,0.0448393718071192,-0.00626239808483575,-0.00382422087932472
0.00789663797026335,0.0235066540750833,-0.00567188298110161,-0.000862860350087242
-0.00437594237720826,-0.020084902021841,-0.0124094260902954,0.0029081218024464
-0.0151766811277397,-0.0508007364851954,-0.0176952418921673,0.00534971064524224
-0.0272746068658515,-0.0526158371851114,-0.0129431574103366,0.00547227906150381
-0.0311953098410283,-0.0411991459623199,-0.00366568372696711,0.00417922764800473
-0.0237851322351191,-0.0380065574031613,0.0017194186767903,0.00266915708397749
-0.0161204439817895,-0.047448819770107,0.000604313474198502,0.00164583327415373
-0.0125375714692105,-0.0654480010318196,-0.00563102297599081,0.000960220361367345
-0.00944939952335335,-0.0797799806793063,-0.012477103999233,-0.000286123256232518
-0.00755311256536389,-0.0783424837289772,-0.0149828487667691,-0.00239313105974843
-0.00733582581863728,-0.0682640487959109,-0.0131376555738799,-0.00384368980728947
-0.00650463761085276,-0.0654332426139871,-0.010269018004752,-0.00255439840390454
-0.00290380581831421,-0.0704564283226013,-0.00763150266353809,0.00150924290257121
0.00760226266440653,-0.0660310799560815,-0.00380895749583989,0.00618522513098991
0.020490330266807,-0.0355229330419855,0.00081618883029794,0.00898682620350995
0.0267038779554172,0.0165120955465633,0.00198830726479141,0.00921424837948747
0.0287972236243148,0.0679525805607187,-0.00143068426210245,0.00830083524744029
0.0288715317250983,0.107694583890368,-0.006675140771566,0.006968045468647
0.0236958971642039,0.13917795422278,-0.00718667394962279,0.00383193843236623
0.0167416144335535,0.137077016093603,0.00398005044459067,-0.00218619523346371
0.0120000633339651,0.072497429006873,0.0202315946934526,-0.0100993805308642
0.00917973838082251,-0.00713025706856452,0.0293452033450118,-0.0173957733998138
0.00806867895803993,-0.0434921688719724,0.0260705133875477,-0.02126631455638
0.00457864553991011,-0.053044723247161,0.0098377154054395,-0.0209177135060597
-0.00275841440380307,-0.0630161280910444,-0.00821382034832595,-0.018375478143433
-0.00730269617349354,-0.0635010446699795,-0.00833840186511893,-0.0151542417837456
-0.00920598027832166,-0.0480632829655106,0.00919777864126767,-0.0101650963935196
-0.0161238979708767,-0.0326682867073941,0.0219139198153592,-0.00259555625902828
-0.0287369518363944,-0.0245263489692409,0.0222081834234489,0.00555758512140593
-0.0349535105904992,-0.0121247685246244,0.022753831487676,0.0118587323827619
-0.0255401261223689,0.0114739649585427,0.0277996266768809,0.0159223487208617
-0.0136086270990169,0.0400616860569572,0.0301671390561147,0.0179252537100167
-0.00724411239920008,0.0678273628217316,0.027084143831228,0.0172714719671751
0.00361443698118087,0.0861690354806287,0.0239798434380516,0.0146283447728963
0.0183898339484183,0.0839426277903297,0.0263787689187581,0.0133936251849625
0.0277827082124512,0.0639804135258651,0.0315591731342602,0.0155427716382165
0.0280128600609698,0.0396117384233369,0.0304285787167721,0.0173090934801716
0.0204483142122502,0.0297638582698631,0.0219072966302471,0.0134788389711679
0.0127954252732001,0.0399057717912094,0.0127401123383462,0.00292297830362161
0.0115289255063623,0.0477756358131188,0.00512309618365219,-0.0121727924116722
0.0131173106731284,0.0361409684315486,0.00151157323696567,-0.0275415365182049
0.0156554107440005,0.0151614176215235,0.00344439227934917,-0.037678000081274
0.0244094905796231,-0.000366620182969887,0.00330560875295043,-0.0383148548212686
0.0348255165115024,-0.00366771261060269,-0.00246742818644799,-0.0295671997486123
0.0306300751456378,0.0103424956294494,-0.00530891715618866,-0.016182436038176
0.00947921923318359,0.035026373693515,0.00219174231798809,-0.00296248440919421
-0.0106524544775975,0.0533284760064038,0.0145708359165188,0.00798690965837158
-0.0154355771477831,0.0559197529977833,0.0227453530084608,0.0155168874126374
-0.00822231813911935,0.0519323227034902,0.0246350307062564,0.0193003807134216
-0.00266352486770288,0.0552685477458749,0.0220493350499596,0.021057258704521
-0.00467555097363626,0.0601522070594609,0.0197038689926121,0.0229678617733527
-0.00741022563621989,0.053171887414299,0.0183320350304377,0.0252188444623353
-0.00461824610974912,0.0371351901514207,0.0129308381831949,0.0258022966095077
0.00335844963104445,0.028494071754899,0.00603679330563392,0.0230053915760112
0.0123701617478733,0.0345327237025271,0.00647194938123364,0.0174965460184202
0.0182030106445066,0.0363315483549054,0.0119132408797908,0.0106533494053396
0.0191828281117485,0.018876892786457,0.00902429200683619,0.00226203027824639
0.0148932970750185,-0.00179615037421914,-0.00697349639955091,-0.00901036661500525
0.00616688422605847,-0.0128773849852905,-0.0252344835396423,-0.0233428059553836
0.00246745513653255,-0.0115096422116557,-0.0297935218877844,-0.0360614041717748
0.0144236724461981,0.0054675358014417,-0.0187034480490795,-0.0388930512969121
0.0325774806673062,0.0176617544047297,-0.00960592665397311,-0.028443243207075
0.0364530218402139,0.00942709083026685,-0.012974023332157,-0.0103705795596343
0.0224103786761914,-0.00394223724321268,-0.0197049164718994,0.00580461226900112
0.00215804107324749,-0.0107232666276919,-0.0214461880426165,0.0143866002007407
-0.0134861398858725,-0.0129894492687322,-0.0201231450834405,0.0166838099190348
-0.0188970076694076,-0.0138798708279049,-0.0201935452429576,0.0178930987487306
-0.0166753692713847,-0.0109642272211064,-0.020087717180553,0.0207784423326426
-0.0132888448275564,-0.00107578521453449,-0.0147316312074565,0.0234412234890755
-0.00895921798854879,0.00797996062954714,-0.0080978505187742,0.0236843394547193
-0.00148382274489879,0.00731251081172093,-0.00823866112363913,0.0209045619472186
0.00617535243979284,0.00109382189783783,-0.010036936272056,0.0146313149625823
0.00559668742430182,-0.00241568149500676,-0.00807377668952021,0.00622583844166886
-0.002087065501135,-0.00339299274778192,-0.00576435428507506,-0.000822089379326683
0.00602131569948509,-0.00486326610087388,-0.0015675269095607,-0.00467071417233787
0.0354969305331994,-0.00773333946509972,0.00167250445349425,-0.00701047276342059
0.0496959046322582,-0.0103842559897227,-0.00146074885864127,-0.0112304374683724
0.0276497280912339,-0.00814147864775367,-0.0063279247850831,-0.0179883031719812
0.0014893408067928,-0.00219262667297367,-0.00731258732210689,-0.0228425774377821
0.00112831783120844,0.0022124221305013,-0.00328704978912187,-0.0212566474040155
0.0106411568872618,0.00485886290377044,0.00350235827040552,-0.0138519263232465
0.0074628188837182,0.00410256513653252,0.00842529403670809,-0.00482434859756269
-0.00252323745026786,0.000985686428210735,0.00997751095158641,0.00194694121299779
-0.0098735292711687,0.0004850493094193,0.0113247480074302,0.00396915033782288
-0.0161433795146312,0.00116510548447563,0.0129066263449199,0.000327755142812917
-0.0205797226967802,-0.000118168186890184,0.0119544148578331,-0.00672763356448382
-0.0214674257450173,-0.00512041431350487,0.00899284174075445,-0.012316092004806
-0.0192365746362898,-0.0148200909772028,0.00539989653775887,-0.0133028535030695
-0.0160928704016014,-0.0249569401475255,0.000594016727134952,-0.0111297987123376
-0.01167762579017,-0.0275050281839962,-0.00289465244565365,-0.0097171000876366
-0.00528679545210151,-0.0211925070524152,-0.00276414125385403,-0.010979127483017
-0.00169604883122328,-0.00903723436452363,0.00162833821480376,-0.0127567874067987
-0.000591043897849673,0.00220533283458943,0.00847830265641883,-0.0118336375743873
0.00431752015003258,0.00467386139360992,0.011747970015444,-0.00723230972065845
0.0130491740082418,0.00569392598169994,0.0128857699107474,0.000478994034093749
0.0165736113299654,0.00703490649871953,0.0147177654655086,0.00949613579677236
0.0113182122424675,0.000919732397881645,0.0126829211290104,0.0158746276379832
0.00490032052244743,-0.00592672087376324,0.00639866527587979,0.0164242768387984
-0.00134267986852096,-0.00852695825997827,0.000262106370310961,0.0115588251891027
-0.0119786792102662,-0.0134594230678095,-0.00421182423746455,0.00416471488335518
-0.0223548737400882,-0.0201375323484691,-0.00666643126697972,-0.00281764385956432
-0.024448179755677,-0.0210825706183047,-0.00702300159397717,-0.00780626180001436
-0.0193658165421779,-0.0202161122525582,-0.00752722205805691,-0.0104273517125097
-0.0124532621704547,-0.0180029356897255,-0.00755424271300234,-0.0108283228058383
-0.00666383111390639,-0.00136207352571402,-0.00232536643958541,-0.00981832543414923
-0.00736786039323325,0.0153949829058949,0.00877858964701653,-0.00907948533058005
-0.0137813622219903,-0.00013864688765065,0.0138448819041573,-0.00958190138483106
-0.0145663448596829,-0.0315872774902458,0.00675145547911921,-0.0108228898230391
-0.0114953624893213,-0.0332341861202342,0.00456762584026992,-0.0114826510739308
-0.00829274120826565,-0.00362755253626082,0.0180257485258832,-0.010204153850723
-0.000227620218113574,0.0219939150321376,0.0283400699464651,-0.00708553037608938
0.00450613979890835,0.0203194886268749,0.0152195109245091,-0.00348702465244905
0.00627975759493626,-0.00995046216856051,-0.0110855931787927,-0.000985026061978231
0.0101373268746162,-0.0481830346489609,-0.0280332232186908,-0.00107584704364095
0.00546027250038509,-0.0601471905577446,-0.0268682882459019,-0.00254405130095445
-0.00658944867274193,-0.0366111278027044,-0.0122731360463586,-0.0010591425459147
-0.00864868250617487,-0.00624919090786283,0.00319905253439323,0.0055042147466844
0.000786984626874643,0.00279117073574816,0.00901171269658978,0.0144188921250859
-3.75234608622045e-05,-0.00943725180446082,0.00290279305868789,0.0211402182083838
-0.0187697907110605,-0.0280715133130946,-0.00729230197524393,0.0228424921781274
-0.0358756390495688,-0.0414547502694548,-0.0120529573535507,0.0193931366448655
-0.0365740742645151,-0.0428526842270757,-0.0110330243594136,0.0127498640831213
-0.0216553822748133,-0.0329683292967903,-0.00670110607108653,0.00572332897050559
0.00122182120327572,-0.0192036834759322,0.000414362890004589,4.09632873226394e-05
0.0184990147347678,0.00180214999618177,0.00985259739656641,-0.00382299360053202
0.0211040983909215,0.0298834833647576,0.0207340522435756,-0.00514957549567613
0.0111290544055266,0.0412828006959429,0.0288282681710851,-0.00368869420472202
-0.00444955889142498,0.0321108939763842,0.0287553001415805,-0.000941674203905841
-0.0173763443029851,0.0252192121592141,0.0196066038132913,0.00107539013843518
-0.0294125984871849,0.0251468560399511,0.00439328648561492,0.00138932716424539
-0.0507030895228656,0.0282235917516063,-0.00763249698852692,0.000230165182070825
-0.0747611833576814,0.0269610349958239,-0.010764150949836,-0.000521189449856277
-0.0811493679163436,0.00824955768598221,-0.0139218175024451,0.00151210362095626
-0.0593987262246261,-0.0124603199456614,-0.0219551992442713,0.00564685441740252
-0.0213569647663286,-0.00985426471723836,-0.0251183014392722,0.00896704820588165
0.00719992243074587,0.00583798780721728,-0.0173135783926775,0.0101671275315278
0.0140707688553529,0.00887926284545468,-0.00543495905346527,0.0100532053344951
0.00588400329516974,0.00545951454411871,0.00544812929918006,0.00944584596747379
-0.00946682839347841,0.0081199883779166,0.0115574583933043,0.00813789167701822
-0.0212686185765523,0.000754512203400129,0.00754141749372349,0.00617920750042842
-0.0180456953215553,-0.0122577872633061,0.00152723134512445,0.00450025966751972
-0.00366541531608072,-0.00477977925417472,0.0014326237264798,0.00366965838376702
0.0100904099553529,0.00262551470439698,0.00293252636288213,0.00326433088588549
0.0208173232768776,-0.0223049312814102,0.00542321303884582,0.00238681514978358
0.033281509293687,-0.0474800791133802,0.0119282117834,2.77368326514413e-05
0.0477825576380132,-0.0286424231235981,0.0204571575199418,-0.0034187581715338
0.0538681514644666,0.0109385103162253,0.0216421303951695,-0.00545562766639321
0.0416922364139648,0.0248341548800516,0.011185393009976,-0.00463354639235065
0.019411913682656,0.0199931071935846,0.00250956421450493,-0.00234020040957601
0.00162244932267486,0.0187728848407514,0.00382894363539508,-0.000448859235473432
-0.0112463940818332,0.00828570600270336,0.00356144824053527,-0.000319192163357919
-0.0259386841171802,-0.0136285129507248,-0.00606379378463073,-0.00270954093208836
-0.0360073348485163,-0.0185907536520752,-0.0146816342163306,-0.00639672653883763
-0.0328258380809607,-0.00155432602163707,-0.0147258229661258,-0.00911456769872312
-0.0243936363851845,0.0142833844814983,-0.00969123082281601,-0.00979074096237176
-0.0215231895867568,0.0287933560124785,-3.17445181644595e-05,-0.00849144566943988
-0.0204826386497291,0.053618993278531,0.0112141364227283,-0.00505402877890096
-0.0151606016420383,0.0664909647940377,0.0134057079596768,8.76955709580469e-05
-0.0108514692109252,0.0345364818046888,0.00225594662902693,0.0046613183902753
-0.00527124005549871,-0.0237666024370385,-0.00906812176253924,0.00639728403643779
0.000606895252129114,-0.0604006659331448,-0.0076769561313148,0.00531079315480441
-0.00425976494452063,-0.0706225108379946,0.000253413654318035,0.00379207524811304
-0.0103657566190037,-0.0723122918044468,0.00323284587974032,0.00433548712295627
-0.00563462591681235,-0.0668245690394323,-0.000172667572555785,0.00648294955954442
0.00409122207064896,-0.0624210407598262,-0.00399738199728097,0.00714305720472132
0.0124226454642411,-0.0689883520144318,-0.00638843711472949,0.00483160922681971
0.0186884565670072,-0.0688647606118871,-0.00811028837830723,0.00123726366978641
0.0233823057922877,-0.0391760093104409,-0.0078068973783554,-0.00184998097986204
0.027976750132051,0.00594560175995849,-0.0084744394811935,-0.00410796241672969
0.0320953704905975,0.0257487920350776,-0.012963927474618,-0.00633405869052859
0.035862168865202,0.00838063829209985,-0.0164755675057918,-0.00941913347704905
0.0405174885399516,-0.0117686350378056,-0.0133160782785097,-0.0121355539946855
0.0440246273270039,-0.0103487179520364,-0.00662016009084611,-0.0114689272682822
0.0426368749630581,-0.00509861615073193,-0.00322748598078442,-0.00607758968959271
0.0323882654728579,-0.00847407269407942,-0.00321074124407845,0.00120155081950977
0.015577839176931,-0.012957345457192,-0.00112819299833843,0.00558660173220454
0.000724452331612238,-0.0202369913063098,0.00579050609281504,0.00567228104700282
-0.00525928644860073,-0.0327737276642014,0.0121236876160328,0.00400088628246477
-0.000511658067372932,-0.048180517150127,0.0126102272798275,0.00267128274424641
0.00944798013137015,-0.0622122760924809,0.00930022047965624,0.00148594442949743
0.0154954595726928,-0.0616684245745506,0.00446117422236277,-0.000622732970612332
0.0164013072679666,-0.0372254660177174,-0.000870036324583978,-0.00347951751686947
0.0147151187048887,-0.00461049952514725,-0.0052773796879922,-0.00531550739989576
0.00794551379565783,0.00451665864239988,-0.0109749025569392,-0.00517564918960086
-0.00546504774071216,-0.014103577649052,-0.0195136591900578,-0.00378030301511451
-0.0192501457044805,-0.0328981079849349,-0.0259700014027775,-0.00189090041372894
-0.0245521889851041,-0.0334014337018662,-0.0262323347912666,-0.000125733034407571
-0.0211634433628326,-0.00723882836938217,-0.013865455376078,0.000132456205734661
-0.0124527924359987,0.0393031044992202,0.0191923439340565,-0.00103388623291523
-0.00100121477592352,0.0672188371934534,0.046957990733165,-0.000448718917632384
0.00952733517577854,0.0498894594041456,0.0323712552046075,0.00326297833363496
0.0186964906890208,0.0143975855829685,-0.00828823543881133,0.00670172981803594
0.0276784993646593,0.0080175416956239,-0.0325325650699229,0.00693237878481991
0.0325415194667872,0.0353469288087385,-0.0280091576850542,0.00541593397374518
0.0286405740552813,0.0603308617015629,-0.0116994237475816,0.00536564874025437
0.0219156891139124,0.0668213019778749,-0.000671052455875662,0.00715377573539365
0.0178172336402278,0.0696441676266605,0.00413558738506428,0.00722280970637125
0.0128068857714884,0.0674258638618038,0.00747246091301483,0.00242870077823929
0.00817873080930886,0.0394171661524343,0.00736564446453753,-0.00574443453737641
0.00646649685038856,-0.00755318988384367,0.00172953841420457,-0.0124316689485655
0.00436737737058061,-0.0416404282915845,-0.00342936883555955,-0.0141396078189201
0.000751989364515815,-0.0495173822822019,-0.00525025622606623,-0.0113109288496123
-0.00448028117259974,-0.0409633421633985,-0.00835450605851877,-0.00669780059650801
-0.0117816359150721,-0.0259226755552391,-0.0117400215218028,-0.00259787129865509
-0.0167666197856555,-0.00816343689147743,-0.0122380098653472,0.000474988083023766
-0.0140087689773628,0.00556506918316028,-0.0143674496521361,0.00358465126779505
-0.0107162779004063,0.011375666096279,-0.020014826846405,0.00764066777757432
-0.0171397347286362,0.0229491651374502,-0.0178109758118723,0.0115218581570057
-0.0232425039697469,0.0432670530123672,-0.00196759431107514,0.0128297918833982
-0.0162288180670511,0.0578789955262476,0.0158581819587089,0.00998428054637001
-0.000421039350166734,0.0752004000746389,0.028740481293644,0.00381401795709248
0.0130281184476403,0.0935304370549624,0.035103965127147,-0.0021127010449756
0.019322834081883,0.0855700674916375,0.0310052321678385,-0.00405621037742055
0.0209865215046674,0.0635793358748577,0.0238748262482095,-0.00162793031074528
0.0176834008847489,0.048746417299848,0.0161959356131849,0.0014109346088924
0.00747167225478381,0.0324615354969833,0.00343009327049375,0.000499215894347466
-0.00362905561264212,0.0176552294785225,-0.00760235675287089,-0.00475877167650284
-0.00738127131749326,0.00900456332385328,-0.0156986740137927,-0.0101853954516094
-0.00506711149173954,0.00369093076372536,-0.0209095332110851,-0.011333804303983
-0.00318018290377057,0.00491027400638687,-0.0170627254841714,-0.00733570085363977
-0.00214974356044673,0.00923097006808742,-0.00845523042495033,-0.00100597153586352
-0.000180702826838934,0.0135596716283124,0.000414259638870281,0.00489545332888494
-0.00262145482648748,0.0176772514409597,0.0101344789794007,0.00934714888907695
-0.0125883910928592,0.0184210014335953,0.0158103269977646,0.0117567709563795
-0.0222581270066216,0.0163708608045422,0.0157665342841778,0.0121725694732425
-0.0237294981282493,0.0107300353789096,0.0135807447447133,0.0111005245514847
-0.0188038498443003,0.00241392432516503,0.0125804716809486,0.00855179176885583
-0.0152392985589018,-0.00145702434016409,0.0142814648619037,0.0047853840340035
-0.0129148155699905,0.00279665524995347,0.0182475113251982,0.000819854836975305
-0.00819353070138234,0.00926442258411727,0.0206430035975742,-0.00238630921212665
-0.00498616660521621,0.00799281287064486,0.0181579715409853,-0.00508916181157018
-0.00223190354239408,0.000844856756910335,0.0166695278321422,-0.0079473166832639
0.00412724944186446,-0.00237072666231494,0.0198694849561745,-0.0094582372025021
0.00912468020051205,-0.000874687329190766,0.0227899073472307,-0.00756715984981014
0.00776394551202582,0.00136165031051901,0.0220656928326332,-0.00329841015538297
0.0008568496529646,-0.0048344136241358,0.0169288511798076,0.000224581008472394
-0.00666356984667638,-0.0147528160678891,0.0095532610050355,0.00120472106286943
-0.00965944109267815,-0.0109962025180884,0.00548538385400124,2.35196992374289e-05
-0.0100061787145549,-0.00495861399602374,0.00425018621081458,-0.00230714500177846
-0.0145444036267828,-0.0146875153789114,-0.00128485812944262,-0.00476885646762915
-0.0254721472857834,-0.0299520202722296,-0.00941205776609523,-0.00630481608980136
-0.0367575855476804,-0.0327958544228522,-0.0114241270907337,-0.00664240374398496
-0.0469427876830015,-0.0289152050891949,-0.0095960378749281,-0.00608633984143026
-0.0546345715915268,-0.029533817042062,-0.0111122329371275,-0.00478757834201857
-0.0504640473358887,-0.0290659982657229,-0.0135292024338011,-0.00335160143445649
-0.0354377599868742,-0.0222986134043984,-0.0135706738791776,-0.00237657153552361
-0.0204026206820011,-0.0154622934066022,-0.0159327033037102,-0.000630877138661109
-0.0121057534281846,-0.0180003192447904,-0.0212953805603748,0.00351165208777671
-0.00962842521684185,-0.0227390120833764,-0.0228765860494107,0.00833311383029142
-0.00604998125082411,-0.00965966571051992,-0.0167171954426782,0.00960627345260448
0.00276041318513454,0.0208551763696799,-0.001750130820074,0.00484140959020256
0.00792194571073807,0.0373342059620816,0.0135623065705376,-0.0043502367570463
-0.000518525141655603,0.0240726852864426,0.0139948331121459,-0.0135284385776444
-0.00567560153656776,0.00561266313991291,0.00418354480819958,-0.0187450801268063
0.00944227578033483,-0.00477575050050193,-0.000956133384815754,-0.0167819736951277
0.0278710400438208,-0.0144986132209578,0.000763107597483256,-0.00642189837539926
0.0297273654207173,-0.0129909146038193,0.00377417061898888,0.00695629492891937
0.015531087083131,0.00174643263285799,0.00355594113908505,0.0156074689627682
0.00106727617278614,0.00403384007039249,-0.00246492014278821,0.0185502931652054
-0.00370780082465338,-0.0102408877817993,-0.0106271528930571,0.02048383230702
-0.00425899622480191,-0.0234249317575784,-0.0117771198308491,0.0223639626730108
-0.00441917947485344,-0.0286412555808834,-0.0070866562263333,0.019133593633441
-0.0066360645791574,-0.0247419416741806,-0.00425835822830378,0.0092158873109171
-0.017138652450916,-0.0132568003264319,-0.00452446737504231,-0.00180913543332886
-0.0331002753989741,-0.00635069458230426,-0.00849701759487378,-0.00862461057787309
-0.0421602528074707,-0.0131730504058135,-0.0164367431936843,-0.0106494508303634
-0.0421044316363793,-0.0209501112275498,-0.022258245076579,-0.009608579335935
-0.0348471355624257,-0.0157618330940492,-0.0217008726997702,-0.00705002352997634
-0.0203173282434248,-0.0049349675383858,-0.0160214257901819,-0.00488560405079663
-0.00807004941523914,1.1510594053625e-05,-0.00722302091400352,-0.00436633551508802
-0.00486355142736484,0.000443394162478773,-0.00157070961305744,-0.00404805041703409
-0.00570778839422573,-6.73321139073087e-05,-0.00313528728773611,-0.00245238739631717
-0.00456318728836171,-0.00114011384297657,-0.0078723681332586,-0.000326133553844041
-0.00262158147245268,-0.00310672177505301,-0.0109683909649204,0.00175011336193188
-0.00454424168601243,-0.0032461727766257,-0.00765316779315187,0.00487320516141996
-0.00386753109751553,0.000996153426920564,4.45469750560896e-05,0.0102119230950818
0.0115977029364102,-0.000800641675210642,0.0038975158925699,0.0166854499305831
0.0365776403216835,-0.00727299784223371,0.00308121512276129,0.0203406573640723
0.0517878817696447,-0.00535254023776264,0.00304273783251879,0.0177712911510611
0.0480633010256996,-0.00397039692154048,0.00491742682127899,0.0120155863146448
0.0327041190307538,-0.0121196483826164,0.00548363947973164,0.0104762060394109
0.0194367380321482,-0.0199428265475268,0.00583690158954369,0.014462759208862
0.0172263311500439,-0.0234529487290127,0.00703535430838266,0.017503383549265
0.0226170822984749,-0.0259152383099892,0.00308496116192532,0.0154478178364597
0.0232079042606454,-0.00817954001268881,-0.0036579937361381,0.00999518487595891
0.0121676597098473,0.0435896672058554,-0.000869130433431216,0.00243316078586854
-0.00128486008654691,0.0895192385125365,0.00922768605615207,-0.0073079826861921
-0.00171924480152317,0.096845496623074,0.019063440407328,-0.0174044015356441
0.00924835561797298,0.0776485552359356,0.0295765711738038,-0.0238791082126402
0.00759471574757053,0.0303114458863258,0.0292908915194571,-0.0239424007741562
-0.0113660902972307,-0.0257365759607185,0.0153846296338965,-0.0197403988809749
-0.0230597062752315,-0.0414987366484329,0.00673506242709558,-0.0150393604410091
-0.023512793412913,-0.0282388960539042,0.00308146821152892,-0.0108156529745542
-0.0229627463859383,-0.0155033187603833,0.000612781337951578,-0.00695243771386269
-0.0194455710971889,0.00511268940089376,0.00846227524141953,-0.00288002295698443
-0.0146688297386614,0.0232478803985037,0.0164064847511827,0.00190631831311546
-0.0132516230414562,0.0233042760380235,0.0102039619759036,0.00531302044900245
-0.00837634421323758,0.0201327609157409,-0.000824183368452891,0.0051232004808604
0.00350284407625447,0.0160997431505443,-0.00250568414500983,0.00305834422401234
0.0134496145542944,0.00690344663879627,0.0046334176673483,0.00237208724530681
0.0157240812826021,-0.00558969429757263,0.0100189081352825,0.00287528588217596
0.0105743570417756,-0.0238784130056539,0.00859069649149728,0.00204895283745635
-0.00197338659416843,-0.0367002444117395,0.00542543877325307,-0.00129982794182957
-0.0134926734551104,-0.0364152836478714,0.00354865182450659,-0.00653308422076359
-0.0139131041841968,-0.0299944190498516,-0.000213162539490111,-0.0119717193439637
-0.0103319961053028,-0.0174934720782039,-0.00232403234663807,-0.0161850388327483
-0.0147083628281002,0.00596250774965887,0.00162393878419804,-0.0185276502961697
-0.0259994484527494,0.037104537550213,0.00489111345634501,-0.0184896992083144
-0.0319722507228923,0.0553982954850411,-0.000115477324220156,-0.0158980790686862
-0.0268728757187535,0.03944068303315,-0.012113185052433,-0.0114331606265494
-0.0173821469751151,0.00348979031275059,-0.0228103016442323,-0.00668455064562598
-0.0119152367329976,-0.0201863983357807,-0.0271136659484246,-0.00348265106801463
-0.0124609317628422,-0.0257161639016226,-0.0276247580160804,-0.00217975310287933
-0.0126948569230968,-0.0233301646008144,-0.0277860190264122,-0.00149260242338173
-0.00547384494800569,-0.0229938941277856,-0.0275000113021803,-0.000214477704938097
0.00921662817615635,-0.0321432238438057,-0.0238404802857703,0.00108381203151863
0.020435960949973,-0.0371181114485018,-0.0147822929187773,0.000265941904024674
0.0153672586815984,-0.0182936169716499,-0.00516860384481191,-0.00253808927738734
-0.000570798150679681,0.0138639129672042,3.83328685044787e-06,-0.003412069081201
-0.0115492334506132,0.029019584873699,0.00150774176280868,-0.000163526706157263
-0.0165831797186617,0.0267504969279595,0.00298480764002017,0.0044387550224174
-0.0215139442444021,0.0347895300113653,0.0083795601205592,0.00687434405511604
-0.0261284320510247,0.0415733893422912,0.0146711736017888,0.00631432843678442
-0.0261075809627274,0.0198052907923626,0.0165842232160348,0.00425023174165748
-0.0195704146943056,-0.00992407847057816,0.0136139823296655,0.00287680806649668
-0.0134649560468682,-0.0221094279085524,0.00640351105800496,0.00290481983184007
-0.0108328079748268,-0.0206312200370934,-0.0047707168043871,0.00286740076489419
-0.00650711867452018,-0.0162364003992614,-0.0173424949054105,0.00106776062911565
-0.00286883791623222,-0.00920769909486824,-0.023759665054466,-0.00200605487030439
-0.00600357157631594,-0.000161341262277237,-0.0188356526676312,-0.0038255381878838
-0.00802674604266166,0.00388673942923886,-0.0037328027067687,-0.00335864427570573
-0.00149632597769883,0.00927955419633961,0.0154178749320108,-0.00208839918005074
0.00780604361103057,0.0100397781138768,0.0248664661124301,-0.000499867201797812
0.0167138106245398,-0.013467906489983,0.0158736013992655,0.00181462340353746
0.0214643676914242,-0.0465331737498101,-0.00118331341692731,0.00384146626856528
0.0198081104640911,-0.0593612694427588,-0.0108262757517583,0.0046044936514758
0.0240989067981894,-0.0448534461254244,-0.0106058751691681,0.00435210653343818
0.0361321573440477,-0.0190624651600572,-0.00676405604716467,0.00381509033797491
0.0378303955475571,-0.00204555505270584,-0.00390436662403667,0.00375482917681447
0.0264896692910685,0.00499543045018513,-0.000364972695074914,0.00431067087677586
0.0179764396639909,0.00857949156817992,0.00718212507839816,0.00500278695038815
0.0111625972655304,0.00899145209045155,0.0154075960254988,0.00527543085468307
-1.76336442582262e-05,0.00275162838149984,0.0176893251063661,0.00518393875340259
-0.000502750063261878,-0.00623918003931955,0.0117043581861798,0.00538163695433131
0.0126058612962525,-0.00941634232120115,0.00201150522106186,0.0052642222792277
0.0215954470602412,-0.0103253336963711,-0.00518814931696223,0.00365417235965499
0.0219580108754809,-0.00956543600405618,-0.00864730760814258,0.000999577282817317
0.0211169766368735,-0.00194452634203324,-0.00842137639759744,-0.00114448653007772
0.0217151834045909,0.00525129441345901,-0.00431173618762271,-0.00181273140702451
0.0197784724660046,0.000904709586780801,-0.00113183812115478,-0.0014747536459434
0.0108785241632971,-0.0165606618774924,-0.00276026653414894,-0.00112547830649112
0.0058215721896952,-0.0380542208725832,-0.00737270349107861,-0.00113074686298338
0.0165854547822063,-0.0470726403999932,-0.0123846163447185,-0.00136260003639611
0.0311477499872215,-0.0305231097724361,-0.00879191730385081,-0.00162817271425939
0.034967849001011,0.00497370835542847,0.0106584908464186,-0.000774320303349339
0.0296589391585061,0.0274829656538012,0.0325819487068815,0.00280224704925004
0.0215663592662114,0.0261879882906154,0.037062731395371,0.00797542066087069
0.0174147252886367,0.0265651291417001,0.0223874735909887,0.0100965985834154
0.0151473623271063,0.0321496819916935,0.00599521742523105,0.00515074591189797
0.00664472114901956,0.0333676513814167,0.00259461602484303,-0.00382548269263704
-0.000194031566953292,0.0343139634560029,0.00618446309420623,-0.00870594929300082
0.00370396801459783,0.0252363362450988,0.0017803044130476,-0.00743856297865017
0.00755584832077058,0.00576022009762023,-0.0109750059357428,-0.00536536087873878
-0.000186338536676763,-0.00399843164936874,-0.0194449682590062,-0.0054909549040437
-0.011476911704488,-0.0117772285649429,-0.0206936695944516,-0.00550690779569992
-0.0138294855367949,-0.0363088828389933,-0.0226466551365751,-0.00357233147985868
-0.00971051516808319,-0.0622035890979715,-0.0263762943817071,-0.00160119768953697
-0.00414408164423542,-0.0640414844210771,-0.025850523375768,-0.00109092867765552
0.0013939121251747,-0.0425375888530759,-0.0178237089778184,0.000176274499023293
0.00383343468365501,-0.0178306007928822,-0.00586841637048287,0.00444873647115805
0.00657783270023216,-0.00829729040810335,0.00284283325894669,0.0105533698393731
0.0157654628554225,-0.0123405675191248,0.00540147413758557,0.0148311457787509
0.0307663895866084,-0.0148641398732399,0.00234840535428554,0.0144432533115791
0.0437194166257392,-0.00501684239095709,-0.00317436630856345,0.00995948036562387
0.0448396292146781,0.0119163231096125,-0.005775901145043,0.00379429458492753
0.0335045129120239,0.0201932904771178,-0.00504556179578425,-0.00222196607360834
0.0153483140659425,0.0181155848627735,-0.00458132977303631,-0.00666987906628702
-0.00296450907173428,0.0101888673701637,-0.00587923974982449,-0.00827829921934936
-0.0128138372553608,0.000688210078688491,-0.00911139236025106,-0.00763279016414506
-0.016450872996635,-0.00374679907234707,-0.0126414817501768,-0.0069753360042339
-0.021362085948906,-0.00187349371689884,-0.011042279507882,-0.00699895846574377
-0.0230527068200967,0.00523557190648257,-0.00429120647015505,-0.00699731277992487
-0.0162019952642036,0.00831788252095167,-0.00127473868249272,-0.00682707753242158
-0.00415162326204528,0.00412340683576719,-0.00543030836062171,-0.00560252542025307
0.00609452619074505,0.00295887259896007,-0.010462657191707,-0.0019300909114761
0.0105351093577041,0.00168067059936723,-0.0129515867052998,0.00260572303124889
0.00986174761085096,-0.00464543656894699,-0.0116298230669954,0.00428970189474434
0.00124127182787284,-0.00450855290718613,-0.00276187624853556,0.00190767174165831
-0.0134586633565102,0.00503876386335733,0.00867685446138539,-0.00250139398293929
-0.0212112058202535,0.00852889179261199,0.0122747591000473,-0.00558530716193503
-0.0165076101507072,0.00389827093865915,0.00872392941583524,-0.00491127138618438
-0.00708998184069121,0.00548525845431995,0.00864497584829527,-0.000708156857280403
-0.00137647827380273,0.0129958839840264,0.0133993347797365,0.00492693752378169
0.00181728421939182,0.0172919864840891,0.014532957168395,0.00875729803678334
0.0102469103901144,0.0169748975883299,0.0119458283417117,0.00769201728591772
0.0213867271948885,0.0168564061550218,0.0145881830439005,0.00237911835829315
0.0244687211207435,0.0128477471755123,0.0246363065671371,-0.00238399756027858
0.020959085943068,2.40392299143757e-05,0.0310457166996714,-0.00332054960570118
0.0176285557105414,-0.00384804160955569,0.0273319678919743,-0.00164194655212763
0.0125344375067598,0.00619826674602362,0.0194959481001949,0.00142331789692719
0.00532365980663613,0.00920528437857395,0.00912665136519746,0.00576798135030006
0.00470626922820963,-0.00783785001025704,-0.00721925629177101,0.00814567107918516
0.0118985766738921,-0.0379482592110868,-0.0225258951773386,0.00455117666210434
0.0109520224391065,-0.0568368890220692,-0.0269865229408127,-0.0030539670074368
-0.00137086974340369,-0.0491075735408919,-0.0223015239763725,-0.00863680585095173
-0.00902766505380101,-0.0263275922655914,-0.0158641886713517,-0.00965579610480362
-0.00685447322427511,-0.00726868917940039,-0.010275889286013,-0.0088740606291963
-0.00182227378843205,-0.00344844777003771,-0.00814466817118418,-0.0097490714625167
0.000420145209061884,-0.0130013793782808,-0.0125620140369676,-0.0120431420723425
0.000215770969620022,-0.0202709111298792,-0.0171560162727125,-0.0128260012352572
0.00127529028740473,-0.0108725983466699,-0.0134935631746803,-0.0107707967376006
0.00361825409288653,0.008368617017631,-0.00525664566961287,-0.00672122313577026
0.0028215567960028,0.0161321029651721,2.49855640917854e-05,-0.00126950601200214
-0.00132420029252157,0.0104544921281764,0.00564677985305025,0.00551903718885181
-0.00413607126962917,0.00136904892617581,0.0118842997798295,0.0121981670881208
-0.00608877473151824,-0.0104492060871543,0.00957684524473604,0.0157122536284058
-0.00621694869454127,-0.0187470127107074,0.00236690899422866,0.0141915815520734
-0.00412837463427137,-0.0159551545792092,0.00091277460308321,0.00887806142060067
-0.00900563051727231,-0.0157090847494173,0.000858204875470671,0.00340691871065806
-0.0220506807649622,-0.0261978663108983,-0.00126668213203595,0.000815345555870674
-0.0307612957792671,-0.0247647666645297,-0.000344277226008175,0.0013707260550684
-0.0215870609618402,0.00553574182280369,0.0028657462588972,0.00421379011039396
0.00261612421455136,0.041146449352022,0.00512653362049199,0.00802573623927908
0.0155632059969609,0.0559992120455722,0.00723078714841829,0.0101735140167589
0.00838055324149473,0.0589409912702972,0.0116057622661156,0.00881956439093065
0.00201456963950658,0.0506778099573665,0.012878316483127,0.00524472598126139
0.00262666625244875,0.0279858677460408,0.00356288694713565,0.00234257296764787
0.00114050589886344,0.0190668164645497,-0.0131193869781053,0.00105125809129459
-0.00308194411003375,0.0390173699851373,-0.027105879087658,0.000760376646149995
-0.00559731945042962,0.0566068098114973,-0.0312736323115256,0.00185726519928451
-0.00135613497152552,0.039662537265209,-0.030033452266995,0.00350237994523286
0.00503985828482207,0.0111797695260464,-0.0280490041607612,0.0032809769809532
0.00411411114413094,0.0015272923322649,-0.0220518409945075,0.00175649506407
-0.00182045372978879,-0.0028578009674402,-0.0157132870941423,0.00125084011667878
-0.00690443314888515,-0.00990180999187688,-0.0132355779217185,0.00202524220241624
-0.00612367580048784,-0.004123887845604,-0.00995847004063452,0.00364752815591588
0.000572268331891371,0.0188831861911146,-0.00399460677402896,0.0056336923442322
0.00524425010131104,0.0452089297031087,0.00492742486850586,0.00638297396620954
0.00403756324848255,0.0562958076419308,0.0142842058873745,0.00425938337718889
-0.00102276387842547,0.0437698343993899,0.0162414312520494,-0.0010714221489407
-0.00658204831189438,0.0209224846640362,0.0108389924864404,-0.00811649782838624
-0.00943634415895686,0.0121430004049754,0.00920328274278361,-0.0138512314450176
-0.00860964912319112,0.0252353897222956,0.0158848876339941,-0.0152568962005725
-0.00271822318583795,0.0421636475771138,0.0200643833519121,-0.0113714262512078
0.00697180337685071,0.0402814130266785,0.0141076054009329,-0.00402995590619995
0.0102987225616839,0.0176646995938286,0.00261002715834272,0.00395273217122901
0.0025048998755169,-0.00791174537070348,-0.00780517901699919,0.00996821778734221
-0.0056774645710602,-0.0209373305227566,-0.0139345143212595,0.0120966511907402
-0.00495276540867959,-0.0189027341595304,-0.0150211507142386,0.0106207973937521
0.0021000598865923,-0.0048799832184436,-0.0130252615387814,0.00756274030218875
0.00931971165449352,0.0166663899169665,-0.0115715616335108,0.00470808407401393
0.0158041745336304,0.0406560273694835,-0.0113593771992803,0.00225597839869048
0.0163445820974356,0.0498319103642187,-0.00951167240809229,-0.000634948555917726
0.00744852955941575,0.0326945276716588,-0.00221752852443152,-0.00338856969726227
-0.000971225050226301,0.0115822023647507,0.00901960361150688,-0.00396835692046077
-0.00843042022810727,0.00622812263241904,0.0132165123129029,-0.00188976263397602
-0.0185632918515837,0.0160358520343996,0.00828177674430626,0.00059902992104345
-0.02793949962397,0.0307073901162337,0.00474945239199616,0.00125613302603477
-0.0346038821106104,0.0332831257197943,0.000286087396140195,0.000146317570933538
-0.0317639721202903,0.0135590455051799,-0.0141681406877993,-0.00154478692689762
-0.0162536193985107,-0.0161550510711239,-0.0296848690486794,-0.00349071463583923
0.000558871684521824,-0.0252972374295592,-0.026889014846462,-0.00537532238636069
0.00866805061830484,-0.00275882129488168,-0.00700305734975773,-0.00543856429803989
0.00465264188787388,0.0207756628550565,0.00565354564404501,-0.00288726889167195
-0.0104225710729951,0.0143047730089997,-0.000944808618005416,0.000133730256098164
-0.0257485312051252,-0.0198141263148936,-0.0124462480220962,0.000720251848133774
-0.0334049104535178,-0.0655539971000821,-0.0153187993223101,-0.00191650765642389
-0.0336911246741832,-0.0995401872078049,-0.0121431832069311,-0.00602685834769951
-0.0279329695792155,-0.10934493421187,-0.0100302102142708,-0.00920703298641108
-0.0200787311694454,-0.105912059772876,-0.0126977127130344,-0.0100421314710788
-0.0146962715158264,-0.089237481416797,-0.014682049267808,-0.00826691450047617
-0.0114650670218178,-0.0592249277054293,-0.0121287412594137,-0.00463461095330968
-0.0092843119169073,-0.0431545352315461,-0.0153438433528388,-0.00125658739332024
-0.00643361936754272,-0.048052786814655,-0.029768674433723,0.000446218525954787
0.00185056590494624,-0.0378484588005119,-0.0432788298889741,0.00177076318590702
0.00803459483242032,0.00335619481864678,-0.0408356962558348,0.00334435794785006
0.00611236265771657,0.0423365014153385,-0.0259113396003797,0.003553844086373
0.00578531472357089,0.04982799172828,-0.0144810379729628,0.00228880374447379
0.00298007266764974,0.0312751159977453,-0.0117699519097819,0.0017980912863922
-0.00191559942153337,0.00815721663988933,-0.0159105492835301,0.00342017516051747
0.00915498799625118,-0.00228615504766771,-0.0230094060500228,0.00582100742490928
0.0239414934522347,0.012759203084073,-0.0212839233048172,0.00691791465844178
0.010485864010026,0.0504259337657535,-0.00516696746237469,0.0064673010006832
-0.0242313530189159,0.071439157851176,0.0140897098905204,0.00542321774908368
-0.0442816033013542,0.0482040162283458,0.0191707075014356,0.00375391103059907
-0.0399879292860989,0.00401862139160743,0.00800667739201159,0.0012318576194137
-0.0253653982443339,-0.0321811340376475,-0.00275589539353765,-0.00145943134817559
-0.01393829348423,-0.0544256656219147,-0.0043090370869907,-0.00380744897189983
-0.0147641534546814,-0.0657837567046919,-0.00266155608739406,-0.00562916444268973
-0.0229308415133142,-0.067755738778053,-0.00371419699366215,-0.00644707528428823
-0.0294659209598408,-0.0550931340962326,-0.00594113640484079,-0.00591433101676423
-0.0295330227232543,-0.0310531367304467,-0.00424839811680726,-0.00437931291742929
-0.0179134548136977,-0.0134222845866801,0.000877170375371338,-0.00261886898891684
0.00198682678200073,-0.00749155320658894,0.00237017456696902,-0.0014155730937387
0.0185330944017451,-0.00182695925025722,-0.00404068131014597,-0.00125137917189643
0.0232429892790512,0.00373525703603177,-0.0156207598113379,-0.00192525948793134
0.0193928263434674,-0.00146688023784938,-0.0241623293279996,-0.00239282667126648
0.020627300406563,0.000151193461502363,-0.0181238969920135,-0.00180292088761534
0.0292797028262619,0.0436567223135357,0.00466308753089328,-0.000251526531911012
0.0349413882974214,0.107137972626251,0.0278041457043814,0.00185880361690903
0.0368972157224527,0.125630610080053,0.0296738061377406,0.00351621804402133
0.0378448637943961,0.0832570695505914,0.00804861523028439,0.00287463476785557
0.0348326996242525,0.0315886018479682,-0.014153521815627,-0.000825458086231558
0.0313983361150286,0.0159287301502473,-0.0172700643195005,-0.00517253560879648
0.0270344007541256,0.0169117187693876,-0.00634854411698598,-0.00599847470864186
0.0101045930035375,0.00211827621696147,0.00351813267252971,-0.00240991968521307
-0.0176297732645128,-0.0155108193411286,0.00891285631835318,0.00153290577287008
-0.0350396679305936,-0.0138345573872167,0.0145428088728307,0.00182354428496247
-0.0322942328343035,-0.00761907169543794,0.0191115276112879,-0.00109274829139296
-0.0218725974859705,-0.0163300117749357,0.0184741599384544,-0.00369609594877902
-0.0136317815947984,-0.0275508380728934,0.0146110177165243,-0.00378298536110394
-0.00371465890181705,-0.026176242769627,0.0107871295473878,-0.00244010269218194
0.0102149089223667,-0.0143784544860439,0.00781653119474162,-0.00184717826867916
0.0184053031007018,-0.00159194442743638,0.00585411364550978,-0.00250075714438261
0.016618773402996,0.00196203113258172,0.00281204749989649,-0.00303661959348876
0.016171071777602,-0.0057120272699864,-0.00107802683949379,-0.00254299741945111
0.025128731687127,-0.0199186447470794,-0.00508078336643721,-0.0017953907183357
0.0356403650361035,-0.0327542184669536,-0.0077788577612096,-0.00173019349995367
0.0348613009157906,-0.029542540419418,-0.00579446572268096,-0.00228990283928253
0.0244551011774847,-0.0022688886318919,0.00174384795461374,-0.00272014801807515
0.0137191997155066,0.0407652678625631,0.0123224278724979,-0.00188058317596359
0.00483434906867682,0.076956739180458,0.0191182007544684,0.00105708147970951
0.00241102103662998,0.0859834019049932,0.0179342713843949,0.00522080662416603
0.0126074879772744,0.0659606179638309,0.0103802276342865,0.0076964551325181
0.0276772478675546,0.0304332806500107,-0.00137463188319131,0.00584028940217123
0.0319122932972538,0.00566480987157293,-0.0120633283538574,0.000209702961057231
0.0279790794633081,0.00563516955528341,-0.011976014038367,-0.00541422920559246
0.0222592759208623,0.00931210946155141,-0.00266775623819614,-0.00729927196823544
0.00769886602553431,-0.00982469583685552,-0.000231093834614211,-0.00538223351293604
-0.00871487770654808,-0.0335793735680438,-0.00798954343285788,-0.00276098877427382
-0.0113711467230192,-0.0336575264596818,-0.0160846752453689,-0.00166687237771811
-0.00517925673509308,-0.0397081772464575,-0.0209059210657107,-0.00177800149654199
-0.00211136159050398,-0.061991603605219,-0.0163089122351624,-0.00238938344915442
-0.00294466998456816,-0.0533426618360865,0.00252993541882248,-0.00320305686716532
-0.00885855997436596,-0.0133672725735239,0.0238426445845749,-0.00281608052359834
-0.0117592349066167,0.0179250025862803,0.034126972424236,-0.000173975719947874
-0.000139949630575221,0.0263614388992658,0.0329275272657163,0.00335564911938954
0.0131267899570201,0.0146108574417462,0.0261292939553823,0.00592011067918249
0.0150278949611722,-0.00872161890861937,0.020499437686597,0.00735508924980557
0.012543544622358,-0.0270412963263576,0.0177274742415712,0.00806863662581229
0.011350991874461,-0.0335478407132604,0.0104308086064023,0.00719075294642617
0.00953619132423222,-0.0339264301454757,0.000147787632149052,0.00374437555262478
0.00782967205601072,-0.0219222723000358,-0.00200418551324674,-0.000827876794035289
0.00995264208275289,0.00773391686215195,0.00294801177411994,-0.00315547291315788
0.0163173875647591,0.0359414089664564,0.00963637078228508,-0.00132023758797372
0.0169878901753802,0.0517653021876255,0.0168951951223567,0.00285935835970348
0.00186198329328121,0.0650766883335546,0.0236315275716001,0.00555622680570646
-0.0148854172699216,0.0741011912479038,0.0300228941453269,0.00474531999970203
-0.0115423009124157,0.0665619127297952,0.0301938878714326,0.00160372498023075
0.00173584935375297,0.0383387920273046,0.0175194248097656,-0.00119701194298186
0.0046756223188157,0.00261418049151568,0.000876877164226075,-0.0018433013875768
0.00474621991409874,-0.0162150585000649,-0.00787378138024934,-0.0006799602477041
0.0119556759644736,-0.0138814634942467,-0.0116898027690201,0.000429127482942314
0.018520122204163,-0.00465252301098733,-0.0159016199833319,-8.17535793152361e-05
0.01666381843077,0.0112013428314887,-0.0167974021211711,-0.00127843748656972
0.0107272488058494,0.028224857850329,-0.0093292468754875,0.000244987081819895
0.00702169606345965,0.0251434778672786,0.0046407366509453,0.00620667761168348
0.00164851413062588,0.0102376889000554,0.0188219754493135,0.0133289511513591
-0.00863459977921013,0.00773226048200657,0.0266029724109698,0.0158045483674837
-0.0184276772008367,0.0153887456507231,0.0249910579027822,0.0109314427369539
-0.0222807792235379,0.0243149096022776,0.0197403712500972,0.00142753668272581
-0.0218362207238479,0.0310980784225909,0.0173077331898999,-0.0071198550868351
-0.0203823010459537,0.0195985408694502,0.0131526718568034,-0.0110081671369647
-0.0196993875443625,-0.00874432580680219,0.00107558746210317,-0.0111951277536196
-0.0214389276904337,-0.0191495670907257,-0.0114911534701264,-0.0108025408465364
-0.0244363131711485,0.00124649421064158,-0.0124596390288634,-0.0111806185533249
-0.0221981757722618,0.0257825018003616,-0.00385977748388376,-0.0116668688401427
-0.0104014869398479,0.019247811137727,-5.44466981598872e-05,-0.0123328254743888
0.00296243613067055,-0.0162535782053124,-0.00593472507759048,-0.0136250732284359
0.00669110021357727,-0.0409649086567793,-0.0128090106364749,-0.0118714855285096
0.00200543817250872,-0.0343009288084159,-0.0130795701664585,-0.00246342930305994
-0.00294270960213098,-0.00249844582780388,-0.00457867108256398,0.0106273306456964
-0.00405177038916742,0.0389087674786845,0.0113190873050734,0.0182755233037848
0.00308599506413094,0.0619450660028174,0.0237030732156975,0.0181911327552952
0.0148189977715137,0.0490388257556687,0.01799111877094,0.0148357485890149
0.0190906211023244,0.0203027082622451,0.00103739650599596,0.0117002319007462
0.014510025612867,0.00503102385230303,-0.0121252001714812,0.00945991139576464
0.00862368414931266,0.00535105174177213,-0.0196344423876224,0.0073976731009907
0.00665346906678716,0.0127970940788444,-0.0180714655383225,0.0043026308703642
0.00603328965116697,0.0228755439991215,-0.00698829565993916,0.000435983318869439
0.00412823852607092,0.0263073681745914,0.00437389222430755,-0.00283036451524343
0.00490942237441181,0.0175662653465638,0.00798316237001719,-0.00573844622325303
0.00618155412219042,0.00277478353267425,0.00397699638987984,-0.00879248919166141
-0.000207969661619792,-0.0108006599031941,-0.00114478133989873,-0.0104754474533218
-0.0122589962293882,-0.0188131660983382,-0.00617144846129753,-0.00891678165215724
-0.0216689785236285,-0.0208479917960817,-0.0123597207012655,-0.00421730153793716
-0.0246243082975255,-0.0232818423209618,-0.0149832733107208,0.000967643584422513
-0.021018461126095,-0.0240282337085772,-0.0106446750932951,0.00290848307400858
-0.0142829169341204,-0.0208659703895064,-0.00515040609002765,9.5151204362781e-05
-0.00914289231008955,-0.0205994786307034,-0.00530746739066658,-0.00518272930625318
-0.00310580824207624,-0.0204594371982572,-0.00800672480580848,-0.00932346916647896
0.00649455419727055,-0.0140196244845765,-0.00661994465009875,-0.00978074151897591
0.0129352755605849,-0.00244353807347739,-0.00114157147084746,-0.00604908006634471
0.0134116146260319,0.0085117723740643,0.00495705186866159,-0.00067071428113912
0.0110084174871003,0.0108551506155752,0.00949816399959819,0.00336868482181761
0.00571056276064447,0.00362352788144035,0.0119440037562139,0.00640015058838105
-0.00194155250292997,-0.00635727729243837,0.0131453650673686,0.0103461717715068
-0.0107304308435446,-0.0125664699959654,0.0145189627964201,0.0151178124782398
-0.0179487791194175,-0.010979167690369,0.0163044012512126,0.0179197819513708
-0.0193622361121387,-0.0108693204806688,0.0136762464868718,0.0149287737367139
-0.0177361567294459,-0.023763568477327,0.00163530604975499,0.00507958684106509
-0.0187604347255932,-0.0412137861235613,-0.0143522942727204,-0.00783029842620534
-0.0240465211317208,-0.0486613847526115,-0.022202296709064,-0.0182297619124526
-0.0284457679250697,-0.0449806638380117,-0.0152521303119562,-0.0223146541554169
-0.0289350721315133,-0.0369604367626182,0.00310162671435578,-0.0182695274123447
-0.0342723527243803,-0.0278122985665502,0.0191308919694963,-0.00676102566454742
-0.0435072821483694,-0.0208374777179494,0.0161568728445884,0.0078670866866494
-0.0397259923053004,-0.0199101202210807,0.000231903848416612,0.0190315349998334
-0.0178633864530498,-0.0204073422300544,-0.00667824418205782,0.0225143005755574
0.00814068492600276,-0.0132482737361814,-0.00288888160358339,0.0194571666326549
0.0269579773639205,0.0024863996541681,0.000150878366723761,0.0133361779679867
0.034814239217229,0.0166930438430114,-0.00107110317830077,0.00699946002200282
0.0327922026695501,0.029676139584581,0.00124973593725923,0.00377111981424432
0.0242542624496816,0.0529622891809009,0.0107874292399466,0.00714642074236718
0.0090113783057548,0.0653003423572193,0.0172924564847183,0.0156743100486229
-0.0046780765632404,0.0374223542710814,0.013620120684603,0.0203874078479563
-0.0102820052726982,0.000676474968867399,0.00562592869798044,0.012924027790687
-0.0132109403968348,-0.00298432114146695,0.00254719997639229,-0.00398636322808689
-0.0144563894416128,0.00978084327209513,0.00422105891214165,-0.0186639518060304
-0.0127043632222704,0.0123393970810549,0.00563911762683705,-0.0236517055626304
-0.0120119044197105,0.00646052141320889,0.00535032181706607,-0.0219485049303091
-0.01435794621353,-0.00421485972374262,0.00329955299731708,-0.0196490481178024
-0.0158628200799608,-0.017357782553981,0.000112004347715633,-0.0186384116463113
-0.0160206806744028,-0.0222732717932579,-0.00193469803220399,-0.0173331402775912
-0.0171122254646929,-0.0131054358886858,-0.00131954186733752,-0.0133971808640582
-0.0151075441258725,-0.00276451470339531,0.000693729746957306,-0.00590448467340677
-0.0117800597993486,-0.0108642565753093,-0.00156817550365607,0.00297456130044214
-0.0187437352089167,-0.0284917588117555,-0.00781664936540912,0.010242191483657
-0.031944105463156,-0.0306342621929476,-0.00595686523835335,0.0155838869805334
-0.0320954611773,-0.0178534298939054,0.00584780906885834,0.0195591687491093
-0.0135365363602105,0.00207247540685068,0.0184005299135354,0.0204138063496393
0.010949396499528,0.0142161003200408,0.023664323089047,0.0170670969948685
0.0235821486397625,0.000391902964931887,0.0169827345223738,0.0119703386287033
0.0153975565092153,-0.0105845963190522,0.00867227677666548,0.00735365073726088
0.00186080925133383,0.0137204842053358,0.010851165218015,0.00309938197454585
0.00654388082255543,0.0513391074887858,0.0180620450946575,-0.00134876444180891
0.029756547704672,0.0644392756411474,0.016780778005345,-0.00588858781733119
0.0536169073116972,0.0466357313314449,0.00283527263155808,-0.00890111547731649
0.06223880031817,0.0211497354762639,-0.0129996303319507,-0.00899029295490512
0.048441359971252,0.0108585195472334,-0.0175644911165612,-0.00797895449256302
0.0245904363114195,0.0219603229883184,-0.0101592767720748,-0.00830928663941853
0.0133339828373253,0.0377454479809582,3.22118279247885e-05,-0.0095433209870562
0.0147893295962359,0.0343498448304334,0.00637516189511046,-0.00960299797696881
0.0145773741929004,0.0181195926570066,0.00979633470254655,-0.00743006435945186
0.00708433486376479,0.0152583325150601,0.0160961328426222,-0.00391489258102318
-0.00138125208459364,0.0284252475499478,0.0234632096975874,-0.00033842811261459
-0.00200272301710341,0.0274447598537039,0.0227504801215549,0.00270740147047414
0.00729415871233358,-0.00448240191361909,0.0157795662969479,0.00425967713245935
0.0187515058514513,-0.0385990252752394,0.010399195121862,0.00270808078581295
0.0213133645318622,-0.0506159395959878,0.00710242528979093,-0.00229970542782474
0.0166725726008708,-0.0481439273924109,0.00355545605965758,-0.0085416274623211
0.0117206593225704,-0.0452312167302414,-0.000678703833823581,-0.0125423550340205
0.00737989648093176,-0.0462427000736396,-0.00412009040937943,-0.0124291683346574
0.00903519148061221,-0.0403121963653296,-0.00499436718977995,-0.00956207564401845
0.0147706261086162,-0.0247988829382801,-0.0037158240812908,-0.00663177496580936
0.0105425003797156,-0.0130057027965966,-0.00614836426685475,-0.00480544463488061
0.0013132615808835,-0.00406068445513371,-0.0128497099784757,-0.00371379880996887
0.000651912470745985,0.00802793736760512,-0.014411410304257,-0.00297604509066833
0.00478163872544554,0.0155268477281078,-0.00923856847502667,-0.00249508933734808
0.00908125103681228,0.0129463040304759,-0.00443269021312053,-0.00203064879719309
0.0135180055680955,0.00917672684013369,-0.00377757047812032,-0.00125616105456908
0.0146433541509733,0.0131395637439176,-0.00552543931622551,-3.02159937076458e-06
0.0150121281144156,0.0184982875063098,-0.00726118640378067,0.00144351802714937
0.0156397994038525,0.0220141688703997,-0.00838089632455538,0.00278782291524886
0.0112075832514263,0.0265654368378453,-0.00961133177370268,0.00402750770540252
0.00264385816920346,0.0252023947108465,-0.0116456984373677,0.00493151860798318
-0.00141449743096056,0.0154463952412643,-0.0134576707984265,0.00469726650033255
0.00850085791245481,0.00412978192633064,-0.0116351522986703,0.00212462523209485
0.0211382115836566,-0.0102851476655065,-0.000409336234532712,-0.00261726637117842
0.0160799160883766,-0.0303316073781173,0.0147653230561416,-0.00627029482671461
-0.000297204894594456,-0.0439140708764682,0.0161609902857428,-0.0053491574731319
-0.00682247442627019,-0.0386792400049061,0.00531091773419556,-0.00102468217832183
-0.000445549787548686,-0.0279890904103725,-0.000516686945367315,0.00230493592960657
0.00616924879223181,-0.0266149836724038,0.00192060310654205,0.00249220812496539
0.00799486954618924,-0.0255166742125731,0.00674400882366583,0.00112808147875672
0.0077306620349432,-0.0235664752550823,0.00587267069553666,0.000348461239242898
0.00735550447829919,-0.0269230415447423,-0.00554756635004173,0.000203913257853731
0.00751400033869825,-0.0228087053192398,-0.0163461028104323,0.00018137378317816
0.0060089968462422,0.00377485661883069,-0.010582438046477,0.000881634875632409
-0.00127702364669444,0.0336716474693712,0.00771702196778988,0.00289666026908017
-0.0114101991935732,0.0339065245555031,0.017562848103736,0.00522998302465837
-0.0146809351953712,0.00792014441276893,0.0109197061318235,0.00564285294907898
-0.0113261373740782,-0.0162984836228926,-0.00232630677824886,0.00351177153617819
-0.0092102219265157,-0.0219563330779527,-0.0116125721445919,0.00118418386750576
-0.00986397416057189,-0.0138513336173229,-0.0149418438069586,0.00138501917768427
-0.0142284788280387,-0.000983202330486176,-0.0175688192214024,0.00375584236123177
-0.0234576516079731,0.021622847740257,-0.0190571251939581,0.00499141168520499
-0.0319389979381733,0.048925496003998,-0.0143553478276705,0.00360737837170862
-0.0333093096447385,0.0504624765176529,-0.00968295307430784,0.00183718308190109
-0.0288273678630382,0.0144567689251633,-0.0102125477175116,0.00124449160797921
-0.0227994164298931,-0.0283709912183316,-0.00878293272231568,0.000485180730296705
-0.0177669557941834,-0.0510935585240629,-0.00474073528719028,-0.00159601295635175
-0.0153498418978203,-0.0571933928725891,-0.00146884741745004,-0.00370705848076695
-0.0137704382525995,-0.0500168900937398,0.00356529852250616,-0.00361992209386461
-0.0106205578458646,-0.0274962698319357,0.00956079721293987,-0.000522927425184888
-0.00473394996544522,-0.00719825222538329,0.0129866604227574,0.00426016493288469
-0.000767294279975482,-0.00850428044750772,0.0125725280105424,0.00858408269416948
-0.00579595685175507,-0.0266556309225273,0.00728260759656192,0.0111026418776559
-0.0171900839897441,-0.0450200684720533,0.000569307795298304,0.0114672640936358
-0.024824572093514,-0.0538165212141059,-0.0033010495837789,0.00965811129303135
-0.019196038171823,-0.0530895573873547,-0.0069373462953883,0.00578336327727379
-0.00139036319194754,-0.0365590486664508,-0.0100675813711829,0.00111863558025043
0.0143003830733672,0.0106114753982479,-0.00527415995439296,-0.00207104908890001
0.0174508073906318,0.0620519972374148,0.00639456392395475,-0.00194984786255193
0.0122883595822574,0.0639144998334837,0.0108646752807013,0.00131732802921919
-0.000752310163971526,0.0238542236807967,0.00208936937485133,0.00464313505533844
-0.0232835642933919,-0.0158248611070491,-0.0112073491374996,0.00468028503177508
-0.0412413580885263,-0.0439607483265659,-0.0200216395591867,0.00136516400944543
-0.0467306769032395,-0.0626903005461086,-0.0194016119101625,-0.00308591787819114
-0.0424579129442008,-0.0655303877141942,-0.0115367141093228,-0.00688740595137152
-0.025252319707045,-0.0475149201805768,-0.00365598589099808,-0.00813350542114674
0.00336207453306346,-0.0254897743840165,-0.000779880704315908,-0.00507645303047559
0.0297293556771793,-0.0161280824728387,-0.0029471163097024,0.000789120002036368
0.040786160232458,0.00696704528936895,-0.00206062601663272,0.0050741293349849
0.0372817670475349,0.0637096729617733,0.00457065004561368,0.00537461337146408
0.0288895626987246,0.105918493441675,0.00493017480926872,0.00302902739955308
0.0249820082271323,0.0851315983908641,-0.00578847364751651,-0.000149554159269288
0.027952324087693,0.0294189837846411,-0.0128250261842187,-0.00363305624999269
0.0290466694373675,-0.00264844359554556,-0.00575963294555979,-0.00669974987762628
0.0193276143771599,-0.00146271009530857,0.0082284809557749,-0.00728027816012105
0.00374035077795092,-0.00169722460355639,0.0156008395829559,-0.00461175967108014
-0.00596722837916354,-0.0194347991342834,0.0125685721063386,-0.000940892797812308
-0.0113650455888092,-0.0313263434958079,0.00779300402750987,0.00153358227442959
-0.0203005629721555,-0.0229594921441011,0.00451840595969589,0.00238458794455312
-0.022747414559728,-0.00796481506547469,0.00234599199246487,0.00214408351830809
-0.0070490420539518,-0.00106720119489836,0.00291847560856641,0.0014337350418988
0.0162696514937123,0.000348805447105534,0.00730041615701586,0.00087019528478747
0.0303406337493973,0.0123402236416636,0.0170125327810258,0.000774108381680113
0.0342244171621505,0.0296095917855482,0.0228008802331208,0.000903319633923651
0.0415545580117786,0.0303790227911478,0.0161141063327684,0.00108837893694429
0.0498673052348499,0.00998128818683984,0.003855723135669,0.00102961708011376
0.039264653043689,-0.014349358607474,-0.00480037775293259,0.000144148928988166
0.0168738219285828,-0.0086022023032408,-0.00169518497124482,-0.00137117539294311
0.00998966163294616,0.0319917759412969,0.0100837108019285,-0.00247706774125645
0.0182525604608124,0.0567029669404232,0.0135860608092313,-0.00283799092604242
0.0215074802773571,0.0402077315959483,0.00605200724626733,-0.00257528868964426
0.0141188855968715,0.0172847035543875,-0.00143412214074945,-0.00162070207763576
0.00382585984757713,0.0152306137233199,-0.00355078106411267,-0.000587409704868103
-0.00319183882143204,0.0253967939334615,-0.00301506248718954,-1.44850111160088e-05
-0.0056529159888661,0.0241988346147741,-0.00332509700459652,0.000422480875058744
-0.0025455677318671,0.00417248846403335,-0.00298108607922748,0.000838124543480077
0.00311836671576492,-0.0151241743894095,-0.00174886475838926,0.000951726206648367
0.00531795905427677,-0.0240756824211057,-0.00313620400296103,0.000475658253134097
0.00406025978579629,-0.0281478234407958,-0.00119459678127054,-0.000682663591397531
0.000635038082727985,-0.0190660840748806,0.0108326589468218,-0.00136258511375575
-0.00480970254217421,-0.000169177469780644,0.0224017630598794,-0.000788232413786298
-0.0109710965053026,0.00521636765033141,0.0233804762398471,-0.000249992654884198
-0.0141475507625762,-0.00857914774791844,0.0122438317942622,-0.000382915971362728
-0.0154804151738277,-0.0244988885232657,-0.00602902981305842,-0.000727934679972795
-0.0192478334460106,-0.0245141259536135,-0.0128146163545475,-0.00138752825387804
-0.0160800554097544,-0.00636115726602629,0.00516851779866097,-0.00188005142294762
0.00511610387003426,0.0157745546206744,0.0314812375350177,-0.00065671759208259
0.0302371840192264,0.0204019788851907,0.036255773457256,0.00240944141914846
0.0355295797618379,0.000458985139179409,0.0192071183013307,0.00460542761860058
0.0261732240834589,-0.0225721593797202,0.00448943887125853,0.00354672066033594
0.0184473579960811,-0.0311677572915421,-9.58489941739124e-06,0.000441640148564348
0.00935662871728015,-0.0314554727325812,-0.000875602083124039,-0.00203859541221998
-0.00346295621989522,-0.0336267831004107,1.60308449162084e-05,-0.00295785365371877
-0.0131984791754388,-0.0383176601622112,0.00210431548831356,-0.00265022090099888
-0.0171161017186789,-0.0345529952510553,0.00215649192035312,-0.0017543993448187
-0.0167980919252584,-0.0232375412221154,0.00147989116199276,-0.00118896241882993
-0.0166315138385073,-0.0244896548337839,0.00171700659784117,-0.00116568507452912
-0.0199724733303122,-0.039911056551073,0.000919451358995611,-0.000890729332683151
-0.0220648052151204,-0.0507051287499804,-0.000346708110485486,-4.08348468632089e-05
-0.0180297190593603,-0.048581924703337,-0.000640107531726894,0.000505305740289347
-0.0150331328015655,-0.0350473910353523,3.39834024765499e-05,-0.000416117062244487
-0.0153646058721213,-0.0118379599985489,-0.000883206369150331,-0.00275599894373491
-0.0112979258382862,0.0140900128769016,-0.00434300293704781,-0.00492337653108697
-0.00415005806711119,0.0301882917340617,-0.00734730888996988,-0.00495030962993239
0.00284301168738622,0.0348895023261661,-0.00277345121206225,-0.00204121294204535
0.012433175630341,0.0350902523176144,0.0126075777155955,0.00263323329957543
0.0227214638007369,0.0376020279152897,0.0260243607252136,0.00677155410788643
0.0316350888028152,0.0420366954064523,0.0255981977035158,0.00829092534123238
0.0396012251506737,0.0328803468090856,0.0165000843464601,0.00643646047291697
0.0387405147398221,0.010680344144806,0.0077096769360951,0.00258670867734704
0.0258342769176527,-0.00456807696725375,0.0026484198743947,-0.000553145615409284
0.010446376332653,-0.00776044676800931,0.00334254184572596,-0.00165339348793029
0.000449044367531327,-0.00800649453979823,0.00682449101114836,-0.00218038571052521
-0.00343328374198506,-0.00853447888111585,0.00910767985131228,-0.00435724622008395
-0.0048966102046348,-0.00774118142941524,0.0101278294582962,-0.00829259610820161
-0.00401306726773522,-0.00597172396788804,0.0087888982294639,-0.0121103026880894
0.00126554616239275,-0.00746838449600451,0.00452752225939441,-0.0137376985283254
0.00507261134227655,-0.0155749276800635,-0.00187867967693198,-0.0118801087516951
0.00478189582495545,-0.0151151717618987,-0.00369923655409687,-0.00744101168925163
0.00779629291487716,0.0101277811497803,0.00846918671736227,-0.00265777766557582
0.00925565912985053,0.0363281512303637,0.0256789029467158,0.00210263290019391
-0.00276134422739685,0.0287841427730643,0.0270469596241032,0.00729999057204296
-0.0192463884454516,-0.000685847582849461,0.0121013544507817,0.0108697538057948
-0.0288893112874238,-0.0156871759357076,-0.000652007403674409,0.00991598033462228
-0.0283347699075642,-0.00640414433014287,-0.00115115218184697,0.00516820942126358
-0.0154747284832259,0.00984677662767892,0.00489637432003734,0.000232372289028122
-0.0015381921110435,0.0163237925283761,0.00952669063541407,-0.00300361047441286
0.00195921615363327,0.0129988779686674,0.00933667637159478,-0.00546328256463506
-0.00508878663499307,0.00588154128304872,0.00360983303472273,-0.0084807149963759
-0.0172685120652624,-0.00310233948569738,-0.00273079232008543,-0.011607957563421
-0.0266729904231825,-0.0144312640989764,-0.00594805299374046,-0.0125033862063516
-0.0278237541346782,-0.0255994594459483,-0.00798860799563401,-0.00941304963793278
-0.0206872328420547,-0.0237615220180042,-0.00575806729884063,-0.0041715418774734
-0.00955818267258744,-0.00396355203663293,0.00278942522571937,-0.000568451780370927
0.00319086031522759,0.0129688507639639,0.006747152246599,0.00192933709704371
0.0138277512716227,0.00676806807571229,0.00179971694812212,0.00802455694580834
0.0192552787695479,-0.00773362171236213,-0.00248056084805818,0.0170054391316578
0.0280710414532115,-0.00499769819200469,-0.00130038087545385,0.0205989866319304
0.0374896954787948,0.00631801986616176,0.00469363179343556,0.014939190940917
0.0277298731942031,0.00557530906847415,0.00927652897349947,0.00617388122816027
-0.0026921928554917,-0.00305267769095841,0.00822737442185542,0.00112243470866253
-0.032681788650921,-0.0116381085378476,0.00524890901572572,0.000315504925047427
-0.0478703459129075,-0.0233198028619888,0.00360079040192652,0.000431994026396577
-0.0499812503012296,-0.0345490612828239,0.00508771076624308,-0.000763567084325376
-0.0456675673551677,-0.035990214921537,0.00765331472560352,-0.00269960495626998
-0.039181591396695,-0.0244159226808663,0.00940765498354691,-0.00483733190903487
-0.0313191112298788,-0.00368169661647689,0.0111094103550112,-0.00740273971410282
-0.0282963600808158,0.0172145886944048,0.0118680493515486,-0.00913201266328543
-0.034610344962475,0.0241368804171158,0.0111986848157878,-0.0087038812464052
-0.0338650911782616,0.00814274931500798,0.00961400614431419,-0.0076533213470518
-0.0134069371850598,-0.013446350913851,0.0110173416425483,-0.00788488176359472
0.00779009277524463,-0.0149718706551639,0.0207934855005172,-0.00667985656446685
0.0112386844808042,0.00465711704037437,0.0352081463178753,0.000882772454497503
0.00312883516433525,0.0282943692578685,0.0445617272525789,0.0138329303894915
-0.00586713396784083,0.0326546884169074,0.040893836659623,0.0246986023774522
-0.0121853719189698,0.0123543322263496,0.0261031626124748,0.0267659136266555
-0.0118511093584643,-0.00486937372507985,0.013559004588025,0.0189875882656157
-0.00754534369389052,-0.000205867076869391,0.00963147252112639,0.00634391393176586
-0.005216155495958,0.0120864351495306,0.00976384542783624,-0.00336436876073807
-0.00166077927760101,0.0157251878897949,0.00838264141654025,-0.00556527405362606
0.000703039876977186,0.0128389061924442,0.00553358349062001,-0.00227463000960017
-0.00390608338233512,0.014410367590322,0.00498139067741597,0.00193347829791373
-0.00958802223914965,0.0164122256564852,0.00355044125005075,0.00440157821226465
-0.0119231077118358,0.0115240783595435,0.000233552250979001,0.00382783401535982
-0.0148986350034226,0.012135135993351,-0.000308340605537608,0.000414794685141594
-0.0159488134781497,0.0188461151251634,0.00134170299799971,-0.00319705250671018
-0.00867650749352993,0.0167693907115529,0.00137277634789868,-0.00445723595664947
0.00533581112248818,0.00910822977759644,-0.000734375370863981,-0.00331330423879311
0.0177380236005764,0.00529044438331937,-0.00187869700993136,-0.000610736615236893
0.0230348645183261,0.00738599172946547,0.0015581023323326,0.00264310454660262
0.0212578809911483,0.0119442652035385,0.00683741954749598,0.00396259770929427
0.0122179453247237,0.0118468154403614,0.00799684799484424,0.00150060940409649
-0.000679066038731233,0.00953137919732172,0.00821818403813815,-0.00287716629077943
-0.0101476257607948,0.0143472992652895,0.0107411923230331,-0.00601336201295147
-0.0129790874580689,0.0303036198198582,0.0141128672189306,-0.00726184278319134
-0.012638460244234,0.0408309302989777,0.0152482996687223,-0.0069449532762001
-0.00844672767639498,0.0296168034849406,0.00977890637605659,-0.00450766373395491
0.00218066228996016,0.00924132528101471,0.00105050801790313,-0.000489149985807461
0.0148013330039247,-0.000250651910299843,-0.00462792983456679,0.00272159300987664
0.023169072592254,0.00801271415189502,-0.00615031736979173,0.00356261355185254
0.0172564977741701,0.0184128196432511,-0.00681733003527777,0.00288269824225399
-0.00206092416669987,0.0142771003791077,-0.00924988220502563,0.00181917088007537
-0.0166636716847714,0.00391314814526086,-0.012778918756261,0.000628158404460183
-0.0197039382782909,-0.00609290583473113,-0.019248030761635,-5.90798527074364e-05
-0.0195006116953013,-0.017682941662591,-0.0272497748688071,0.000153742263979894
-0.0212098837483258,-0.0245844815659604,-0.0294763339756069,0.000784192591188973
-0.0200226844400234,-0.023203687208371,-0.0238870587718521,0.00177823295607893
-0.0105997027358848,-0.0206277919395246,-0.0198534348921735,0.00232872102959599
0.00421639174329877,-0.0242307398544501,-0.024580512120235,-1.75329446056261e-05
0.0176719551242633,-0.0314697742332957,-0.0311841195364189,-0.00545402490926014
0.0245346878723898,-0.0325192365335424,-0.0314871921667848,-0.0108908011716057
0.0309279210462026,-0.02011725061342,-0.0214721425683685,-0.0139192760180488
0.0425198613954521,-0.00282002022850249,-0.00436696225458302,-0.0136010645795644
0.0441657246964074,0.00634693791032225,0.00524897706419926,-0.00971650024084565
0.0235869173016084,0.00882996883330684,0.000234603629069658,-0.00395617888755733
0.000618122405251852,0.00943926253948127,-0.00779184813985396,0.000978187735131319
-0.00524924669980534,0.00904153723665843,-0.00646400840780409,0.00456542249670275
-0.00536725122696729,0.00439373138244998,-0.00211012143256653,0.00874605295722471
-0.012234010284126,-0.00921104219060499,-0.00540861735808143,0.0137148262893097
-0.0210790501333351,-0.0277378213909727,-0.0139777279844411,0.0160488195078676
-0.0227574725030549,-0.0398106924995197,-0.0209839165508167,0.0126641254533851
-0.0165421570377863,-0.0332702664986307,-0.0181050388668661,0.00465015494011234
-0.00962083055791752,-0.00604976405132253,-0.0014006900113882,-0.00466927413379258
-0.00713126672316798,0.0273560148462863,0.0232549797216354,-0.0124329963163681
-0.00659080938718955,0.049401757649297,0.0432151004305786,-0.014981891526881
-0.00170840198887766,0.0456283393457269,0.0442308449508856,-0.0103816446961075
0.00686476576705047,0.019274024586884,0.0281098705038999,-0.00283774102299559
0.0139463377403172,-0.00481401401608367,0.0110463790143005,0.00113174735657877
0.0202731031314384,-0.0149700927525388,0.00163138460103211,-0.000847425247726125
0.0237666246750168,-0.0174057535211268,-0.00318051791534171,-0.00636724224482011
0.0145619479567164,-0.019767224469766,-0.00802590629314038,-0.0108220581148125
-0.00942906239447195,-0.0237010814313255,-0.0106480837525209,-0.0107212065016663
-0.034952390553669,-0.022073022991305,-0.00892699481259704,-0.00656420338495556
-0.0459936925767003,-0.00582985328528193,-0.00528836601570162,-0.000928234121950493
-0.0406245302983957,0.0132429490920589,-0.00402215753919601,0.00544936185962521
-0.0326692984596014,0.0148899160883013,-0.0115095965855826,0.0119343370497079
-0.0345928097437467,0.0128880198665232,-0.0234140599718949,0.015568921337829
-0.0440472340737462,0.0231058694853958,-0.0294107949402288,0.014246164328605
-0.0452882676079105,0.0313210403654759,-0.0297785697199953,0.0095181467765539
-0.0278609155231381,0.0213338810929072,-0.0279676925776399,0.0049226663542359
-0.00598292728597875,-0.00546324342849886,-0.0248364045852736,0.00250822696767412
0.00144428928646054,-0.0210154053319599,-0.0208539695093893,0.00128683141286312
-0.00429673371376704,0.00137279393995736,-0.014589861911114,-0.00123125631657085
-0.00880389557611245,0.0461727270211272,-0.00812472684840267,-0.00609974865170054
-0.0038557012007934,0.077900109141397,-0.0067300224595317,-0.0110557982389644
0.00471509248030602,0.07272061147435,-0.00893406964355307,-0.0125195624200077
0.00942590564981097,0.0349960837375624,-0.0120288865540375,-0.00937639499834651
0.00853343022072881,-0.00124701377534532,-0.0143138774375028,-0.00395338798103758
0.00761614957008771,-0.0132315609002883,-0.0115645068277531,0.000324283027219135
0.0181079791371894,-0.0120546033287438,-0.00554988905789378,0.00207212614124371
0.0316146355592624,-0.0171071037763573,-0.0015624518413845,0.00253900417165455
0.0242367286172442,-0.0385569926842723,-0.00479597416872612,0.00375823339805032
-0.00316018497467899,-0.0682617363061226,-0.0188137686071333,0.00620253536796647
-0.029833484411275,-0.0810853462489349,-0.0353751396035573,0.0078891560157798
-0.0434381391085098,-0.0679317750984128,-0.0411198834362499,0.00705392342663067
-0.0414933473257652,-0.0403334768116852,-0.0336004322059504,0.00444433867307086
-0.0293045686828519,-0.0139055631824939,-0.0217731521440728,0.00218101928470711
-0.0199403454608541,-0.0151994575405824,-0.0190114685481672,0.00172925068442367
-0.018624021716392,-0.0435733634619498,-0.0280145251211464,0.00248802873265324
-0.0178062573321528,-0.0600123895223874,-0.0398474422732632,0.00285327637896206
-0.011745227201078,-0.0551359827225592,-0.0469730306343431,0.00228878146127054
-0.00244831554005467,-0.0397158234500942,-0.0453208697123796,0.00143751541574107
0.00728300906324408,-0.0112097332905649,-0.0378788795399313,0.000860397903675955
0.0205634141944227,0.0282186916609367,-0.0327826145085741,0.000178821316560609
0.0366943720219285,0.065560549207764,-0.0312286840532233,-0.000685524236483362
0.0428911548757838,0.0740577907528102,-0.0293960868183962,-0.000509114588625445
0.0373901327210311,0.0446343744820848,-0.0273569389125169,0.00119217832498531
0.0312698221393726,0.00961854008258486,-0.0244497242085354,0.00287760201195146
0.0279112188518176,0.00862428009077324,-0.0166207955833042,0.00319233237446215
0.0282129667119825,0.0440663417444468,-0.00471619963692434,0.0025749176099054
0.033090802438002,0.0738993998507828,0.000864559931206138,0.00198133378290107
0.0405105515648677,0.0692951510474619,-0.00387204678978082,0.00136721451928106
0.0457970098218439,0.035381370297094,-0.00844114456834382,0.000429401611494127
0.0443146776659365,-0.0125819285908502,-0.00317967324995943,-0.000368361615174645
0.0381339002225655,-0.0565661090293589,0.00750156189594946,-0.000595728648089749
0.0340286957640389,-0.0791088441998614,0.0140201451416732,-0.000182781899716899
0.0339084167524288,-0.0740883029143508,0.0153742321072099,0.000756584579208439
0.0327352127853322,-0.0580063582514744,0.0140588913477085,0.00168660914856491
0.026599208393597,-0.0437111355144381,0.011050404583942,0.00211185362285588
0.0163923154278579,-0.0275109491320267,0.00855810406274651,0.00210981708383199
0.0079486115275326,-0.0136886992405698,0.00819346573852638,0.00192228090190666
0.00177869879796723,-0.00842251690802637,0.00678348548319547,0.00126018866555304
-0.00637657738449261,-0.00137977870069797,0.00498796915878822,-0.000392108363122602
-0.0103400072306973,0.0119498234779298,0.00748434885144107,-0.00174098745648822
0.00196493793056247,0.018520993950315,0.0104670201898944,-0.000187138496291351
0.0301557502603174,0.0238592236763408,0.0112000161752667,0.0038431731664221
0.0513530303209984,0.0505108294026587,0.0147155693393606,0.00670156920606806
0.0487535750108268,0.0850901442586536,0.0194889763341458,0.00612693175598007
0.0332982677729614,0.0885161974921404,0.0196441157964133,0.00392519104681609
0.0206710275928919,0.0597403310391491,0.0152131661419101,0.00335998088121632
0.0172168602679487,0.0318719918762111,0.00973079373570678,0.00414031910462512
0.0201909199372472,0.0208850351434856,0.00693762380314454,0.00202763367251754
0.018930481484025,0.0190406613956679,0.0106525184628084,-0.00493466341622207
0.00936472476833796,0.0206705388655222,0.0166187385955308,-0.0126173075421176
-0.00012719547787145,0.0252882491202847,0.017151545570975,-0.0154874654329661
0.001858129286084,0.0248129198242949,0.0146768308189177,-0.011994782855834
0.0118926264527936,0.00769650916395783,0.00915683119674253,-0.00598087288182262
0.0107798442291852,-0.0188664308021054,-0.000541886537366603,-0.00357159232005439
-8.48543729228069e-05,-0.0228161697818749,-0.00231302758653686,-0.00562191491533084
-0.00113574412055758,0.00645191942635915,0.0100120962854211,-0.00675301582808961
0.00948248634895938,0.0335172260316848,0.0235036150798338,-0.00369243840100003
0.0201526466786979,0.0309064481029117,0.0226568397980146,0.00114719571917639
0.0222095736363543,0.0168422769078684,0.0070272406693645,0.00391950177637432
0.0158040476087228,0.0164039803345936,-0.00808070579453759,0.00387185703879175
0.00993214331256242,0.0222302204296785,-0.0118125442306342,0.00349580784037224
0.00993233110238276,0.0159850906893423,-0.00752107432165908,0.00445953194236388
0.00707761202510767,0.00116826306429563,-0.000907772217400781,0.00516491187446189
-0.00588596710540017,-0.00893087141018314,0.00473780195736034,0.00377875482822812
-0.0193220835363626,-0.0118108303997478,0.00817035650320889,0.00109123441373801
-0.0215443673469503,-0.0144215865994956,0.00861722650880869,-0.00158025561839079
-0.0162054687788071,-0.0262855670029215,0.00429824693187379,-0.00387032247804361
-0.0147244113267163,-0.0411944336053204,-0.00400840860782455,-0.00543479979203122
-0.0191751940842178,-0.0500011911733707,-0.0130011811888567,-0.00620118844824424
-0.0232928507393843,-0.0578809900653262,-0.0182834994151202,-0.00653686440511272
-0.020677039060801,-0.0620902171583523,-0.0210166402203308,-0.00671994947578129
-0.0104061087455243,-0.0514546602748507,-0.0191988591743962,-0.00707876525659584
-0.00166983510454549,-0.0278826855695579,-0.00731441400140318,-0.00740410824477385
-0.00397843845393547,-0.00873466734116039,0.00348085689596273,-0.00652420246113238
-0.0125374058905868,-0.00452915641277513,0.00316479583147937,-0.00395653224865817
-0.0189117627371279,-0.0102590729670139,-0.00256427648643347,-0.00127261982454191
-0.0252228739429516,-0.0126852405301244,-0.00593246299560647,-0.000430629220417695
-0.0288550772215074,0.00181983255913402,-0.00327393798356574,-0.0012404832894247
-0.0171377204026483,0.0224218134040444,0.00245071713079755,-0.00227720552304219
0.00735851839298548,0.0210617643444265,0.00613975109717402,-0.00274437767948294
0.0243166726535402,0.00664783090518362,0.0041724816537385,-0.00260610203124927
0.0231278033984344,0.0054069211059596,-0.00264339456610724,-0.00201297843959742
0.00732283815534887,0.00316310893952136,-0.00849270558714312,-0.000573333630131856
-0.014472854921959,-0.0179532769120586,-0.0112452354352423,0.00182637583394608
-0.0310522974897259,-0.0389859105613553,-0.0110969496168808,0.00421282230141209
-0.0355750617251208,-0.0323249016460508,-0.00604548882260166,0.00581818280944455
-0.0270292336654219,-0.00100122530565667,0.00295414225315911,0.00685021391125493
-0.014107557086166,0.0199697227315527,0.00866943794060156,0.00772862059920571
-0.00777024997681444,0.0157968779083074,0.0100439087807094,0.0085813382675292
-0.00532903703283121,0.00453443524603878,0.0117485073541137,0.00808209974597159
-0.000343814615003256,-0.0121115556751502,0.0079836193685882,0.00376988026078303
0.00546968131574955,-0.0297679279968224,-0.00138366517998658,-0.00362440953912144
0.00260059885051948,-0.0288729017896355,-0.0062862018139744,-0.00974634870769577
-0.00860186025053652,-0.0164051241937591,-0.00481934176179426,-0.0123674984463087
-0.0106364611974188,-0.00621993345124561,-0.00160111776571273,-0.0125139641439407
-0.00280928092547346,0.00452687974862216,0.000200710474827929,-0.0109875809850271
0.000345295521973155,0.0180517941565495,0.00457834774383269,-0.00772787265847195
-0.00148946141779933,0.0298318350331921,0.0135991677969887,-0.00203873422192321
-0.00458618022907157,0.0337047275112565,0.0178563172610982,0.00638026463460749
-0.00958780184452388,0.0291931247303443,0.0116236525670208,0.0151465055637153
-0.01568200100095,0.0264223604932603,0.00336597456087978,0.0203822379442333
-0.0211622195966536,0.0305024006876022,0.00182778625510293,0.0203234374614413
-0.0188008089243881,0.0267472084387716,0.00594292660310657,0.0155749809051376
-0.00162713499598262,0.00708039222953345,0.0109060922320135,0.00689603274275959
0.0176217750912922,-0.0127288583394286,0.0147145561184473,-0.00421183624221479
0.02006798385888,-0.0196283722207571,0.0154796452858842,-0.0144326661099186
0.0102521339176755,-0.0114130353975413,0.0134291704402486,-0.0195485777140045
0.001615016697799,0.00675576776358058,0.0137206470960225,-0.0172582345834406
-0.00582138185427841,0.0239428580193867,0.0155949807010995,-0.00994148797656284
-0.0168403242805756,0.0301425941593336,0.0147794121604342,-0.0022551686061724
-0.0283844211338256,0.0246129629936818,0.0130906932960107,0.00266733042127672
-0.0296611347975817,0.020393120776834,0.0139834216910201,0.00474849605909879
-0.0178383117291795,0.0219195357041809,0.0185954298985972,0.00677565621586647
-0.00674760460546794,0.0184224991773257,0.0208224759650726,0.010907366286636
-0.00349257221529135,0.00563577569601633,0.0126020348656662,0.0154385554088618
0.00243027790162022,-0.00382377558918671,-0.00279927735298872,0.0154675470160948
0.0116852767194254,0.00146413938464336,-0.0131377927982719,0.00867290564475952
0.0130266733587645,0.016010527915274,-0.00675308687014877,0.00249694692860912
0.00571724811505919,0.023194148960257,0.00940548417565688,0.0058698067042778
-0.00142415618795473,0.00987439638514677,0.0124767004209149,0.0130528286282307
-0.00153438607229097,-0.00370155567526062,0.00341602065492427,0.0112402352864027
0.0033335469115232,0.00267980006279056,0.000904853319586412,0.000381755443473734
0.00129763002582379,0.00950894563567791,0.00553925546117989,-0.00884071018960956
-0.0104736694967185,0.00878131168251618,0.00875744356155113,-0.0109206684033092
-0.0131631763171067,0.0123706561109229,0.00911058613002882,-0.00912644058981661
-0.000665488248259656,0.0112320655075305,0.00737030014192149,-0.008006991086678
0.00681831901658347,-0.00150192014911027,0.0030528220950615,-0.00870847076435348
0.00171760454354833,-0.000353544343850491,0.00189640713463992,-0.0090067049700655
-0.00315914328206961,0.0207901337995185,0.00633642101634138,-0.00569744861589049
0.00276487874913169,0.0310765803962667,0.00964017496440869,0.00121551073509717
0.0137086363761377,0.0215715658801465,0.0112738594428122,0.00707837401833138
0.0127340456049392,0.00594945935718692,0.0111622286028365,0.00766813648463629
-0.00160086433623664,-0.00619988315742977,0.00854571038291104,0.00397446294368768
-0.0133284214537886,-0.011857340071236,0.00592913100129653,-0.0002316495368195
-0.0151866857626089,-0.0144836991788381,0.00232004616295437,-0.00306807982339525
-0.0138698786649895,-0.0126385114232288,0.000439370182505163,-0.00511798320217758
-0.0148649118663583,-0.00830894817899366,0.00241465323733608,-0.0064974527249089
-0.016318796907592,-0.010960688200127,0.00046129584173242,-0.00546617477407539
-0.0137634394957222,-0.0182695070773888,-0.00894724881277849,-0.00113189830732883
-0.00991357717912136,-0.0254826334946529,-0.0195794284728402,0.00406776591620432
-0.0109815671249574,-0.0313057729206449,-0.0270983096658006,0.00706019198112928
-0.013988877564863,-0.0302452074331298,-0.0282686093835944,0.00748790391726433
-0.0133104765393059,-0.0135068093761738,-0.0181491403286624,0.00648015533913101
-0.0131995605486585,0.00868410650641691,-0.00117940325968235,0.00526824653650764
-0.0202039998706331,0.00358917296155591,0.00725303892841557,0.00504766169064821
-0.027182333218045,-0.0253040716008209,0.00254998886242168,0.00578012818746739
-0.0248815597211612,-0.04669881847376,-0.0050995410096969,0.00617174871127749
-0.0183340930918293,-0.052254900834201,-0.00932414488893371,0.00515482321761291
-0.0186978651204813,-0.0456013156114439,-0.0110736273598955,0.0028730000836688
-0.0253663332353224,-0.0355242994451254,-0.0139856284407463,-0.000479226667070962
-0.0245660519981431,-0.0355607440981807,-0.0188808239238741,-0.00640338780783153
-0.015270961689815,-0.0394102867191655,-0.0194028881134376,-0.0153615909416823
-0.00741723088097329,-0.0294742929815058,-0.0128493326686086,-0.0230510353829211
0.000238685456086754,-0.00438726210623475,-0.00579904700450555,-0.0240013754430446
0.00841774765152874,0.0174563101712266,-0.0073769289843562,-0.0183414008520871
0.0117881772765466,0.0133251697144777,-0.0174206305950472,-0.011113213300824
0.0119045052382186,-0.00474646607202891,-0.0233473250781276,-0.00612502513462132
0.0139856546969539,-0.0128514487463331,-0.0200994954521598,-0.00314401153330908
0.0170288183766134,-0.0244107795733322,-0.0150384538886723,-0.000295473874834154
0.0143688029867124,-0.0434483360713407,-0.0129645326079006,0.00334151323006312
0.001533037048584,-0.0432973587223071,-0.0103882037258288,0.00711978128604242
-0.0138078602188478,-0.0157140387171231,-0.00141327953493033,0.00972821611229874
-0.0216272604581796,0.0216352367996321,0.0107242963623906,0.0113201766462479
-0.0257464657062835,0.0430764531578357,0.0140670987253248,0.0132398849423098
-0.0325817740706132,0.0397674298801399,0.00597823345885579,0.0155887231774925
-0.0410195717300495,0.0300660284831991,-0.00502772004450331,0.0157116945633566
-0.0420809385598725,0.0263323390176289,-0.0144254022393953,0.0105116224031122
-0.0273812346994005,0.0207318168522296,-0.0208069532433298,0.000828337200465441
-0.00347092513272905,0.0136475036925905,-0.0219486979994249,-0.00897343665844507
0.0156793553908298,0.0134413968703417,-0.0172749722016881,-0.0152149353369769
0.019072226018642,0.0134457586838233,-0.0108623308413258,-0.0174652244774818
0.00709730752066195,0.00877892638037392,-0.0095107050837096,-0.0177878386234432
-0.00179004843960486,0.00838795369034047,-0.0113031095480793,-0.0174786327316316
0.00443805851487976,0.0134099102584747,-0.0104470062985687,-0.0150854827477239
0.0168504578092916,0.0120913809195593,-0.00768187544175335,-0.00922870473265573
0.0243792390505271,-0.00268804697934834,-0.00754996110704709,-0.00181097970628466
0.0259814527052316,-0.0223477701003494,-0.00960907796410239,0.0040919705237903
0.0226644193978155,-0.0341830410384929,-0.0086392550044399,0.00753043819248356
0.0105988451199356,-0.0391851481547336,-0.00536429892677766,0.0095543686888777
-0.00627820129435527,-0.0416656501971772,-0.00327542317270903,0.0110326617873457
-0.0191598843098999,-0.0358978770693273,-0.00186982949893653,0.0112435512024502
-0.0262440834069946,-0.0210258500896381,0.0023975371634262,0.0097612914557576
-0.0212992766802688,-0.00750011308831577,0.00903648333162864,0.00853394520475335
-0.000598697585898637,-0.0022310691828815,0.0122774918603019,0.00931938996508426
0.0197007637957452,0.00381660923900153,0.0140675574457663,0.0107246027115236
0.0246938026567113,0.0194421791969141,0.0196762477445332,0.0106593116600146
0.0213944688184107,0.0345381800180149,0.0248125117824204,0.00918102497215281
0.0215348191796677,0.0414663482562069,0.0240578463857207,0.00690433359136227
0.0251984006667473,0.0456593507724183,0.019729336297501,0.00328757384761345
0.0277684887497849,0.0527710333170268,0.015640821454126,-0.00231304287247488
0.0262525958736942,0.06468132676516,0.0121528375886395,-0.00871411017405628
0.01971143337862,0.0769442727805639,0.0111927943333515,-0.0131980878089745
0.00959828152441583,0.0791221728383578,0.0158161267167555,-0.0138216000875758
0.000619481410497134,0.064353929495275,0.0213091367442273,-0.0106799442496842
-0.00239810651436162,0.0350048508926969,0.0183241728071599,-0.00536969967608393
-0.00204605913607135,-0.000638403826112799,0.0081868899091171,-0.000157315044501427
-0.0032899633676701,-0.0302446567861254,-0.000839414452092492,0.002439737899034
-0.00693410785724456,-0.0438429169663142,-0.0065671140509583,0.00156959828274416
-0.00948358833675307,-0.0460831672096456,-0.0096670738715403,-0.000726918016471069
-0.00606050677674548,-0.0468185898724366,-0.00976219874525939,-0.00147385003329461
-3.86273495342447e-05,-0.0435177178453737,-0.00769066555125397,0.000277327642319801
0.00281254273778954,-0.0239115666992786,-0.00735494095845105,0.00280639745501453
0.00356700243298924,0.0139701260533044,-0.00902179131395293,0.00445743919187871
-0.00167885457612022,0.0511067587770885,-0.0013696054977844,0.0052772288361944
-0.00897901230174677,0.0679585115378736,0.022166574119933,0.00658711619965879
-0.00315018085540665,0.0691755593912395,0.0499434805310064,0.00933898652322401
0.00492867370383473,0.0627929288031824,0.0664973945272095,0.0129705099135649
-0.00405444114273825,0.0426778904121198,0.0654106116033221,0.0163953491973202
-0.0255078736559981,0.0173142225718387,0.0514290851939724,0.0182172819617936
-0.0424485921459088,-0.00287302850918181,0.0326126547630975,0.0166545308149471
-0.0387278734178325,-0.0142676911359098,0.0161535355568798,0.0110525129700358
-0.0180264767413192,-0.0132460244541254,0.00942249284182189,0.00351131996477892
0.00220334471576101,-0.0141375886434114,0.00956046640601852,-0.0032285033773761
0.0124329698344972,-0.0245582863165841,0.00667140555102043,-0.00933205681496296
0.0101260335597523,-0.0340664409442335,0.000976939916500056,-0.0157162257582688
0.000816940754708176,-0.0378474213667641,-0.0010734794318346,-0.0205475275691641
-0.00701699176850136,-0.036525564377627,-7.86104038985602e-06,-0.0212950959917332
-0.00942463985077729,-0.0274318602022174,0.000421147123274051,-0.0180443721378236
-0.0066657354894071,-0.00909221880654523,0.00119860130918893,-0.0127775275155117
0.000819652912082652,0.019139311885072,0.00411880716431309,-0.00669021817588016
0.014990241177149,0.0541666021102273,0.00759412276533396,-2.82786386881749e-05
0.0308909818833572,0.0673255004116368,0.00825355119590645,0.00629252145818729
0.0355783712785233,0.0434450725175746,0.00620339086188138,0.010752851212469
0.0263981587774454,0.0170347007101618,0.00427185258224925,0.0125662962628754
0.0161203796755313,0.00707498531419998,0.00194490023828891,0.0118080564010838
0.0116917451535755,-0.000766584017570966,-0.000118129287293659,0.00880573044061044
0.00809209110342558,-0.0017889167938777,0.00150314150196394,0.00420765924050882
0.00442302865048886,0.0227714262064837,0.00742743236296265,-0.000591343782299325
0.00551556672731147,0.0647390880767572,0.0167865010266782,-0.00384782250464277
0.00864507894342235,0.0826017504895776,0.0258210191347466,-0.00451658884438168
0.00407251313614215,0.0484103059583842,0.0247855555155369,-0.00257898493997686
-0.00772935974385758,-0.00794093825438116,0.0133298762333095,0.000811668749516478
-0.0164228240033578,-0.0491334334282646,-0.000707916258866705,0.00352799525059911
-0.0161345908750776,-0.0734672015782948,-0.013360073047731,0.00367607362818886
-0.00806677633835622,-0.0744545775050474,-0.0167614430657994,0.00111634172615545
-0.00130680476638761,-0.053018770857397,-0.0111663514941364,-0.00219153038170769
-0.00410946060256185,-0.0408057012957366,-0.00768017100504976,-0.00338704800986152
-0.00572199907498719,-0.0512403281274526,-0.00841249619266459,-0.00110567094572319
0.00656354719095849,-0.0645275568415171,-0.0124169770445522,0.00163660539945741
0.0222966670528846,-0.0685879470741614,-0.0203642988933449,0.000366441859569087
0.0320689877007017,-0.0688600244862124,-0.0264724376754304,-0.00432279021986648
0.0370345191066568,-0.0622665552678904,-0.0250233786654678,-0.00766386880324923
0.0330943306138942,-0.046461268642376,-0.0178440623790596,-0.00684096404891419
0.0272237465340233,-0.0344717577875344,-0.00882824442568639,-0.00344869806006518
0.0303192270606758,-0.0315101144072306,-0.00204027463510677,-0.000510110552139759
0.0326427533760577,-0.0329835404518841,-0.00247818808172078,0.000954028068446028
0.0297998471138997,-0.0290198854684578,-0.00454270957956954,0.00121319833399357
0.0320297289410145,-0.0137968462773054,-0.00105050589500349,-1.2533334723488e-06
0.0374898954247885,-0.00806772281528624,0.000106887837741309,-0.00277204704259795
0.0341512094056633,-0.0248411977603505,-0.0054561871784535,-0.00544365443295541
0.0213998502351929,-0.0352066399708762,-0.00860015221025383,-0.00518917760717988
0.011020628308176,-0.0184165502963104,-0.00569377031308058,-0.00118420572811829
0.00931725340198976,0.0105658638501676,-0.00354528612188746,0.00397398075162249
0.010952957495849,0.0367247100451135,-0.00527401232533686,0.00650333846002435
0.00934329000295633,0.0569036463029273,-0.00868350073827697,0.0046481358099082
0.00235528490007691,0.0653025611534297,-0.0121449092719021,0.000105193769155387
-0.00922313040605031,0.0485840573661287,-0.0159619635856071,-0.00430617715349571
-0.0194317557963154,0.0112043374163169,-0.0201324685345405,-0.00744106863035048
-0.0224661737792406,-0.0185803085118506,-0.0213641073272304,-0.00917509774355196
-0.0209152310484899,-0.0317998465786753,-0.0196058914858921,-0.00913144044777787
-0.0194906290432059,-0.0452651246925406,-0.0173703121846449,-0.0068648822930372
-0.0174970306683038,-0.0616190179962571,-0.0154010540429806,-0.00262964927071928
-0.0160432558983903,-0.0646653215464772,-0.0128173946712808,0.00194959476590196
-0.0142123164213236,-0.0464705008959726,-0.00763927734955275,0.00489908139643935
-0.00658776120639613,-0.020610794021802,-0.00108993421975144,0.00548766714245829
-0.00140712063289931,-0.0116407568015922,0.00126451875043941,0.00429337394652047
-0.00762090881557544,-0.0202930218793678,-0.0016728044175083,0.00230669095022669
-0.0157969980729808,-0.0226328633359826,0.000473489902947864,0.000233295449132966
-0.0188401677732328,-0.0148485081943427,0.00845968690418387,-0.00159457790095893
-0.0181607285714494,-0.00608289472554744,0.00852298489082543,-0.00305182276759136
-0.0155438584409053,0.00694897899148365,0.00047328184563747,-0.0038358558901692
-0.0103118897068953,0.0264448592388748,-0.00295335330858817,-0.00351326147624967
-5.4246917281682e-05,0.0453840557153272,0.00651358624812971,-0.00217341789643254
0.0126355340047331,0.0576017141459618,0.0239564862442371,-0.000253443509022459
0.0232709973231482,0.0634290252006838,0.0336361930124576,0.0013041702716218
0.0264942982476872,0.067795310722938,0.0290829260552333,0.000631723633336648
0.0206644195796049,0.0803350026066461,0.0191572423356381,-0.00265916622906005
0.00873986547135289,0.0905446342662787,0.0107793346329051,-0.00509904536679764
-0.00246011567403098,0.0697394478847081,0.00184466281361977,-0.00326309585514802
-0.00597388166803006,0.0203253461466038,-0.00903185104642077,0.00143814041483633
-0.0052366520766702,-0.0199168996767093,-0.0167794622561715,0.00535699461450676
-0.00690515882731656,-0.0206713335051235,-0.013672431662579,0.00692950008319454
-0.0120278719488088,0.00236584467523406,-0.00331232185266761,0.00717496529783069
-0.0179052215435088,0.0108615304536543,0.00108669828470523,0.00752143597345347
-0.0186651331128862,0.00108597246775429,-0.000826669238836513,0.00778346209265573
-0.0147347628834597,-0.00366856774491385,-0.000848584386742246,0.00680723373720614
-0.014093448865765,0.0031411090977106,0.00219226462630938,0.00345628373028727
-0.0126649443496011,0.00397126262993907,0.00339315618928821,-0.00329565758053406
-0.00312822399284501,-0.000579853653276171,0.00366339876108806,-0.0126459543799487
0.00828190455077819,0.00803171872812653,0.0122421237804914,-0.0197518248648923
0.0116011591513765,0.0140437799254068,0.0252517231503488,-0.0185117656772341
0.0065622024435035,-9.57793690492979e-05,0.0300743234222956,-0.00819015231225012
0.00304262132504957,-0.0293888337702643,0.0210823636673225,0.00473763495169722
0.00617881065371098,-0.0699895059585181,0.00293310589450762,0.0124373373682163
0.011704276872535,-0.0899097726421453,-0.00640716049690533,0.0124188512254673
0.0137177190712419,-0.0689136393779494,-0.000479293876223969,0.00806647805410958
0.0117235522229128,-0.0467981976906543,0.00757489433912248,0.00415798914554407
0.00801741671308247,-0.0495878730242957,0.00922332513435538,0.00333525093742797
0.00359429931768613,-0.0549991797859623,0.00595208061825296,0.00573649917581264
0.0029125191674946,-0.0431348422039339,0.000977113106538231,0.00940477654131341
0.00901915544124999,-0.0230079478361068,-0.00367328291281188,0.0106039083934163
0.0158771895757493,-0.00663688266120295,-0.00731361192594379,0.00608962786600692
0.0167751497004646,0.0125849587047514,-0.00911353227905626,-0.00270527582720724
0.0154011559156169,0.0361437693942821,-0.00912634515560815,-0.00973303068615412
0.0147332052654381,0.054352825740911,-0.00941990713572705,-0.0109280225456134
0.0144450070413089,0.0665911642990654,-0.00675877279587148,-0.00802436464554941
0.0171576262558811,0.0698245127761081,0.00280652749349336,-0.00469864938495123
0.0199719844026851,0.0480325436551279,0.0104979766997269,-0.00199473864800984
0.0195741995585169,0.00447418769060838,0.00691801347148654,0.00116439026052419
0.0194978829145554,-0.0260125158534075,-0.00284735084897278,0.00476791069459367
0.0260524405155112,-0.0337398414120397,-0.0108230563850193,0.00709208185761485
0.0370331652640864,-0.0474535364458239,-0.014800177287591,0.00727906064477385
0.0388900836291191,-0.0717938361043685,-0.0153238610286089,0.00639547240778708
0.0238422355086403,-0.0828626714412162,-0.0114523215324269,0.00491032957372886
-0.00249048732666397,-0.0757214663392316,-0.00462242700350039,0.00208946942741601
-0.0289165618351492,-0.0695700385716715,-0.00175779030586209,-0.00187439128166235
-0.0458757798702427,-0.0697169896939418,-0.0026570629189936,-0.00573528133059543
-0.0456278877343185,-0.0538252604071869,-0.000326928575654816,-0.00762260936662734
-0.0229942618163039,-0.0117528341882396,0.00390570652870702,-0.00601451825983403
0.0111756078352205,0.0199687710826193,0.00244417445146463,-0.00225621514761348
0.0293078587666874,0.0057627998387494,-0.00439650782219852,-0.000827608869809518
0.021018525701198,-0.0242457529406893,-0.0109713764026009,-0.0050921632320537
0.00494569207551809,-0.0238456595193184,-0.0137242833458149,-0.0123522080302827
-0.0032690077694872,-0.00119942340968844,-0.0103888805874286,-0.0160785682208101
-0.00470430005049163,0.0119824423041519,-0.00471683076807147,-0.0124398028874562
-0.00334218378875637,0.00719555267408492,-0.00390364031941216,-0.00226847840831711
-0.00542857604698776,-0.00341494094462903,-0.00633423926588375,0.00951062420675982
-0.0142543743324875,0.00206371350846041,-0.007003572694396,0.01671922310725
-0.0152571012507888,0.0310584118089384,-0.00648809072248712,0.0175136997974899
-0.00187443458138934,0.0607727847512456,-0.00491889524265232,0.0141144064788042
0.00674912110453119,0.0662383353719949,-0.00241417414073253,0.00832210997660431
0.000133047105226467,0.0499788412467334,-0.00241245677570583,0.0015711489756212
-0.0116107663436336,0.0284712003839097,-0.00663045824980074,-0.00338957224764965
-0.0164654653103497,0.0112872473585668,-0.0128940424911586,-0.00436167113025773
-0.0160204017271434,0.0118367461598067,-0.0136951915529782,-0.00144298515379304
-0.020847124820951,0.0314512529680263,-0.00316357545480378,0.00397191114351116
-0.0264705592236286,0.0500957039439962,0.0123587661896179,0.00891566357600282
-0.0220052221027375,0.052676220465208,0.0200358151933668,0.00950696058837797
-0.0100906090334794,0.0384746461867705,0.0183405063852908,0.00479833084233143
0.00117431502515772,0.0223840699075615,0.0165964853523686,-0.0020639867852782
0.00617213004242097,0.0182149694064369,0.0156118575938157,-0.00754637588878836
0.00487948176775248,0.0168202033615683,0.0118610758633212,-0.0112861740177621
0.00605376895519454,0.0109337537234783,0.00670262373116927,-0.0140674100853006
0.0114624398522782,0.00300767576967562,0.000660347145571484,-0.0147321389871236
0.00583077382316215,-0.0115617798935344,-0.00626447017209407,-0.0120647182704945
-0.0153322961672732,-0.0182704611400068,-0.010144284199496,-0.00701163441679922
-0.0337276225940335,0.0075573710699227,-0.00676000298416495,-0.00138704905607058
-0.035803482420096,0.0448806571914383,0.000393533641778258,0.00381060239082446
-0.0251801931456083,0.048938722901009,0.00265438748573519,0.0081113421952306
-0.0124249927389534,0.0300551415987712,-0.00189092747592667,0.010241315806068
-0.00707850731125993,0.0288996550181594,-0.00523121275942988,0.00901868201154144
-0.0131554006607004,0.0408253637258709,-0.00503696228790221,0.00592354220867961
-0.0282785737105542,0.0383330214550619,-0.00528373522286017,0.00361379887278042
-0.0435993293812694,0.0184029228089052,-0.00428098918999117,0.00265268918511165
-0.0522611100938407,0.000214329154299205,-0.00156668160547345,0.00194840331485888
-0.0550228770963258,0.00313236583368293,0.00157470250429845,0.000623200110614591
-0.0505075823389493,0.0165880540044065,0.00187302493099177,-0.00129824138453377
-0.0428729877722871,0.0149338016134554,-0.00366644350359099,-0.00273845818875287
-0.0408459235909359,0.00851743103187538,-0.00501434753321114,-0.00235952065137604
-0.0408468259674073,0.0146261364657168,0.00362466464767188,-0.000215594196072287
-0.0329679085928955,0.0217485508758799,0.00878975073074558,0.00201336729108974
-0.0157773377329654,0.0211881304120553,0.000533968051048016,0.0026386986613419
0.00372290097015644,0.0145125230055566,-0.0120892188457941,0.00160525503437021
0.0213417258123308,0.0096979290403318,-0.013049799321342,0.000397561996776372
0.0274541941026654,0.0105724564383041,-0.00180885772730138,2.21949971429204e-05
0.0154780433965328,0.0151563926835949,0.0128263998690884,0.000396717015542036
5.71487906939425e-05,0.0263757912434045,0.0256473215096405,0.00148795896711109
-0.00650218319059707,0.0310077794013111,0.0245984606708866,0.00317824356636606
-0.00726185148886812,0.0163580039689554,0.00553923513545814,0.00454376837296013
-0.00581976666906014,0.00151624745943434,-0.0119931488961335,0.00384813701915861
-0.00242984573666215,0.00177383908890039,-0.00946398517718311,0.000197125435549939
-0.00370159129022081,0.00203576798767316,0.00695715225418436,-0.00485961639225538
-0.0117789719858053,-0.0161251249910756,0.0171080819905359,-0.00841297446636529
-0.016467441584365,-0.0431606769602433,0.0120702917207738,-0.00902177216429611
-0.0170910962666267,-0.0492469741908892,0.00373157316505014,-0.00774748747610579
-0.0216640587315781,-0.0362411117020197,0.00352615001994283,-0.00581051497634457
-0.0282725359105586,-0.0314785256372443,0.00584509008168087,-0.00367930359783348
-0.031428206375415,-0.0385086832519847,0.00391612616887397,-0.00201070999316725
-0.0321714500800413,-0.0446963183438459,-0.00180492320038051,-0.00111074530109422
-0.0286356432617311,-0.0379574157282117,-0.00551482047063865,-0.000441804616728466
-0.0173447680023962,-0.0200686022085131,-0.00475914353181819,0.000985243659955905
-0.00448769153126854,-0.00915216184120923,-0.00755066198370627,0.00337473252942079
0.00462092964938714,-0.0053627109824622,-0.0138740762934921,0.00500863417579081
0.0113223483418329,0.00844604780614869,-0.0138108810321122,0.00416040713406602
0.0141768329472926,0.0373512986125908,-0.0055875446582459,0.00177325261879881
0.0120085967568712,0.0708055806047017,0.00457707211211405,0.00016483713350549
0.00995356187706975,0.0897249425243165,0.00983342263298701,0.000283701308868467
0.0127897492088147,0.0755240036958278,0.00557361929959723,0.00134183447096321
0.0183678723397958,0.0358837238956829,-0.00271070565265842,0.0019464732504805
0.0185003062984476,0.00179209614258859,-0.00430140385386901,0.00137190900193733
0.0102914094338387,-0.0134918653509128,0.00190428391745168,0.000125155596686674
0.00390962692163858,-0.0172895163061087,0.0106032729075698,-0.00144539847083323
0.00879349844598638,-0.0217958207418147,0.0167647088170298,-0.00340716668306349
0.0219490284131609,-0.0362508073831764,0.0170489413838183,-0.00457985601875836
0.0244811139051277,-0.0551667170762421,0.0129132230180857,-0.00417101444864776
0.00743687653583479,-0.0655865164841116,0.0101277099494331,-0.00354237192754916
-0.00757998880175122,-0.0601152102685299,0.0145103906178966,-0.00363647580977138
-0.0026643449020189,-0.0443434464089958,0.0212000098839531,-0.00349904530511263
0.0158578579805266,-0.0282835010098165,0.0212248449094882,-0.00285865061078156
0.0387771276292164,-0.0134121873908979,0.021988328932187,-0.00277087500334668
0.0570933181324459,-0.00220162919773684,0.0296264723203775,-0.00205747710398386
0.0568323924280241,4.27146315226355e-05,0.0353181884312571,0.00327336300736519
0.040906596513961,0.000731979147102907,0.0357435511422472,0.0130045406483353
0.0255219592646134,0.00903019889634271,0.0326740943566698,0.01882678997031
0.0124988675801215,0.0153345756176254,0.02435870732589,0.0140324260074849
0.000607664901023201,0.0154205553178252,0.0145286652642645,0.00256210981696435
-0.00194023500916078,0.0136823629295552,0.00419368142121826,-0.00651114690000127
-0.000592559713381343,0.00422965835622364,-0.0151893460746841,-0.00892023076784624
-0.00455632250806648,-0.00296520237545985,-0.0366751883304113,-0.0079575315443553
-0.00712633271198066,0.018364161074848,-0.0390009855101952,-0.00878424796860767
-0.00192389802506867,0.0446874725112949,-0.023083115048662,-0.0112649791436092
0.00962779256717125,0.0319272213845172,-0.0102726000269153,-0.0106159209036807
0.0218656194678401,0.00372893170570264,-0.00714623811929273,-0.0045165794495575
0.0260044333083461,-0.0110407353377149,-0.00602868732731405,0.00300087255687257
0.0195447357302406,-0.0216747378774906,-0.00372041081842634,0.00665791008966256
0.00900494749500765,-0.0224073867373432,0.000704972845369804,0.00613288236863288
0.00547906480489273,-0.00735960654399774,0.00416360646260858,0.00454335387266284
0.00959618154245219,0.00781584894532849,0.00350481155505698,0.00380282822765462
0.0103166346376182,0.0108693544238447,0.00129872315542767,0.00394575367099844
0.00819061379745381,0.00473923186428607,0.000139034224361238,0.00487203366764804
0.00903272305379738,-0.00356098913365896,0.000738068250178043,0.00619246721515281
0.00815595864470643,-0.010687187871182,0.00165755464370614,0.00670534486136343
0.00582076532952317,-0.0137587009135291,0.001633782832335,0.00538312903128996
0.0116758683575446,-0.0102245053308449,0.0013730698943894,0.00283426486415264
0.0190412260023326,-0.00423152240298718,-0.00317947841792112,0.000553199011587134
0.0148379207890121,-0.00222606151532882,-0.0134810292057395,-0.000963662911675892
0.00521892071541942,-0.00292690494307239,-0.0212563212116572,-0.00172743777921959
0.00407796721907421,-0.00777492775171288,-0.0237979876457973,-0.00187403713512782
0.0124423587713241,-0.0215706976973039,-0.0235298118379733,-0.00177884100970483
0.0157177764123555,-0.034863251665078,-0.0219300853769755,-0.00157350215867748
0.00494451636902408,-0.0351642202789966,-0.0213957137953986,-0.00132481671205669
-0.00730535925046458,-0.0292441679584499,-0.0222884519132316,-0.00144809510818058
-0.00979268367084103,-0.026104667527188,-0.0217472973256053,-0.0025428824064407
-0.0100591005843673,-0.0229173106878989,-0.020363103420947,-0.00389996632449883
-0.0139803084825653,-0.0211474029548873,-0.0218694259756393,-0.00316449656488023
-0.0161911995833853,-0.0235145024300739,-0.0263206275514043,0.000105784424879756
-0.0135274884456891,-0.01799245951691,-0.0292677911681528,0.00302618260657799
-0.00790674824773877,-0.00230136237462483,-0.0297444931437284,0.00362277327371489
-0.00160295176504683,0.00434853862491613,-0.0325635981480509,0.00278640979733218
0.00330134548460095,0.00412296029515308,-0.0352935231208855,0.00209689903175912
0.00906279918812791,0.016200679692577,-0.0326552556359343,0.0021941108887936
0.0195085817966467,0.0401378853240187,-0.0265264083570901,0.00264828078669465
0.0327470325825144,0.0698409086013869,-0.0209192744073237,0.0028890195642188
0.0405070890917447,0.0901690928701629,-0.0193223920053837,0.0032625627412139
0.0316400876006159,0.0641578169868844,-0.021668485786374,0.00425936299728179
0.0086042897387146,-0.00926831069065577,-0.0258171144919611,0.00459120931756573
-0.0127078398357384,-0.0706141803086538,-0.0285292491156182,0.00241289218550811
-0.0204585531788215,-0.0789764440208488,-0.023376907791611,-0.00155532315983209
-0.0165811574926386,-0.0642215590806779,-0.016086323420338,-0.00437149157970043
-0.0148968936608272,-0.0624154413620485,-0.0156866041869021,-0.00488250365125688
-0.0178124772899463,-0.065024950022621,-0.0164854279164472,-0.00467335764804411
-0.0153320021252243,-0.058114211867363,-0.0152122866330634,-0.00444260840710634
-0.00405144760753418,-0.0437441242449507,-0.0151839938547167,-0.00311017951241922
0.00582286677508472,-0.0206991465859755,-0.0181835524786988,-0.000538251264991444
0.00123328300635914,0.0109766495058535,-0.0232766778828578,0.00130243944308068
-0.0112753000944534,0.0308956067661725,-0.0226543990817083,0.000496282392272037
-0.0124141882886826,0.0247166940560687,-0.0115517016221483,-0.00271269286570791
-0.00188910132624431,0.000224049242238601,-0.00336508134785528,-0.00593903534958054
0.00405685791939736,-0.034694525918061,-0.0122409966051921,-0.00644727345138318
-0.000483100512366098,-0.0605648187426686,-0.0250912314596674,-0.00406019342072033
-0.00847811533991594,-0.0579469807666825,-0.0216375061164129,-0.000894878278605252
-0.0055223280793943,-0.0361394395703592,-0.00500623614834283,0.00172908541324528
0.0164603662968793,-0.00972469874943085,0.00655090042111797,0.00376633858679806
0.0489747543546847,0.0151047489329268,0.00331875768794539,0.00503401242448838
0.0704948916825126,0.0267431463027484,-0.00376796937078269,0.00512895661843158
0.0633985888751518,0.0208287128779632,-0.00282328131222369,0.004323087336312
0.0377803944431324,0.0154156774792064,0.00557995948290049,0.00371112199996124
0.0154064765105585,0.0184638244144083,0.0177757938096738,0.00385646391348179
-0.00224286075672467,0.0176464785635673,0.0239096156023281,0.00393030658634793
-0.0248398488087029,0.0143913584560646,0.0169943725421435,0.00346292948799092
-0.0472799096804878,0.0178968554386696,0.00608776679102758,0.00310298833389842
-0.0587811485518861,0.0185679290068226,-0.000726535962617628,0.00236650316495939
-0.0586152992689042,0.00373675471382444,-0.00469892987222117,9.26992834508721e-05
-0.0505723333147905,-0.0167533567189732,-0.00634484158732633,-0.00361528416804995
-0.0381553577839952,-0.0249988732603996,-0.00581933547482349,-0.00863335931885247
-0.0240175799352081,-0.0204655526170506,-0.00295292728422105,-0.0143192230023257
-0.0133051850589487,-0.0146932039022405,0.00266741476825908,-0.0177864233867204
-0.0107859931335981,-0.0156982491310694,0.0053525752661545,-0.0169065479496891
-0.0101113791784705,-0.0219761919100027,0.00269968270450463,-0.0127042475806706
-0.00101344133976201,-0.0238694344379716,0.00277129974069678,-0.00689542263724435
0.0130935464473098,-0.01450386600779,0.00861690283562609,0.000151048471330174
0.022405087306705,0.00629209300518074,0.0121184724173895,0.00788623007892018
0.0230730060381799,0.0376387981468245,0.00927704917876505,0.0129941183682682
0.0135528583980982,0.0658673149041534,0.00442259385113064,0.0121280685406223
-0.00380259350172356,0.0679526578383063,0.00102493091333001,0.00736202746274371
-0.0182148127792145,0.0444719486976205,0.000245867555304315,0.00390269252307225
-0.0176639447524961,0.0171430093022439,0.00257552001850374,0.00353497209956016
-0.00245925773737964,-0.00442071331735361,0.00543420551222608,0.00386126610539106
0.01314688730109,-0.019622781092834,0.00314812188502444,0.00257422927668799
0.017986958727308,-0.0168573229984905,-0.00398449570034281,0.00013362388922888
0.0146979106209161,0.00728208964802765,-0.00887594967507936,-0.00155302188210275
0.00719162794931744,0.0385241696562858,-0.00558500795061659,-0.00155767835488365
-0.00381052086985272,0.0560708724567468,0.00629534541972551,-0.000852938090246425
-0.00966782316224492,0.0446137500744601,0.0177546231470931,-0.00112703165621676
-0.0116395432915051,0.0182473118692781,0.0168373270798794,-0.00283608137620798
-0.0249158934834948,0.00964014572537376,0.00734953806999027,-0.00481944014742758
-0.0438740065408586,0.0236841846006388,0.00243600698826202,-0.00603228182701696
-0.0523525628620284,0.0291742418619081,-0.00168658626052972,-0.00694181645755475
-0.0447566520524929,0.020796516585439,-0.0111356164308121,-0.00820528863288514
-0.0277988597034022,0.0278218288114431,-0.0151425594746964,-0.00891817858473656
-0.017143480645051,0.0454615812092632,-0.00891577525505506,-0.00771153187034571
-0.0167475014180967,0.0626377129008507,0.00387615346452244,-0.00467975858132162
-0.0171549352883339,0.0787721180750146,0.0170396985388469,-0.000907057489685092
-0.0140588353043845,0.0581822958547446,0.015767949300347,0.00267733085079382
-0.0162044828991913,0.000498112174629556,-0.000888833855757349,0.00564960411070234
-0.0218142510009424,-0.0343682131995692,-0.0161411701595821,0.00775988328831217
-0.0134221109977173,-0.0200477015511726,-0.0204215563396688,0.0085921925821784
0.00739823007190352,0.0184869658002167,-0.0149655544359045,0.00869720492362929
0.021366417763462,0.0443888534557408,-0.00369077570792537,0.00980862803225844
0.0217064767917424,0.0353660881653714,0.00596860496911039,0.0121574694478003
0.0142033307331116,0.00182630729661079,0.00586934772374638,0.0129335685286498
0.00360980372914789,-0.0273046592190973,-0.000767710493529367,0.00975951215577925
-0.00658636840645824,-0.0287359266805703,-0.00229269409904946,0.0041205339406871
-0.0133186289858572,-0.00578505710251434,0.00453729145366827,-0.000860750195744355
-0.0105370434689183,0.0181300551385521,0.0139118261390011,-0.00425960154381815
0.00666597927715874,0.0286358801823745,0.0213632580648262,-0.00704650995735603
0.0280860579677681,0.0240935624751958,0.0240758347932478,-0.00935658736570251
0.0368207339168356,0.0110239707175424,0.0221231951363046,-0.0100396946481372
0.032679044351225,0.00485651052182688,0.019281913470125,-0.00851373985259081
0.0291260797875047,0.0216168081490294,0.0167301471720666,-0.00574936910004289
0.0262489342297732,0.0409761079494465,0.014718166741133,-0.00306696302590883
0.0115990260116221,0.031932799674805,0.0137738704476507,-0.000819734642201552
-0.012261828571624,0.00824116810551102,0.0123931480179637,0.00137046452877018
-0.0256120381572678,-0.00684232438865259,0.00883726947162668,0.00378556011848865
-0.0216894829915582,-0.0100154318865867,0.00475790446220072,0.00623065327033364
-0.0106686169357494,-0.00683803771292146,0.00347934411002892,0.00815285719513409
-0.000327860674220018,-0.00423126202667709,0.0054957670372399,0.00950686283263261
0.00505983690250646,-0.00549189013828917,0.00840508156231644,0.0103351448712054
0.00477766085234614,-0.0115018042415173,0.00779695167899288,0.00979303592532995
0.00491677839677166,-0.019733789778047,0.00416306175339924,0.00708813582110215
0.0128639694710406,-0.021118202119712,0.00406380560393476,0.00204154552330024
0.0261733991687984,-0.0140029506318942,0.00610053159662717,-0.00425551553993855
0.0312719474825279,-0.0128980360192183,0.00189673281369458,-0.0086934123766953
