0.0357253593088526,-0.0275026527260063,-0.0307604319861419,-0.00233706267481633
0.0230175863368051,-0.0459067181357695,-0.0263554009923783,-0.00260406893517058
0.0159404555220323,-0.0597786157220525,-0.019926927002638,-0.000575721221872019
0.00877782797321956,-0.0731609531094797,-0.0135901085590018,0.00240051013426365
0.00167701494959658,-0.0878848113321101,-0.00679637271000611,0.00515796224276163
-0.00583252694180754,-0.098207055868003,-0.00130103130136465,0.00716542940825046
-0.0141962051726929,-0.0946389664504516,0.000903306195978707,0.00701358662092037
-0.0192074455176101,-0.0740788858314362,0.000120287563832664,0.00378768339517005
-0.0205819331132775,-0.0476347395144191,-0.00222252608050972,-0.00171277454236854
-0.0225100116350176,-0.0324922125915657,-0.0051041455211228,-0.00706870278235216
-0.0229593079894053,-0.022867203616837,-0.00845772033544322,-0.00907139508666006
-0.0180187766300114,-0.00570932339827347,-0.0112333010834881,-0.00725189872554183
-0.00678284480332921,0.00751822916800787,-0.0132646797178709,-0.00447340671708617
0.0107936098174574,0.00956324123192742,-0.0148570118221823,-0.00307850672409387
0.0254975363002601,0.00250321713039586,-0.0154323693180003,-0.00265431148495496
0.020213578916789,-0.0226490398703964,-0.0175734001090147,-0.00154457589383723
-0.00901499761477592,-0.051205875336009,-0.021305791041629,0.000658864655945084
-0.0362382464278176,-0.0467702612846344,-0.0195908675341074,0.00301193357791173
-0.0311508180452046,-0.013875378735694,-0.0102274534047894,0.00465674762467819
-0.0044197712087978,0.0164679605936681,-0.000724560530895304,0.00527269742696133
0.0140780295231888,0.0385342585944646,0.00476237469320686,0.00543435987082339
0.0218375412870316,0.0521029735469856,0.00889858052747601,0.00662631712353968
0.0196898312502876,0.0463849671794026,0.0105321087804274,0.00863521746292648
-0.00121093478792839,0.0201770540616338,0.00618730085061611,0.00824527123882301
-0.0260270277061366,-0.00609904038195086,-0.00186109969776714,0.00351980763975935
-0.027833434332885,-0.00498427396840768,-0.00473660028083792,-0.00269929564911942
-0.00773624170405984,0.0208753588585367,0.00110073906471888,-0.00604765095666598
0.0105408595875235,0.0459820342217358,0.00992197850719626,-0.00514504925981473
0.0166737987297666,0.0502393104732022,0.0174436976814629,-0.00174372739838673
0.0135618078755573,0.0251084197919115,0.0227489255666721,0.00176088563285681
0.00705247874101496,-0.00857849747531953,0.0269835770044368,0.0038712374947891
0.00499090171352822,-0.0167662763579191,0.0305110042424897,0.00416386842296905
0.0026744112027678,0.00209856608688599,0.0290654982671151,0.00319329344397658
-0.00466472046960157,0.0328520581883328,0.0197801102319825,0.00169557654820192
-0.00809361233390029,0.0658213595914468,0.00810103691010811,-0.000117476638112309
-0.000680480089457886,0.0829769755674137,0.00253366480903878,-0.00203895731099323
0.0121993261865939,0.0802045947367793,0.00534907530791183,-0.00350657005307769
0.0172309838995761,0.0694138417122069,0.00994040677091869,-0.00431053455649869
0.0151007707196704,0.0535425271976417,0.0120215211879969,-0.0043501064913086
0.0147443921434767,0.0361549865957386,0.013828338213589,-0.00317382295021134
0.0112057866626163,0.0142188488662066,0.015144423512199,-0.00113165538341219
-0.00140233166912949,-0.0200972102352934,0.0145594457615052,0.000686539775270161
-0.0200424823053935,-0.0589099400531771,0.012741389492412,0.00224148477522151
-0.0405106348752334,-0.0921281677064974,0.0122695402069023,0.00430289692658386
-0.0566979868057907,-0.113536251693068,0.0130144219469087,0.00647192218637759
-0.0576327997766697,-0.114355923774825,0.0119819520091089,0.0072228942826842
-0.0423790793478754,-0.0906999530983668,0.0107598280192688,0.00588226749447052
-0.022834911532861,-0.0434516566014148,0.012238250342798,0.00365833742845726
-0.0069156776759287,0.00971724858077028,0.0133755415838355,0.00219573730435275
0.0104493855802126,0.0417664724621133,0.0114535023953681,0.00141062424126701
0.0286407977280523,0.0513301781907641,0.00949344585766219,0.000215468405652286
0.0317818512469706,0.0456808512434723,0.00972298972662894,-0.00147913619740583
0.029104373347056,0.0384777729532267,0.0117806167303125,-0.00357876366674918
0.0437087734883581,0.0510661719876454,0.0145960561225161,-0.00664365798124343
0.0575015282240301,0.0736650982459902,0.0149581372626469,-0.00986707953228634
0.0361277774680876,0.0882460846308221,0.00803444683294968,-0.0107556696586121
-0.0154155604472444,0.0969507075184824,-0.00553948004764226,-0.0083617661081098
-0.0603403823268741,0.100380402213618,-0.0176605243387554,-0.00459231238907404
-0.0761667417987027,0.0843341131423108,-0.0217480771662403,-0.00174361507269492
-0.0760011016091261,0.0466963891514597,-0.016936372740003,-0.000601355107588016
-0.0863313732205735,0.00999615402197102,-0.00881741071359869,-0.000619660625929363
-0.107970292919267,-0.0257189078785479,-0.00618563493240042,-0.000869341421204094
-0.119963083994416,-0.0721066466068817,-0.00928915161877149,-0.000856289685110321
-0.107069036832227,-0.104436228961134,-0.0135851058867264,-0.000328028110977775
-0.0680451941622729,-0.106460262448966,-0.0173088681704281,0.000484815371274892
-0.0199057851332121,-0.089358317717724,-0.0186571659368748,0.000600365619183901
0.0115386388821304,-0.0568229254550833,-0.0190628173360245,-0.000475195059601441
0.0149209455440385,-0.0137613730581625,-0.0196159671393844,-0.00203204470185521
0.001466053161146,0.031995088721942,-0.018668370044253,-0.00312477177454344
-0.0114912131717901,0.0735073400371712,-0.0154289077986226,-0.00365329801723078
-0.0140668180703307,0.103813622877845,-0.0105661049677238,-0.0040920629747772
-0.00430714597546523,0.118577495819396,-0.00517442810789907,-0.00464137509655622
0.00994983002764596,0.117572118511281,0.000250720743721997,-0.00504839883423651
0.0170374042401016,0.110304588468595,0.00451623852095448,-0.00505720112398359
0.00758419101994195,0.101716254069273,0.00617546312324387,-0.00461146824866262
-0.0176802939777712,0.0854932408630492,0.00344373866054908,-0.00375613064694338
-0.0418948407596824,0.0497971977973117,-0.00327035464989401,-0.00201045521862582
-0.0533394567273904,-0.0212310779324373,-0.0112308353551331,0.00120762384626658
-0.0542223689451215,-0.111213473714631,-0.0181708740362208,0.00400341635443198
-0.050908529902192,-0.16330850782631,-0.0219864848526755,0.00346149468446868
-0.0462962900416173,-0.144683829159934,-0.0216944360525516,0.000272656523610291
-0.0364770369210922,-0.0826344921969016,-0.0176090194131429,-0.00237703707919621
-0.0187726850456154,-0.0260074820654359,-0.0112738319319943,-0.0028638383765004
0.00387888540104487,0.003001609634008,-0.0053448467442463,-0.00168622359597386
0.0226867662497216,0.010530790503854,-0.000581021303408934,-0.000157557530265215
0.0310171510557888,0.00613485394280819,0.00336995879595471,0.000777211554885658
0.0326831356155965,0.00207504031508528,0.00672791649575354,0.00122284894868713
0.0314401569247214,0.0130627876676187,0.00910555719555274,0.00173513163498283
0.025625539458202,0.0298445122382651,0.00921305797707639,0.00213395738407214
0.0163553692013507,0.0371585756701157,0.00918716825646927,0.00194328365692788
0.00329029309541402,0.0392105830910556,0.0111334396222394,0.00145029930120767
-0.0121323050087209,0.0405876882741156,0.0142778844479578,0.00111330632276552
-0.0207868962992847,0.0410587996956847,0.0170890653967582,0.00103078889634044
-0.0206102897818544,0.0394743440030127,0.0169956907842555,0.00124456180034613
-0.0179627929492037,0.0342021686385438,0.0157709817231276,0.00159013219142162
-0.0149557929817153,0.0271625537371476,0.0169929475613808,0.00160833548730728
-0.00772661672456666,0.0265292153819053,0.0197626613884845,0.00136037241868417
0.00565413019893767,0.0370436010516469,0.0213994562034788,0.00152672784610476
0.0183827255813754,0.0450171691683091,0.0196704074632262,0.00251681563739491
0.0193839935749099,0.0413365709598189,0.0164000367782075,0.00407280424908241
0.0136187658404754,0.0373256803121869,0.0145756458250839,0.00551753426654542
0.019962580898614,0.035949905308067,0.0125974720992305,0.00631217117988496
0.0403466983990626,0.0311546752691105,0.0093548694291299,0.00617489085655584
0.0619085522652316,0.0291344949160086,0.00698691120469409,0.00536343792943225
0.0808591614135912,0.0263285765939647,0.00763670653443272,0.00447665242945233
0.0954654006620993,0.0042124797700455,0.0108348699174029,0.0035191622261012
0.0942521820732084,-0.0459275827254024,0.0135044707385213,0.00234439511179587
0.0692883308905824,-0.107074768509453,0.0123297973957399,0.000911393743028692
0.0320319790667148,-0.1388097681999,0.00822139593401439,-0.00112051591045009
0.00271102097593164,-0.118428897794999,0.0065919671352156,-0.00331700926399646
-0.00861299910115469,-0.0615739135618125,0.00772705349416016,-0.00445003438315279
-0.00296455577573355,-0.00588719226485773,0.00836852385575268,-0.00428172780611156
0.00716946357408677,0.0251462483463239,0.00957224692826405,-0.00366968149028862
0.0122975414056378,0.0406309996182627,0.0103803713958861,-0.00319580891626179
0.0165939635162907,0.0609588297739972,0.00945163953287533,-0.00258800499752872
0.0230008412288874,0.0849488188101574,0.00756424659724312,-0.0014736469531803
0.0291382783725011,0.0881757204928523,0.00474294568064645,5.91910922858457e-06
0.0255193650161566,0.0717313969968095,0.00159948693483131,0.00138704782504559
0.00312147582515542,0.0639416612013073,-0.00419022716793774,0.00212335721973027
-0.0230518157335663,0.0729901050664748,-0.0127763405354169,0.00190963220360802
-0.0334417959086112,0.0672283293301823,-0.0183079552996342,0.000854515754896503
-0.0296057608025058,0.0125855858820811,-0.0186828192510086,-0.000562466068942861
-0.0205052445577479,-0.0696519793544777,-0.0182691433227923,-0.00151074584091588
-0.0118741396415473,-0.12733634910882,-0.0178605038004355,-0.00161216038703104
-0.00141326766128495,-0.137562919573457,-0.0141110104333776,-0.00128387983541951
0.0205005284723841,-0.112595130947436,-0.00905271633802836,-0.000903539111552304
0.0522192124617669,-0.0740182853076692,-0.00578989717785509,-0.000660325634355278
0.0668693445023348,-0.032978223521191,-0.00237339166585581,-0.000460066385195171
0.0475813777572918,-0.00327630397417294,-0.000357271129220727,-0.000244988426005558
0.0154193371013493,6.89785466312376e-06,-0.00458724664632756,-0.000501848778887985
-0.00658239626725393,-0.01389575347343,-0.0115000682545663,-0.00138776338752959
-0.021289784730902,-0.0311956233029704,-0.0162086153310718,-0.00245205241311051
-0.0373755214764415,-0.0346513814654491,-0.0198997846206131,-0.00352953612785683
-0.0484544432777091,-0.0113414471385198,-0.0217095245577296,-0.00475218451852226
-0.0463946907548421,0.0109690270967546,-0.0190596757488969,-0.00587294224897698
-0.0315654030489653,0.00981041311938946,-0.0138313433513421,-0.00615493688932366
-0.0134722832713231,-0.00835498870497006,-0.00948377760652953,-0.00488791488074251
-0.00371659373955762,-0.033221994481695,-0.00706481008250424,-0.00223132070110577
0.000477013819024943,-0.0576856073427128,-0.00564516906763403,0.000517228648955816
0.0067006337714612,-0.0797038694291803,-0.0050918873458515,0.00183548901108592
0.010745631987833,-0.087431446414781,-0.00749291498568817,0.00131772863907816
0.00412364437158905,-0.0720703628566862,-0.0111276432472674,1.98573417873808e-05
-0.0069429429806659,-0.0517854779428094,-0.0137074023204019,-0.000831364198446264
-0.00329837187002925,-0.049823207044829,-0.0149233664400942,-0.000782295508749483
0.0172483623752055,-0.0689205310469701,-0.0131300384548667,-9.9800378693275e-06
0.0353375092887432,-0.0915386681999977,-0.00923985492103248,0.000859066421075635
0.0402429412019292,-0.0930028941166452,-0.00442496974364401,0.00156150821796201
0.039409513589336,-0.0712097534653085,-0.000252111538771628,0.00237177798713794
0.041348526875975,-0.0433857403696204,0.00147986269767743,0.00339501051556182
0.0463338247770481,-0.0178194755714914,0.000534201555926079,0.00439105064459371
0.0479563060013263,0.00268629191914292,-0.00122240389773963,0.0049381141865498
0.0416170060850709,0.0211346558355918,0.000916766051083743,0.00490789764649953
0.0300917917433374,0.0380947364872146,0.00388402723385347,0.00480762940773735
0.0169232128540282,0.0450041351067338,0.00376418032105678,0.00494067958939695
0.00993564921422507,0.0461069882383373,0.00653624677551659,0.00496190665760462
0.0111057678847918,0.0417885269602112,0.00997184374315004,0.00476650687170907
0.00592736709034598,0.012152392372218,0.00489929817458568,0.00412215735541317
-0.0153301235356546,-0.0380529920626566,-0.00212696906468423,0.00239142286768624
-0.0386252710299048,-0.0706547779281302,0.000127843174782364,-0.000280496326153039
-0.0464867374156588,-0.0639445235827511,0.0076026276430901,-0.00288304013013951
-0.036671397413686,-0.0325042162492592,0.0124739160152769,-0.00437122669207334
-0.0176213969896593,-0.0102262438193029,0.0142260521515671,-0.00428311096275826
-0.00672562050332422,-0.0129722710403962,0.0123947352626734,-0.00301493160569261
-0.00846517631716029,-0.0219244423548779,0.00795710139252974,-0.00115879071507683
-0.0102951022832562,-0.0162185959726466,0.00518320193800285,0.00100958436901917
-0.00496436431888952,-0.00556479643464067,0.00345890879172985,0.00314811017253602
0.00820687591554364,-0.000902714230000282,-0.00128489274980842,0.00478016640613119
0.0294108258720178,0.0193891353718071,-0.00616391308638072,0.00603081888598601
0.0539917128934017,0.0641853785490321,-0.00350451079539532,0.00762224510757698
0.0785714553117702,0.103023304048105,0.00363724722299681,0.00966716378164226
0.10260612573365,0.110998831076307,0.00802959069136138,0.0111790967941023
0.114138613424031,0.0964781598008589,0.00978189160636915,0.010526873099591
0.101215753020702,0.0801631506948861,0.00915003897235455,0.00711720724536555
0.0692993027191477,0.0666363840568198,0.00530502739814623,0.0026460737946058
0.031093657943463,0.0589522484104717,0.000398078531924662,-0.0012818841212183
-0.00363643798170961,0.0633112215079835,-0.00237755956375606,-0.00519410563587957
-0.0295115910949281,0.0710002462138331,-0.00119234272961483,-0.00925311267729508
-0.0461664731838424,0.0803796493310882,0.00464772542560672,-0.0114069837503173
-0.0578162971979455,0.0895659914922689,0.0118391443161422,-0.0101730456909607
-0.0742856418454378,0.0889595177443849,0.0148242383726527,-0.00609653690530163
-0.0980946818515684,0.0853102208439179,0.0107988097723815,-0.000579867563232925
-0.117974682886647,0.0834007744367917,0.000461390794623054,0.00347258715811672
-0.123792071255061,0.0738426314344741,-0.0105929039787112,0.00275361057391303
-0.120792377088563,0.0442529952810614,-0.0184888417761792,-0.00206239523180061
-0.116976093698336,-0.0101509383017362,-0.0243369028413301,-0.00664262925245345
-0.10486796610171,-0.0653395407528263,-0.0267536636974113,-0.00804692632122184
-0.0852015682615015,-0.0903640012963928,-0.0237877328298143,-0.00571097909156066
-0.0772630217902664,-0.0861568982072077,-0.0178302979797839,-0.000532774135437066
-0.070921476325014,-0.0790498658307972,-0.0134683424652826,0.00509728316361599
-0.0285886806511457,-0.0898135074651933,-0.0115209031778359,0.0087787021127111
0.045302398262807,-0.0917301922186539,-0.00883459017975811,0.00930446879861515
0.106803012168635,-0.0375314808160663,-0.00359334969189486,0.00797155525915013
0.127211032962134,0.0545403157548516,0.00213652758579247,0.00721311668291029
0.114377699863726,0.11958061574815,0.00590169316800943,0.00669801429657385
0.0856689851182849,0.133687296701921,0.0080279770153222,0.0041927498278667
0.0475650283740723,0.117893369702641,0.00886456544986342,-0.00143899707144409
0.0112667236343364,0.099115090649981,0.00947032992397506,-0.0087707249040834
-0.00822342308763352,0.0878430687279342,0.0101602421572178,-0.0142977547054552
-0.00784868308186487,0.0720048149873214,0.00960160936358508,-0.0156144536215333
-0.00210680003391622,0.0428508952152936,0.00900047771909837,-0.0131081685173289
-0.00110131213395893,0.0128656189420573,0.0101297523172746,-0.00867263468953072
-0.00623570000889941,-0.00455379435633742,0.0128368555632527,-0.0038915315257525
-0.019420824468432,-0.012725236449684,0.0125126844971421,0.000438020810428366
-0.0343586892887667,-0.0278424324702958,0.0062433994710313,0.00342220998689716
-0.0485632141422232,-0.0599798008831054,-0.00108482094901679,0.00424426948110446
-0.0638169437282506,-0.0958592036204624,-0.00631969405915279,0.00359034156991105
-0.0722408747892266,-0.108779499740476,-0.00861963809307836,0.00295745563719499
-0.0625384318507072,-0.085252006392474,-0.00856128282805346,0.00278984252866302
-0.0322336545107252,-0.0560244850573506,-0.00881555916540934,0.00256148565603168
0.00103653798296206,-0.0584946587497935,-0.0109269383978977,0.00156076932214921
0.0105135715789135,-0.0707392291165879,-0.0145177148040791,-0.000653206909815336
0.00211335156396861,-0.0547654136466986,-0.0155583068348861,-0.00333838487323573
0.0108021662419796,-0.0171732946573963,-0.0107501164168177,-0.00492414529403969
0.0404547125591175,0.0155395750896597,-0.00119418355981131,-0.00487335529605588
0.0668950191173886,0.0324231776445787,0.00892072424924208,-0.00381112664104297
0.0799642158371999,0.0345271254830044,0.0146492619393577,-0.00229400066505412
0.0792177118298595,0.0297489281854995,0.0154117180669031,-0.000436647840549286
0.0653075316567725,0.0275493855136836,0.0146949768341016,0.00159477154907616
0.0407519763835797,0.0157424602362096,0.0134259546050322,0.00319972970180676
0.0106908957820929,-0.0207172825667841,0.0103932484823527,0.00373465435402565
-0.0174369662130188,-0.0671437782491253,0.00574784728816418,0.00332457624684231
-0.0359712242211496,-0.10228293004231,0.00110038151737982,0.00267821068864074
-0.0360331192425485,-0.119880170381514,-0.000938077738611138,0.00186549851200792
-0.0149602055128547,-0.120189886417304,-0.00247198998953993,0.000266265971784149
0.0144328978096234,-0.104994505861439,-0.00548144230715538,-0.00197658541903536
0.0319970681160733,-0.0797691463484182,-0.00531012528992332,-0.00373106808650215
0.0318976441295979,-0.0525794032434276,-0.00262504819583126,-0.00425612629134297
0.0244550355992546,-0.027170582634795,-0.00110856925562903,-0.00368975575466183
0.020982300279679,-0.000595977189915331,0.000406859280244122,-0.00261011344014531
0.0230111651615246,0.0245100799132668,0.00189390021046779,-0.0016175920337328
0.0238193139778703,0.043708322056916,0.00188471648851292,-0.0010499384617771
0.0213746494773508,0.0605224175794846,-0.000325755755101714,-0.0010012948076297
0.0170001005695778,0.0742148147935524,-0.00309430057168352,-0.00132907260967411
0.00954138770187895,0.0804144330727982,-0.00390055690346713,-0.00194473675819825
-0.00250212078147494,0.0825104818483892,-0.00315331367610085,-0.00264831642271081
-0.0180642469311521,0.0803523469921107,-0.00220803370017696,-0.00285916591866426
-0.0339246682738944,0.066821949356587,-0.00208642146761066,-0.00236247429386562
-0.0473784077096905,0.0422332837050821,-0.00272091842690937,-0.00146128514699359
-0.0610820580952188,0.0153838844153074,-0.00177203794207978,-0.000771355486180761
-0.0785707368493073,-0.00591702733088348,0.00083540643034371,-0.000638857171542552
-0.0847350660790122,-0.0179057049668905,0.00272499630012281,-0.000466963184641305
-0.06362675876633,-0.0147251179877292,0.00470004186463158,0.000298187186940012
-0.0267382338018372,0.00170882446691021,0.00801780502100608,0.00164068724156461
0.00405969621756321,0.0120074813445706,0.00931695188027739,0.00304835896894418
0.019787949935571,-0.00144664349174388,0.00528489944683082,0.00352423711391681
0.0263397148229452,-0.029619239109528,-0.000676875913921401,0.00265510482089019
0.0320680600047122,-0.0400799392967539,-0.00336394292749373,0.0010171413801384
0.0355653321743946,-0.0182224658606385,-0.00321087494454343,-0.000407663537679867
0.0309268679590956,0.0132637772837453,-0.00347698293994519,-0.0011270528968078
0.0214900826373416,0.0265570728004002,-0.00387262646704056,-0.00156120038865453
0.0199484466951588,0.0197007094820139,-0.00343211018240278,-0.00201092619378275
0.0219206975765091,0.00351220816397282,-0.00319452826543217,-0.00209764870532116
0.0102170904849447,-0.00871327884624017,-0.00301752024932109,-0.0015179303521976
-0.00637852046551141,-0.00360316502311955,-0.00223177566580394,-0.000293285360608157
-0.0168588123885425,-0.00945885595492706,0.000193593999091694,0.00114998202707808
-0.0317297450402166,-0.0545537107249777,0.00345966421696072,0.00209545384836522
-0.0625869212257362,-0.109880637645051,0.00370251437252011,0.00218339607161194
-0.10464856469649,-0.130751230672473,0.000283301748733142,0.00150743562769497
-0.122060529491595,-0.101501755961399,-0.00317172673200116,0.000680601311601301
-0.0938369959308376,-0.0535800795549855,-0.00408521944932397,0.000391758514955226
-0.0529650436258805,-0.0184800588572988,-0.00234144749605343,0.000629101328178094
-0.0331250541015039,-0.00456148090839158,0.000424556174169838,0.000939794301602296
-0.0258351625122309,-0.00485927986519484,0.00377680066121689,0.00120960238542486
-0.014371024334518,0.0045752111729869,0.00782733888318955,0.00174746977927126
-0.00471295478296768,0.0152744000318367,0.0104002273178803,0.0025209620213684
-0.00176946443365697,0.00779736654320475,0.00954204490625978,0.00302544192924029
0.00411969957010087,0.00557132420387701,0.00584096608370164,0.00297419519055528
0.0170543638515578,0.0267242776809566,0.00171405163211911,0.00237644816807569
0.027417773742533,0.0475773914824729,-0.00185242740829506,0.00121809896952574
0.0269507531054962,0.0415771723516925,-0.00108852776528221,-0.000228102951619629
0.0150006873473476,0.0146612613417608,0.0061769937148658,-0.000914063745669428
-0.00545590746744379,-0.00606723602206221,0.0123190299935544,-0.000100740449244741
-0.0162101100836784,-0.00502929600185456,0.010836976944526,0.00129021507776619
0.00218860386500916,0.0149632659359394,0.0061548153483285,0.00202114121282933
0.0259041820923432,0.0471823346847217,0.00495672165249261,0.00222885466352271
0.0249589412067519,0.0842639929263866,0.00465347275922457,0.00268630821056056
0.00895822781970253,0.108949228613204,0.00322172924132668,0.00351315097248478
-0.00922949430811348,0.10481159632519,0.00282997701340131,0.00404306930098976
-0.0290428146690433,0.077053137514396,0.00238952138323603,0.00364947109313596
-0.0430755780406269,0.0496572194715937,0.00139025315178308,0.00227186586720893
-0.0351622471603094,0.035296583907204,-0.000102484776834954,0.000364518663301275
-0.00681235791795684,0.0275047875728748,-0.00202916888055633,-0.00120182491611843
0.0163089083146988,0.0242921962424247,-0.00246837703170859,-0.00203913250517709
0.0225021232213711,0.0227763700403636,-0.000979640833684061,-0.00232476298786836
0.0223888979128198,0.0115797571352262,0.000830777997915049,-0.00207201744828336
0.0189271418349983,-0.00973981458464754,0.00148623263457745,-0.0012909219526146
0.00698027690123336,-0.0224096109109077,-0.00073058199964415,-0.000341187111518273
-0.0102804977602224,-0.0103193077227039,-0.0078896533063472,-1.27842549325951e-05
-0.0220753795469687,0.00622952021148976,-0.016235647243065,-0.000654704881295425
-0.0208491917363606,-0.0207522624153379,-0.0194354568772478,-0.00148681005749575
-0.0113588572297547,-0.093966637715305,-0.018016966208982,-0.0016643112567317
-6.9751637606412e-05,-0.149327323884843,-0.0143915156742909,-0.00140480910545755
0.0117421853336563,-0.12659248298353,-0.00999488496545578,-0.00108758110786468
0.0221689367888068,-0.0344846327002445,-0.00773134634665616,-0.000705800300709615
0.0367582537133882,0.0552932160905424,-0.0080578494343074,-0.000299649449511694
0.0646130778804402,0.0938156388931425,-0.00793041129755102,0.000208586626628895
0.0960322227643472,0.101524603021989,-0.00505238159073542,0.000812617919716158
0.107016219253723,0.108777086155468,-0.000544593052741588,0.0013272583077473
0.0942536380651819,0.110358543087678,0.00176341628474352,0.00120353795012196
0.0756080741367696,0.0990365825645037,0.00176139460335952,1.71997847784633e-05
0.0615924029814898,0.0841932695862638,0.00323789821024604,-0.00145109420135297
0.0534747678773029,0.0633745846374996,0.00334885851962366,-0.00206595631199276
0.0430130969495196,0.0300074249366135,-0.000848287966218542,-0.00157138010468138
0.020470695803864,-0.00727936099455381,-0.00601252272496433,-0.000497134323621661
-0.006053629702038,-0.0376335831429283,-0.0104058817439245,0.000585769368780708
-0.0252014345553594,-0.0540418302186148,-0.0130084634306912,0.0016577051197986
-0.038326728467763,-0.056313823994905,-0.0138678512798278,0.00256337064113383
-0.048507462957563,-0.0555853638289315,-0.0132884205320605,0.00260617089233121
-0.0505403583306527,-0.0622620063227118,-0.0112108390917391,0.00164132409408999
-0.0353702444484626,-0.0713648236845932,-0.00827667684551472,0.000301639745300693
-0.00572581779698665,-0.0669041899266195,-0.00416601556144339,-0.000470968013217272
0.0201808693879127,-0.0451838480779258,0.000616647165965116,0.000302063114023956
0.0320540497929638,-0.0182517807341008,0.00256788037864451,0.00245824526608809
0.037694488731765,0.00416579934131943,0.000718146304847255,0.00459643148095
0.041569812668695,0.0164098525418573,-0.00126509884062618,0.00547185479102434
0.0443450678950781,0.0117664317792512,-0.00369009812511813,0.00467814665826965
0.0496015422111197,-0.00856863971836573,-0.00759131200731618,0.0026307706150329
0.0552329992322075,-0.0319120155667853,-0.00933356906294942,5.86268132569939e-05
0.0583376979371736,-0.0517550045012096,-0.00659013612363288,-0.00240237077192566
0.0554280585611305,-0.0670535806818379,-0.00206350427642491,-0.00446187437422363
0.0461016109752527,-0.0689613387742648,-0.00076548359867603,-0.00605832809803013
0.0380687408175206,-0.0641139862110665,-0.00181670769964439,-0.00694620933743154
0.0269670166013972,-0.0871074586349997,-0.000648529492189036,-0.00665242432994071
-0.00236219130029182,-0.141643422132305,0.00075750165896701,-0.00465690429230175
-0.0453728642448802,-0.171126187860612,0.000574522290003737,-0.00122799881058762
-0.0734547305675743,-0.135342460057916,0.00277559725617652,0.00232937116889951
-0.0701151576499927,-0.054827543724461,0.00717354877453378,0.00530602050625456
-0.0560196980597476,0.0334937300814909,0.0106156261107485,0.00821486423935184
-0.0514147845267734,0.0980343716760478,0.0118952784545224,0.0108628452668024
-0.048276440007867,0.122706215541858,0.0108539031119699,0.0117688046539795
-0.0382271162304419,0.127817048137424,0.0103964246883614,0.0100649606247302
-0.0253317215808677,0.129333369977647,0.011402819679178,0.0064121567665932
-0.0153612537304397,0.118892303306276,0.0127664930338892,0.0019563171351469
-0.00961602931339327,0.0987096665530788,0.0133314940929591,-0.0024279557354567
-0.007884834464441,0.0788900654541649,0.0134304936324694,-0.00612795588858601
-0.00831821255590601,0.0619927926727956,0.0162485073161225,-0.00830887295475962
-0.00765908562053483,0.0451464093148861,0.0204472480268883,-0.00802605554098966
-0.00606077845595409,0.0238528450612114,0.0234299962171504,-0.00538046501334337
-0.000466683382659469,-0.0088786716709113,0.0230692275543443,-0.001652615623104
0.0107272830927654,-0.0414754128331208,0.0167887725953766,0.00150749832544352
0.0252423679721584,-0.0474420916326855,0.00628938218209224,0.00318570441444573
0.0409886909344852,-0.0436039835493026,-0.00540899112181965,0.00347075786649265
0.0496188321475532,-0.0653194104818454,-0.0138541760247594,0.0026146354964593
0.0508348179734265,-0.10384662128597,-0.0149912744286605,0.000769601130986812
0.0580420033378254,-0.135033068462046,-0.0110527614441052,-0.0022951905854434
0.0629473610528675,-0.140240508419502,-0.00602673615617517,-0.00684896578902788
0.0397436706584367,-0.102579832840389,0.000189875114700842,-0.0110151360120854
-0.00368931566886424,-0.035285573541848,0.00782722182659061,-0.0117541253017245
-0.0380878825031269,0.0187482545150925,0.0117702645629674,-0.00895656320329252
-0.0543960139685537,0.0398292047228607,0.00818013682073333,-0.00517157483115652
-0.0547068663749652,0.049614568062847,0.00283863129729084,-0.00268129463629621
-0.0432012948700885,0.06090373250908,0.000272382444889759,-0.00210508342773552
-0.0302467175340909,0.064033515922396,-0.00252462376882728,-0.00260729494702375
-0.0215629782985706,0.0576754353617941,-0.00407249381673473,-0.00312710073510072
-0.0135180133502401,0.0468112450950235,-0.00139628416538546,-0.00276061479092009
-0.00315394799816419,0.0330654222177649,0.000830438850641674,-0.00138803748907184
0.00614993372478219,0.0196776826824344,-0.000839052022364849,0.000187912553500484
0.0112862205256795,0.00973127664826427,-0.0013125703293867,0.00149324039673746
0.0147960969309436,0.00539880529287215,0.00244440993856639,0.00213026567962567
0.0230571238197632,0.0061278878829588,0.00447078771175293,0.00174039023897016
0.0355298906740443,0.00439038166690724,0.00238950500787488,0.000849291612624131
0.0424531394706728,-0.00478642705749541,-0.000625348222138724,6.50420936983273e-05
0.0408277448644885,-0.0178698374953121,-0.00343593750572079,-0.000577244540666167
0.0373302210964337,-0.0313517855642009,-0.00484006866070174,-0.00116414477313234
0.0349451144304602,-0.0444276750168592,-0.00605081310145046,-0.00177439744543222
0.0298321744659592,-0.0575133683969405,-0.00740269478041255,-0.00254162208374062
0.0254528872436705,-0.0660212302548826,-0.0052857132428383,-0.00341831684279143
0.023553230217281,-0.0520278388885746,-0.00100140012428083,-0.00403185464609471
0.0115579065597948,-0.0175138853091683,0.00221045326288277,-0.00394169704256465
-0.0147774269330714,0.0122430388205754,0.00377777983622008,-0.00325395888303275
-0.0439091935569434,0.0291572870987881,0.00285466699077174,-0.00249409307210455
-0.0547207681670929,0.0423903705847677,0.000907047245049405,-0.00177545839158834
-0.035308672789367,0.0575513945000968,0.00134117646509829,-0.000790013090450696
-0.00909467979761906,0.0588893504496688,0.00357499037131622,0.000418266543046901
-0.00552675900113023,0.0329466950919384,0.00246837176475632,0.0013354464509606
-0.0241815242190188,-0.00172502489307919,-0.00110014878540968,0.00175119321409059
-0.0443168289297399,-0.00863665381338399,-0.00266025533133178,0.00182091448825279
-0.0396971090343563,0.0219634813881977,-0.00397864053056432,0.00188484558876207
-0.00293888507944609,0.0424879802080871,-0.00751759271002924,0.00233487054859833
0.0329655806665509,0.0177267804567828,-0.0122726748845721,0.00280616544789881
0.036025564147215,-0.017603369032677,-0.0133996184835821,0.00289451503157612
0.0171633200074614,-0.0324813660354816,-0.00830113426904751,0.00295654423579082
-0.00141631196265125,-0.0380424441052927,-0.00100063209439522,0.00298001924029591
-0.0116348864895498,-0.0414955000010814,0.00195830719634329,0.00300016826774119
-0.0122295324253066,-0.0361680000109713,-0.00117202583195094,0.00342776418001981
0.00460400292236381,-0.0184217396034414,-0.00340478067409944,0.00394216727385456
0.0389996159054779,0.00656832518767549,-0.000761249679713163,0.00404744606791635
0.0571445482665274,0.0299855675726152,0.00339099312952318,0.00352736223768717
0.0392172377419898,0.0493016501741781,0.00559180681361696,0.00207801346545013
0.00950337338159657,0.0617067385673662,0.00494721302731389,0.000231277243216694
-0.0126873234805592,0.0583779872711291,0.00224404494990184,-0.000731386589602503
-0.0301475930969543,0.039933968600946,-0.00128047880058664,-0.000701004193648561
-0.0404171290471274,0.01688472974704,-0.00328803645538233,-0.000473245234145283
-0.041357930471621,0.00160032537992091,-0.00438256634910109,-0.000221345995325836
-0.0390801327921633,0.00187380604380373,-0.00668302316876797,0.000226804104866805
-0.0344216602644546,0.0178495179960635,-0.00733371268476695,0.000932619608996271
-0.0288181204374229,0.0410106351459622,-0.00572115899706369,0.00181406700541232
-0.0289743868312706,0.0505817409071437,-0.00605800226970126,0.00265693328614364
-0.0334799996106708,0.0421387526622253,-0.00810426068669775,0.00322838859281513
-0.0347303023131525,0.0309149727842994,-0.00903857966018861,0.00303662117421201
-0.0348155027259435,0.0209720462795012,-0.0120691782563702,0.00184926841782542
-0.0346318765895558,0.0108033608330337,-0.0184396784536234,0.000181992749662752
-0.0278302555908923,0.00387800998083521,-0.0202894072702554,-0.00123835405004624
-0.0176170418169412,-0.00161550829095416,-0.0137009821021834,-0.00152102111142914
-0.00941935349037269,-0.0103544630947827,-0.00457296926200713,-0.000142554573637706
5.18383358914243e-05,-0.0172163333523377,5.69802637623122e-06,0.00188848209950658
0.0120192726020587,-0.00942237501066735,0.000140343803363269,0.00270439971148349
0.0203211800269241,0.0159968198010435,-0.000410394951185151,0.00165666090063232
0.021540372986324,0.0357403770770248,-0.000356931380247434,-0.000138609951554494
0.0226499833045065,0.0161065967008739,-0.00171795564192891,-0.00133169811080529
0.0260234399458023,-0.0437980239993883,-0.005215954232499,-0.00149490958226222
0.0245287395926899,-0.0974085945563119,-0.00667542285409007,-0.00100468937318837
0.015540268865305,-0.0995874056332008,-0.00616092219575319,-0.000550940342348426
0.00312061511857065,-0.0616261294495407,-0.00653673404752709,-0.000748369162453793
-0.00483581604173689,-0.0224797730343047,-0.00501110540310068,-0.00155291352925045
-0.00243604159743801,0.00496352124976789,-0.00132925700701969,-0.00218339995293606
-0.000819747149185713,0.0301893652753242,0.00275553138764298,-0.00200364859765117
-0.0136882592200303,0.0581045713505176,0.00695281581133489,-0.00110530545433368
-0.033983428635238,0.0689443263532308,0.0075890976543173,-0.00013744077178273
-0.0492676909216065,0.0476610887445283,0.00656831027873829,0.000138448282491352
-0.0528083877858602,0.0171868849334119,0.00754421126389662,-0.000401967190406708
-0.0386251761724728,-0.011384140325064,0.00680398655687996,-0.000920620796956005
-0.00967482709992183,-0.048240943396917,0.00580780019837364,-0.000723963194405637
0.00905948791524235,-0.0732291894943602,0.00725523383161777,0.000193708907332299
0.00185513935745653,-0.0682027199923544,0.00629665525462746,0.00175549464026845
-0.0159467767664976,-0.0389435166320905,0.00354733866290134,0.0035872912985481
-0.0298511075794139,0.0139020516437633,0.0029502044816814,0.0049853545268761
-0.0340695246503135,0.0755997586123978,0.003627894790996,0.00533981890650332
-0.0244454273563163,0.117838517022633,0.00523975924149312,0.00388699653917587
-0.00671694522378652,0.123797992937864,0.00797286304098944,0.000406545815563339
0.0100986144015876,0.0996657408618802,0.00930127695167339,-0.00319474491850536
0.0239522688483477,0.0738660349757194,0.00770690037172888,-0.00401373225369993
0.0330203556848207,0.0487263033511944,0.00567790188766757,-0.00180463723335369
0.0298198505066942,0.00706226264632375,0.00618279064902752,0.00110657046688037
0.0149756828382344,-0.030567567592007,0.00925569611721204,0.0033156810371795
0.00168193467336673,-0.0382872965167602,0.0134681910462485,0.00450200088410932
-0.00772889397080345,-0.0234394668186044,0.0156860454919584,0.00406892575289693
-0.0162533868766702,-0.0083434759939594,0.0132389373267902,0.00203552555855248
-0.0161955622393718,-0.00798929140280359,0.0099103784466848,-0.000294000774688912
-0.0061642212569045,-0.0208442282975918,0.00871315952130619,-0.0012683281312873
-0.0018687641716563,-0.0490183324005359,0.00826012312123607,-0.000476432099007395
-0.0127693384097083,-0.0982598495858975,0.0079085062565391,0.00100949894187726
-0.0235265085759856,-0.148759742995839,0.00688936792292557,0.0022130216831083
-0.0191170712691217,-0.171811454564808,0.0030797739490889,0.00313917846427881
-0.00324581874714,-0.145818844794931,-0.00279351759449928,0.0038113443218826
0.0174012053228866,-0.0692524179121577,-0.00454976267099993,0.00378553900987502
0.0398961995808201,0.0176830618160591,-0.00026512570934996,0.00310210505957113
0.0556742422130768,0.0809441575729594,0.0042179793100406,0.0023683162461749
0.0583678368019323,0.120478629903608,0.00490760973341455,0.00169212877725399
0.0491231495302741,0.139782682905718,0.00320462371734888,0.000407407653440092
0.0294634737727375,0.141848689777165,0.00185537605045266,-0.00156590300448166
0.0120081968179379,0.140129790541552,0.00364930712799288,-0.0031029160026674
0.00803885693867605,0.140087828182393,0.0089964478557988,-0.00318850456382784
0.00502627872649521,0.131202358825393,0.0115098572483407,-0.00192392086823945
-0.0108651782167395,0.113599082352207,0.00726173403282819,-0.000475208865840276
-0.0353984888297773,0.0862862226020424,0.00118694866696336,-6.00469976108015e-05
-0.0587672079524484,0.0285847862712647,-0.00251685474027099,-0.000683135326202709
-0.0781959547528896,-0.0524824079501314,-0.00636908178970998,-0.00156304809521291
-0.087532297509266,-0.116926174685369,-0.0136580561536946,-0.00271057375926237
-0.0784980512696329,-0.148777856818229,-0.0194776258386306,-0.00435136074091907
-0.0569402647222684,-0.146356850958762,-0.0184108526260503,-0.0052498610339101
-0.034490984723715,-0.117539026357345,-0.0134264867658596,-0.00401312423997464
-0.015633535953339,-0.0909921601066742,-0.00715867639774354,-0.0011191584069696
0.00135310495612326,-0.0768408311482091,-0.00149581061046151,0.00174406055601421
0.0175507955320979,-0.0696659684906148,0.000314800259333666,0.00329486300367224
0.0350202222887186,-0.0641868677376137,0.000294299542984945,0.00310770355302906
0.0480375017576367,-0.0554196776142734,-5.21019620048861e-05,0.00163669502270086
0.0468232217757857,-0.0453977462096115,-0.00231430555524582,-0.000188300826155323
0.0407425898328831,-0.0248306462667098,-0.00367888724301292,-0.00173112338937291
0.0359008643939859,0.00792118838581693,-0.00220741581003509,-0.00288881709489096
0.0259536450233324,0.0292149147047742,-0.00190881453397691,-0.0040504832944301
0.0199874281869529,0.0313953120738283,-0.00367259562300963,-0.00531035375890957
0.0267714444063367,0.0274114020106192,-0.00324895386240963,-0.00634424845673118
0.0274977613376591,0.0226323170602566,-0.000622887497143758,-0.00692786690251565
0.00533681185153556,0.0160364176238211,8.83062362993636e-05,-0.00686744243565883
-0.0175775488900493,0.00909487981785909,-0.000982895379064132,-0.00632620926457633
-0.0211889520641001,0.00452758223116741,-0.000301919248006723,-0.00552613844437387
-0.0202598774062989,-0.00329746439294055,0.00193140161813512,-0.00443289200234978
-0.0257634085203562,-0.0207827724832251,0.00127691122704055,-0.003083230904824
-0.0318507487878347,-0.0353442123004367,-0.00230927239270486,-0.00154200744808913
-0.0289381595298467,-0.0412142400347814,-0.00386644499563473,-0.000175150901569733
-0.0103582233664138,-0.0537552508635648,-0.00374534836846335,0.000477835744731329
0.0137602158921259,-0.0719028702685435,-0.00400986003114994,0.00051813026579541
0.0307666572993167,-0.0825108315342173,-0.00357147962278801,0.000402572135402086
0.0428428482457993,-0.0851072783182012,-0.00237368888006355,0.000255570234171909
0.052009462121189,-0.0832081792272691,-0.000366310659028474,3.48766323081395e-05
0.0580567722129463,-0.0741618280140857,0.00206030183589439,-6.05018169283576e-06
0.0579372002621757,-0.0479200579062048,0.00400399339604028,0.000449344327469452
0.0462541530723064,-0.00773957727066818,0.00552395517763589,0.000875827769642643
0.0285073409832433,0.0274991485967117,0.00693229727829044,0.000570080466637438
0.0126133316279873,0.0500141890576753,0.00810251032154953,-0.00010008597981547
0.000940941063446325,0.0601094711549973,0.00691337990690733,-0.000456205273393812
-0.0045185160251153,0.0593556532984185,0.00460806990011099,-0.000591427835537773
-0.00635459006020221,0.0561061786572491,0.00444565118938433,-0.00114306565845188
-0.00602756808214886,0.0555040480857225,0.00533425874476523,-0.00228724272706491
-0.00387083778570033,0.0521074016050287,0.00473828356520805,-0.00317677459733761
-0.00822128568236671,0.0416770464646692,0.000613098940471429,-0.00276078605621002
-0.0160732868683559,0.0283917714660116,-0.00503404782448572,-0.000911863306079953
-0.00989776832334559,0.01064848783647,-0.0078503016159093,0.00134950705860748
0.0108660716765016,-0.015659999223494,-0.00732202195909846,0.00305755514897037
0.0327603620756023,-0.0308527932590629,-0.00530248015457473,0.00434470567180984
0.0498519231942082,-0.0200790541313208,-0.00338422744810741,0.00575896668561823
0.0572476980910053,-0.00686082541809059,-0.00274629851147035,0.00727573317636259
0.0584473624729841,-0.00898147856180471,-0.0038615253890684,0.00806795491249462
0.0694994234576566,-0.0189688202334402,-0.00426845644736688,0.00704242979761747
0.0877251809914658,-0.022616328796702,-0.000925478517878654,0.00392159360611213
0.0863207812288075,-0.0041955996136873,0.00306043799757861,0.00034591995463943
0.060427303351264,0.0313345546302934,0.00535532979973977,-0.00144894292771546
0.0327899872270802,0.0634199877687242,0.00918706695590687,-0.00124367387716895
0.0101609365972108,0.0804601272667706,0.0145257885622485,8.22638024372142e-05
-0.00652527724882211,0.0810341138633484,0.0185189053958384,0.00248144978148356
-0.0117241388493611,0.0813862437672345,0.020924196120364,0.00609711501130771
-0.0151189703178533,0.0988719353264383,0.0223822763283431,0.00929754887141655
-0.0197899044953081,0.110653791440982,0.0211167585019521,0.00906155845979877
-0.0211589838037132,0.0854196253843895,0.01592651563315,0.00465723309156776
-0.0189415289169246,0.0367686624864717,0.00948967008271723,-0.00152978834712727
-0.00687509090087919,-0.00614674092567418,0.00504745254584631,-0.00642920910598116
0.0133000379574652,-0.0273558938848817,0.00169798495074239,-0.00817572312656234
0.0278651834028947,-0.0102251413803401,-0.000117342178186642,-0.00697705071957589
0.0293890761150849,0.0452219203395235,0.000563254301081558,-0.00421316421614001
0.0302139216150958,0.0967645806330505,0.00111907244989208,-0.00114565788682355
0.0449677716659877,0.111132952722934,0.00219870027126218,0.00130527309817616
0.0647193899413301,0.102041269776553,0.0046748578054929,0.00289605473590387
0.0698122215790069,0.0788643555870515,0.00632233958828354,0.00407137951264501
0.0549732751785777,0.0334166649294815,0.00432198689632791,0.00512542762430031
0.032270669765446,-0.0327168647441957,2.2270284538134e-05,0.00603923900374649
0.0154125530784444,-0.110867590655204,-0.0016896024996878,0.00649120935787165
0.00793349699842891,-0.166723284184793,-0.000259260130831556,0.0058559825714951
0.00641216167865403,-0.158316900874782,0.00222591224175714,0.00383367999490121
-0.00293323596614993,-0.0877214973319102,0.0037171140656779,0.000646991738070129
-0.031612224665525,0.0073611911398085,0.000400114151083031,-0.00306812562380659
-0.0630374143614328,0.074781337918609,-0.0068356914555972,-0.00637965627646334
-0.0676109399216543,0.0834463999121697,-0.0121376240940224,-0.00884665677104706
-0.0431756199707312,0.0532341616935206,-0.0159297505414075,-0.0106766393117056
-0.0198654940378101,0.0318077257822271,-0.0179060488987919,-0.0110141351624686
-0.00726276869426713,0.0420547770796308,-0.0121611785490125,-0.0079906987052092
0.0120734056968518,0.0646174049994679,-0.00183894844277808,-0.00203198813567487
0.0310508939831071,0.0795480578745852,0.00366295455807477,0.00344467223052421
0.0304209730859168,0.0749255678657822,0.00333762174509324,0.00545364709673409
0.0134668443711191,0.0404168174699356,0.00410853853274594,0.00410127110268608
-0.0124729738779179,-0.00522127684513993,0.00774085626279193,0.00173004989071058
-0.0439851088276199,-0.0302225592196207,0.00865896432415436,0.000182381980693883
-0.0680466017285988,-0.0358282074753276,0.00694006489500414,-0.000132985015498352
-0.0780605017520217,-0.0414224081190811,0.00502719018022814,0.000481156266435873
-0.0752535221179891,-0.0612339794631227,0.000798932973942179,0.001140400437818
-0.0591321083373093,-0.106756312716885,-0.00529404967075,0.000969004811868512
-0.0423815015245087,-0.148874675390295,-0.010361519748956,-0.000163983281974985
-0.030782122400158,-0.13593101953609,-0.012795319019672,-0.00185397011175857
-0.0156690271964119,-0.0727504616154263,-0.0118650908819765,-0.00362514767330219
-0.00432028033820423,-0.00660667684295352,-0.00986906656985182,-0.00517659559669888
-0.00741717889979739,0.0324302928326027,-0.0111643060522962,-0.00604461404931245
-0.0234439601073709,0.0532149958543334,-0.0153579271874314,-0.00575340200449342
-0.0427771157765478,0.0689511262531707,-0.0183412535532556,-0.00435996661502733
-0.0537154422459661,0.0678476507884638,-0.0190254422081125,-0.00250468124770695
-0.0577606271381323,0.0470321923487627,-0.0160159007227068,-0.0008067410561665
-0.0642569643260746,0.0169052178074748,-0.0105442083683971,0.000733908000220808
-0.0730715299365839,-0.0150183221077739,-0.00773766709733194,0.00222072988006765
-0.0710471715322179,-0.0370762290525656,-0.00620523495227182,0.00341267659744459
-0.0519971506134279,-0.0391701061038775,-0.00341470651929547,0.00426191017661209
-0.0381368616348952,-0.0262574635758308,-0.00157984097010065,0.00479103250773339
-0.0486652468804224,-0.0147084939593307,-0.00056407489545318,0.00442381041876338
-0.0660375953042176,-0.0177539154004497,2.95395797550099e-07,0.00283614040299197
-0.0660227413173719,-0.0314213997044927,-0.00115061023438095,0.00100809275889254
-0.0540774933398709,-0.0368767003823284,-0.000938306109036972,0.000382904737308867
-0.0417960477067572,-0.0308466217790639,0.00297375052338698,0.00112401935260857
-0.0248794969641117,-0.0231448543556815,0.00804405857009339,0.001943387991103
-0.0135277183085258,-0.00517736534983446,0.0107124777692776,0.00202530112328584
-0.0239476761623666,0.031140175007576,0.0088644914544239,0.00216446902847415
-0.0402942808397547,0.0660792170580897,0.00516573109732528,0.00314456002864092
-0.0427905566937967,0.0766884202360837,0.00406176067448125,0.00430107127188413
-0.0378973898128815,0.0595091890535381,0.00487426515948089,0.00497860172795257
-0.0352074328660408,0.0254300152716833,0.00515920778177985,0.00543343631420097
-0.036911233170443,-0.0115095397644758,0.00492643558931079,0.0058175492100555
-0.0432074126227656,-0.0292414432212229,0.00326511733959987,0.00587575140660821
-0.0449224327932814,-0.0129512775596798,-0.00061908234225299,0.00507862788213573
-0.0291899020502158,0.0170961444800598,-0.0060961090201715,0.00304954827564509
0.00353645671081565,0.0393463040278672,-0.0108482515031603,1.75300433710689e-05
0.0356344432294612,0.0504231441454037,-0.0104803505770011,-0.00327050275729808
0.052051533647764,0.0389072272364942,-0.00558908422171367,-0.00580370525120871
0.0489867116749167,0.00245235835410149,-0.00210415340148625,-0.00668354056823569
0.0239433538042687,-0.0348687344082509,-0.00185378830025701,-0.00573120722180512
-0.00627283342775733,-0.0657160539994195,-0.0010660167376004,-0.00379842082905922
-0.0193344065320463,-0.101135788636793,0.00174241387610245,-0.00207212378891226
-0.0199389062321142,-0.133720963999289,0.00240906619285828,-0.00111875644548352
-0.012854046882111,-0.146534763441414,-0.000592232409594873,-0.000663826259597841
0.0101850529802977,-0.1311199472587,-0.00111045656818409,-0.00013168023291933
0.0397437782288562,-0.0899407665322591,0.00205955536945554,0.00100177059720046
0.0577029780001742,-0.0359909755611812,0.00382567679486246,0.00246580262605176
0.062904239857724,0.0123581172307591,0.00522468304423305,0.00280551918959084
0.0535180129589767,0.0436582206989932,0.00810997125588109,0.00134776055229054
0.0268947521391944,0.0523483414490813,0.00970082468507133,-0.000528983289062878
-0.00199318557885397,0.0443235178883841,0.0067110703155555,-0.00143682008315748
-0.0162835195889395,0.0375711591865541,-0.000625077878507583,-0.00161822144187273
-0.015724391961743,0.0360090621842991,-0.00669204963198866,-0.0017286084291092
-0.00974728191486053,0.0280516374580886,-0.00855458474678237,-0.00174737570124214
-0.00531929411035788,0.00838959187653254,-0.00881157229594803,-0.00166110800528144
-0.00171344470924428,-0.0140656805885182,-0.00754248579429352,-0.00171906826390083
0.00372271355625636,-0.0299948334418943,-0.00469278481971946,-0.00188174997200408
0.00994253543934967,-0.0412407687171074,-0.00377384701193569,-0.00207114515711422
0.0156402429024605,-0.0504520543405759,-0.00519097058295291,-0.00234710203555619
0.0189000636632011,-0.0559436714267155,-0.00703024278401597,-0.00268656716335638
0.0198500827403249,-0.0616628867389777,-0.00944499470487293,-0.00296890657721417
0.019816574193623,-0.0715401781933955,-0.0114859317182355,-0.00302672408539149
0.0184694707783344,-0.0794661149155541,-0.0115032705754489,-0.00306875028168736
0.0181970924531578,-0.0805506125326051,-0.00947104179957639,-0.00328352983789496
0.0198464310491417,-0.0787997385498349,-0.00511929754248862,-0.00327949732396222
0.0203914967083206,-0.0772669000037158,0.000279925657849562,-0.00289446548613517
0.0178425049204917,-0.067666449974175,0.00455808903958275,-0.00233610253453185
0.0138991695441884,-0.0484394611258052,0.00699054750803226,-0.00175138171448027
0.0104722409429073,-0.0338765672468093,0.00626990400533795,-0.00145093038602843
0.00776508297165563,-0.0224536210235679,0.00268123089492544,-0.00161677341380315
0.00652310762370715,0.000921581799668086,-0.000716716714480686,-0.00195919976379661
0.00507270469623365,0.0333266544634559,-0.00154223171628147,-0.00184151434723992
0.00357070002948642,0.058810595736724,-0.00142931341362745,-0.00097486406809133
0.00608315341299271,0.0706175733075315,-0.00189465922759069,-7.93432053551883e-06
0.01345896307586,0.0701443225059034,-0.00113557139240807,0.000477594627752274
0.0234623070743043,0.0658867925178699,0.000647656689937807,0.000642592815358468
0.0370008604623634,0.0685277132947625,0.00111680587673446,0.000629877618218314
0.0529324446210421,0.0685180839055205,-0.00056667592568827,0.000120548116131057
0.0641557861294825,0.0553139093911214,-0.00251505667437738,-0.00098918785262354
0.0656370627281613,0.0400182688809095,-0.00310003798125807,-0.00172853529660925
0.0560169446937403,0.0292102244765245,-0.00214888509536518,-0.00107264844159779
0.0386323190934609,0.0206725020599487,0.000225996887668027,0.00066502365681141
0.0208503769523104,0.0209449550084029,0.00176169228880611,0.00277590012029554
0.004796763033516,0.0257358066638586,0.000953996299728097,0.00487347853470018
-0.0134619023405209,0.0210379253842473,-0.00027766165662897,0.00655560659220038
-0.0319373382839918,0.011579344488713,0.000433946160274491,0.00746064664587085
-0.0474334864920874,0.0035819629994271,0.00378987902175382,0.00739099092763963
-0.062223228388697,-0.00476755464900776,0.00754911412656374,0.00668420469226783
-0.0694604118625204,-0.0106186242591018,0.00983248134290035,0.00560647373759613
-0.0585685435601019,-0.00709963179965728,0.0111379599530632,0.00339060747024766
-0.0249856497776351,0.0149867747114624,0.0105114864361902,-0.000359192847626958
0.0240106921706373,0.0483477374162627,0.00805010196565619,-0.00408983736014744
0.0552866803619502,0.0694646317035237,0.00686752812492778,-0.00541264231333143
0.0541583832674436,0.0708196129837267,0.00932825064426121,-0.00316514008842976
0.0513015170564406,0.0599900818434578,0.0115545263340262,0.00153811530045194
0.0625542710964732,0.0417874015307644,0.00748512652580632,0.00577743564942498
0.0679733867552299,0.0188470756590012,-0.000286946636148441,0.00699344976941418
0.0563090586130706,-0.0017377380887286,-0.0075613392374013,0.00496612632772982
0.0352824208871187,-0.00683753482751813,-0.0148743629888773,0.001348777200354
0.0203966121282122,0.00332416052867723,-0.0207600597666876,-0.00190418324480105
0.0229826026243675,0.0155301188947836,-0.0215339223330087,-0.00364897477445533
0.0335643597384818,0.0276111162360656,-0.0152206700412285,-0.00386150673155977
0.0408559987130888,0.0371226728283449,-0.00659867876977032,-0.00302171488158371
0.0419614346891631,0.0317349827334713,-0.00134874590708047,-0.00162066401215828
0.0339052780326968,0.00650235270997768,0.00035705770117239,-6.28568496288994e-05
0.01710239459457,-0.0189442819419673,-0.00139122807599763,0.00133545650037638
-0.00139265430625117,-0.0150946461209652,-0.0017934111668026,0.00231763018621415
-0.0145306270336554,0.0197213911441122,0.00410291786930523,0.00251068965244082
-0.01807241099182,0.0669453831147997,0.0124036166243665,0.00169207685739716
-0.00883930119546587,0.100123502649653,0.0166730028215997,0.000364695961683805
0.00851304766682705,0.0978226688505196,0.0161378486052933,-0.000901208298097824
0.0249962200000941,0.0747055802545738,0.0142456635538108,-0.00232327308802246
0.0362957298415224,0.0489615854384616,0.0127636194832897,-0.00394813583086029
0.0443484927697391,0.0208078810381876,0.0113106859846099,-0.00504400964077372
0.0517698837075119,0.00192935033281355,0.00892771429267287,-0.00519231819094824
0.0572285408360778,0.00336239305352842,0.00725005907486059,-0.00442626342394479
0.0553943058464319,0.017296245541028,0.00748968385210611,-0.00241445932491135
0.0449243074177078,0.030198324901744,0.00751769669902732,0.000859055227919981
0.0323308630441581,0.0386902184061643,0.00655477674777885,0.00412244765247193
0.0167690057931316,0.0480735605024215,0.00644693866427806,0.00571426360539994
0.000127964553045517,0.0530951934155287,0.00896297877683969,0.00489169594318081
-0.0030987564373996,0.0371264679417473,0.0117804001548057,0.00204980697836768
0.00449913305604056,-0.0127324463833029,0.0102144009198776,-0.00201593600591735
0.00105004612764875,-0.101601316998071,0.00494572437315468,-0.00682278183861425
-0.00916674549717803,-0.192176063801912,0.000208678353535012,-0.0113246471053903
-0.00631692699639418,-0.204800319451581,-0.00429799826488303,-0.013161800508971
-0.00551376487154556,-0.126038133605911,-0.0104575001556771,-0.0109887028880722
-0.0188741229063459,-0.0292461293319933,-0.0143654342139537,-0.00633079390082756
-0.0319589707411303,0.0273002170537074,-0.0133233466908128,-0.00175081355067516
-0.0434691248795345,0.0495501742568725,-0.00898492007100375,0.00165085810626398
-0.0529499495964001,0.0605894399034286,-0.00353525539763492,0.00524353500328569
-0.051891985325592,0.050986397977092,-0.000486921265151277,0.00984468965236701
-0.0428624563060241,0.030433077388821,0.00157881713639742,0.0130546987127851
-0.0266044149466925,0.0413808038101557,0.00629961417508388,0.0125341618389571
0.00116007188310931,0.0774860679348726,0.0112394851520869,0.00777621384836461
0.0248991348519158,0.0972722527444962,0.0125837700765358,6.00699939284285e-05
0.0198590077756773,0.0877578287505039,0.00918926983038265,-0.00701821928061223
-0.00760363088141559,0.0506668551566076,0.00355164531531294,-0.0104478823989367
-0.0329620050072901,-0.0150077320792857,0.0018433130872464,-0.0101501783699893
-0.0480347604092492,-0.0891488411256159,0.00599757022175715,-0.00748112227999788
-0.0521576872664234,-0.134527644581369,0.00962664960608847,-0.00357774536859446
-0.0402045017970321,-0.136131905578256,0.00984717274983693,0.000527380150391442
-0.0154955135285348,-0.111409777618092,0.00752740970163602,0.00381968794388501
-0.00445443181614905,-0.0926251621098375,3.06256980888812e-05,0.00572822768133946
-0.029491658700124,-0.0942684018331282,-0.00958687234013013,0.00614660411223819
-0.07428758834135,-0.097149705485726,-0.0145296091704732,0.00536129504688471
-0.110844236048275,-0.0822948098005167,-0.0134266972773801,0.00396511052819701
-0.129967676573162,-0.0608225953318952,-0.00934101337253548,0.00263603175185462
-0.130058033332135,-0.0476128044852691,-0.00632388374244136,0.00171266301214056
-0.112562640101896,-0.0406861474450347,-0.00539810539598544,0.00135975490993506
-0.0884487661080873,-0.0393036657420643,-0.00551818614716721,0.00191358338406672
-0.065798682920173,-0.0404941662991064,-0.00556050776812662,0.00301664758912491
-0.0442760144778226,-0.031006117413305,-0.00532836828323155,0.00384505608869886
-0.0257299395573796,-0.00861268881539971,-0.00569240595726874,0.0040699679222601
-0.0116618341856305,0.00942397505749798,-0.00504674440650971,0.00359322658952983
0.00148801299590873,0.0172430249389874,-0.00303022150835328,0.00260220162711451
0.0171787766411099,0.0316708865424142,-0.00171602144084854,0.00155138856087253
0.0293449006939899,0.049433205898675,0.000200761907293308,0.000361851879135924
0.0236432015874101,0.0495308941707916,0.00249441300892321,-0.00141493714073715
0.000760906509671234,0.0412461115967226,0.00240780185949244,-0.00284937875410506
-0.0210630502637136,0.0436886393478454,-0.00106485328812704,-0.00220414817309621
-0.0313041388924472,0.0536085115441713,-0.00758390084923276,1.93855326794672e-05
-0.0336611894277976,0.0606039596322306,-0.013735610698343,0.00184294245246454
-0.0342845963668546,0.0527560467211118,-0.0159915337761241,0.00252953897786586
-0.0312366165436361,0.0256602200267297,-0.0123784843252925,0.00231379082317686
-0.02234443112035,0.00122222871853354,-0.0024486531963271,0.00165122683092156
-0.0131913475458179,-0.00243652563979974,0.00860236705931776,0.00110738881509888
-0.00953000075514234,0.00159679565505101,0.0133113104585534,0.000863935053179467
-0.0167788666223411,-0.00757268134768859,0.00964750133546226,0.00071163389175614
-0.0369829837347587,-0.0308407887956267,0.000754684124471814,0.000524757326141026
-0.0554615526391042,-0.0390511897437038,-0.00743215661500359,-6.81205100818498e-05
-0.0541498969477564,-0.0163960130213718,-0.00744072737505282,-0.0015496769902644
-0.0327630963997052,0.0152578613024029,-0.000267690341183593,-0.00345842472325412
0.00182048219864246,0.0397844162867835,0.00690938567679445,-0.00513734141738323
0.0412555022657405,0.0545013422861924,0.0109956796231244,-0.00619242076361832
0.0676784797428738,0.0575794758307273,0.0102804773632656,-0.005938171287003
0.0725108722759497,0.0604247353170849,0.00475279958083083,-0.00419107481720336
0.0701938426451907,0.073949525531651,-0.00163314256410088,-0.00168013514922289
0.068738621211026,0.0876259233615141,-0.00525249939756625,0.000319642102508306
0.0634432709854645,0.0878110835704753,-0.00779640364214319,0.000740970645890797
0.0559117544089136,0.0735992398049605,-0.0106693936527869,-0.000444035606476757
0.0481854007586806,0.0510808179234056,-0.0139220435170712,-0.00210307650423256
0.0386879283793519,0.0237558232429257,-0.0188410612056602,-0.00270002385314181
0.0272508982604054,-0.0154085594213163,-0.0216235637996092,-0.0018101642248716
0.0140809168603861,-0.0737026921249219,-0.0200472670250008,-0.000167384669151578
-0.00377460504286406,-0.124126965043179,-0.0184376430435923,0.00127161928742086
-0.036118314662825,-0.123995671734842,-0.0188501431909156,0.00165365902716314
-0.0801763928873737,-0.0770110252882226,-0.0193108118862781,0.000905411205848128
-0.0983792472466608,-0.0184336493998879,-0.0157282791329285,-0.000447442815180118
-0.0661566336235665,0.0276460674056183,-0.00859606157412102,-0.00191247397460992
-0.0158103423510345,0.0537931770090153,-0.00291415708297578,-0.00285610015395406
0.0154205377062082,0.0616983557492471,-0.000356043255347247,-0.00292968209636139
0.0284719429586977,0.0556690332777453,-0.00133783899252482,-0.00237920373233512
0.0359989203594959,0.0420310965152309,-0.002431700113949,-0.00154765506992866
0.0402697467633281,0.0240775941464181,-0.00126310776439015,-0.000795000950536307
0.0407567756959122,-6.24681371522162e-06,-0.00125171757959913,-0.000479796486620378
0.0377008382456241,-0.0235631848369871,-0.00270697865313969,-0.000641650728052536
0.0341504769366614,-0.0350828188734708,-0.00315695322362921,-0.00105733702335977
0.0344522290882335,-0.0407186721206009,-0.0019642142522892,-0.00125834867173354
0.0356149396731558,-0.0473574760005425,-0.00300710706084893,-0.000982184948237467
0.0370626371463545,-0.0507907762766919,-0.00567499292363171,-0.000552759507859629
0.0401208246951929,-0.0569884375235422,-0.00403647112471113,-0.000383759941729668
0.0380348973017272,-0.0661726581479015,-0.00103009218292368,-0.000317549658845994
0.0286370411122862,-0.0728840410335759,-0.000129658967600378,0.00053986220646136
0.0161317721385291,-0.0863316313523046,0.000642131403445241,0.00243820138490215
0.00101839912989485,-0.0943281412691802,0.0011400168330176,0.00455468998381778
-0.012872029686923,-0.0705479374556774,0.00122089467512091,0.00629256074183537
-0.017809964866856,-0.0254128623801622,0.0019683384318715,0.00717384913393028
-0.0163834966005225,0.00661522884355419,0.00321600101008364,0.00662758149765472
-0.0211960377842905,0.00625520732908393,0.00395492799974644,0.00475279453050672
-0.0352782103167399,-0.00961354304732473,0.00335698829109996,0.00223602589808612
-0.0438360324274868,-0.0156147510021581,0.00153080978874311,-0.00028968347206849
-0.0350527085827531,-0.0133083281146982,-0.00103319167225483,-0.00224517541922997
-0.0108748191984912,-0.0100784576452742,-0.0024348177647555,-0.0029229612142907
0.0205838537265722,-0.00378723638670279,0.000714214513977943,-0.00207999934914295
0.0442897193250916,0.00674281583444783,0.00875956825252367,-0.000132800497397661
0.0528386500054168,0.0146791998910871,0.0159410495636664,0.00238350536084253
0.0555090254381157,0.0101777361288268,0.0166655090584195,0.00472334835464064
0.0548863564668597,-0.0082103770489501,0.0144622819449825,0.00589582236168787
0.0443608000907383,-0.0361642199656081,0.012756452318061,0.00546395581799617
0.0265221962551327,-0.0618828786193258,0.00980562881521799,0.00395494554985752
0.020012257180825,-0.0656901507006557,0.0062012978117637,0.00223757473397815
0.0355766404162548,-0.0486291463127855,0.00453004475520811,0.000800432870857661
0.0501177029090035,-0.0340354458178478,0.00617853919164137,-0.000108934336473785
0.0448607050320599,-0.0298318512628431,0.00824793093258477,-0.000166747908418191
0.0308281248297265,-0.0194505748919696,0.0078795306098826,0.000592586257961388
0.0200952344287629,0.0180142417099429,0.00806564814854631,0.00129900642331319
0.0202613881032853,0.068113143462234,0.00999290178568924,0.00070678856352298
0.0336041885444624,0.0974902897992659,0.0107843905361422,-0.0014197131757303
0.048814854797284,0.110891000041745,0.0124553129087838,-0.00338268506307433
0.0581553689803472,0.123504418441827,0.0153935846234545,-0.00316838095360325
0.063796305654895,0.126970620548997,0.0152414732832698,-0.0010663736313576
0.0637827620077449,0.118696829092656,0.0138454078856196,0.00093796497301271
0.0568448471712414,0.108109576528313,0.0155263194844473,0.00177693482143494
0.0493092078797296,0.0969662846503264,0.0187706609295198,0.00176945162889526
0.0482701385402279,0.0836922375451765,0.0187273850956321,0.00141639349500979
0.0481080840142896,0.0680932557400007,0.0146951965993327,0.000932805233795883
0.032408470549093,0.0516514277772765,0.00982448593032499,0.000295654557113992
-0.00367013310826646,0.0321786937905227,0.00558832752131595,-0.000643541733490469
-0.0445665958794182,-0.00771953361499145,0.00181936541449398,-0.00172941051279469
-0.0670234974252237,-0.0893064329910009,-0.00259295530051764,-0.00264889800062473
-0.0666118123093347,-0.195016401637589,-0.00753731892152538,-0.00327454506137585
-0.0586483749283546,-0.254682727384818,-0.0114642226583291,-0.00337167430246949
-0.0571587651453192,-0.235741693833632,-0.013035308372157,-0.00297105432624165
-0.0640028902160099,-0.175985676984927,-0.0115678602448871,-0.00269636248576687
-0.070716134428771,-0.0994032065457692,-0.00807036401505523,-0.00302935583979956
-0.071392267330963,-0.0184021915558821,-0.00388476273164154,-0.00394089301554987
-0.0635249340077121,0.0346394756273395,-0.0012428935162313,-0.00508572643319623
-0.0428912429858116,0.0511097751580368,-0.00198430871559683,-0.00600608438942605
-0.0102297391535846,0.066654555808491,-0.004564032845219,-0.00629689501378576
0.0176946696858006,0.100669621183421,-0.00645427529254782,-0.00557126582268362
0.0245955205201833,0.124733258154911,-0.00631584239297368,-0.0028568892074821
0.0198379530017345,0.11875793974122,-0.00447214681680229,0.00166635278171327
0.0183247883176725,0.0984324714693491,-0.00212173964096079,0.00446468486231841
0.0200991005949925,0.0784006350237814,0.000403728746956742,0.00285538982447497
0.0163108230004065,0.0571488335815559,0.002101104532846,-0.00103429941947473
0.00574070203228398,0.0313152362658774,0.00113483046938766,-0.00366736079793443
0.00389928068374406,-0.00199617196266572,-0.00175432600239231,-0.00416089685753617
0.0147699990216439,-0.0379818955296225,-0.00363649525785556,-0.00364992033280208
0.0262581471332044,-0.0650660184830515,-0.00401475235731174,-0.00289880644753529
0.025934996987468,-0.0811708702450124,-0.00558065317272802,-0.00181734456508628
0.00598267147978666,-0.0927071677077734,-0.00836335177079664,-0.000607120427739222
-0.0270506988297678,-0.102848965178894,-0.00890717203790754,-0.00013262076676506
-0.0656144582617521,-0.107777089473376,-0.00561897680369903,-0.000572273820917802
-0.107539239848361,-0.102963043929231,-0.00310205531425955,-0.000805317315310439
-0.14084736429394,-0.0865566018089509,-0.00382663771626765,9.19814927020784e-05
-0.149498730459383,-0.0568943769210822,-0.00333757492762999,0.00168715681845928
-0.133144952603495,-0.0235150805704328,-0.00208730688892381,0.00288357636938363
-0.106377895367028,0.00209264197835797,-0.00124632200458965,0.00305745848618437
-0.0825491941163303,0.021935350858269,-0.000258430496313197,0.00239195911477452
-0.0582404870516265,0.0348056942529112,-0.00229748727504323,0.00156518021732293
-0.0234298072953744,0.0378012077814875,-0.00593360719043179,0.00110218540978608
0.013013173742314,0.0352854250038274,-0.00640809445471275,0.000690776708991397
0.0432497741709578,0.0306698805192091,-0.00341877398178709,-0.000501110430217115
0.0779590800117418,0.0208654260886032,-0.000701894892435463,-0.00246955324120534
0.108091532885935,0.00649147118500998,-0.000505211555528145,-0.00397102810195777
0.103386460518974,0.00550291983996598,-0.00205176657530094,-0.00376752188181341
0.0670800426359645,0.022258838043427,-0.00615565770035249,-0.00194843564273787
0.0394557619408903,0.0355477819919782,-0.0117453706270025,0.000389655477112562
0.0375532060505326,0.0382734053826674,-0.0127727324578385,0.00252683386567466
0.0421512528735705,0.0326763798349276,-0.00721893827554793,0.00437315069941584
0.0347377877128192,0.012211833777684,-0.00208744031563441,0.00574767006392159
0.00836302484359508,-0.017164495396685,-0.00122298766461552,0.00617541115030383
-0.0275389262807933,-0.0392868845294184,-0.00189957168647028,0.0057782964317394
-0.0494967382371662,-0.040770637627398,-0.00118790200944701,0.00521084293065557
-0.0425512947825386,-0.0117317052676172,0.00406685470014744,0.00485002724922198
-0.0141537109779201,0.0289242897697069,0.0102428507221665,0.00466886627382242
0.0111199189297864,0.050881000579806,0.0108508860055564,0.00426237290380564
0.0185212180805388,0.0599917869795619,0.00755869740683513,0.00326768253314793
0.0160369709779958,0.0676017367794455,0.00360063323803171,0.00144569592100613
0.00343317673276694,0.0527512971472127,-0.001831604969742,-0.000992419034483947
-0.0250654429746546,0.00125123672216285,-0.00940774576264683,-0.0033956564926088
-0.0494126993232417,-0.0389907932863266,-0.0145906850385566,-0.00530010809886158
-0.0490355004420357,-0.0141465136546198,-0.0119778293581396,-0.00616418603256694
-0.0280850171281257,0.0452267388550273,-0.00435068061315616,-0.00544934272180827
-0.00104883516853463,0.0814846469540458,0.00183631113186338,-0.00314820245492069
0.0224570110669083,0.0812667545244745,0.00279545159387629,0.000238726804177081
0.041405148228256,0.0595389311714967,0.000859078408158655,0.00372072613572883
0.0546383844649717,0.0340819049313454,0.000835312038449779,0.00616114380697909
0.0631405009686391,0.01327484539327,0.00153834577387545,0.00705399554308322
0.0730426896803971,-0.00467543599281057,0.00132655377003405,0.0065373189867553
0.0770608556971832,-0.0233939499499899,0.000709013358777346,0.00498882882168438
0.0616157475925716,-0.039447205857692,-0.0015792194300024,0.00271390089891367
0.0303198335364974,-0.0534355722410924,-0.00552302756801243,-0.000161206144903838
-0.00525853624223892,-0.0785112194401754,-0.0084483586213973,-0.00263396378356274
-0.0367365214307128,-0.11249931591154,-0.00914014998657369,-0.00295389517640305
-0.0559488356757497,-0.123228122584342,-0.00918741799813639,-0.00121878896087953
-0.0584044296578608,-0.0936205077270916,-0.00975233680388444,0.000522713214191289
-0.0483185200579506,-0.0434385549086999,-0.010216364905792,0.000829032816244586
-0.0310237087738964,0.00610112157783274,-0.0108338003301225,6.9175254086395e-05
-0.00765616925810623,0.0457705320234563,-0.00840436626819002,-0.000589665569527437
0.0109303767175657,0.0680925429765973,-0.00185085345884424,-0.000771477509941973
0.0120636014920104,0.0665811907805964,0.000534494804454134,-0.000804360477390381
0.0044083475221366,0.0378404467685423,-0.001731403548986,-0.00102589793307118
0.00545157156435087,-0.000101494058783791,-0.00180404366846131,-0.00152733393269207
0.0223061596381116,-0.0172488298686567,0.000908345970816333,-0.00237536341068736
0.0464390335724363,-0.00939928407236257,0.00507967894456082,-0.00349642937170512
0.0599140232691565,0.00853611316275485,0.00925450447648977,-0.00434198985485399
0.0608953774908263,0.0169041678325995,0.0114737770407119,-0.00448057825048822
0.0573210019091911,0.00543848884420262,0.0130442041648677,-0.00363963083746087
0.0477776673502331,-0.0131480606716557,0.0137173230730169,-0.00183506680416914
0.0354470490113156,-0.0240491715288627,0.0107357288179942,0.000444487765226804
0.0250710866291636,-0.0247432964317215,0.00555235196552784,0.00259274721182018
0.0183305828792609,-0.0265851539469555,0.00160938769827517,0.00394827691456693
0.0194905095896882,-0.0454747512199811,0.000456976489894022,0.00424917498459778
0.0223649334904371,-0.0664322777074488,0.00109501811212735,0.00380399500966642
0.0214343089542702,-0.0519776643408387,0.00297779086183205,0.00290739257109524
0.021294779044782,0.00441031631689595,0.0069336271064495,0.00187977310856882
0.0190284980519843,0.0590521817915605,0.00974739121004374,0.00138978631976871
0.005365386612028,0.0727675139328692,0.00688098523266968,0.00140450644413488
-0.0237424358204145,0.0642437037625451,-0.000921852637944006,0.000839671380024221
-0.0488932588033216,0.0632697229560818,-0.00715079137433367,-0.00119300302117265
-0.0459193927167136,0.0699299124022031,-0.0061868982164682,-0.00419100937266305
-0.0211189646726156,0.0841451437151695,0.00012963626200798,-0.00651491270966887
0.00318871117178833,0.109193763443948,0.00587501081460084,-0.00718489483754547
0.014284471983472,0.129902059708549,0.00748358087061989,-0.00626003836804141
0.0145079778623148,0.119148990215276,0.0058721439014643,-0.00438644158262411
0.0101468653062611,0.0758765600044135,0.00511548355539745,-0.00203598811868134
-0.000379072525978789,0.0322447624540363,0.00713688297166836,0.00148846183123334
-0.0218826237883994,0.00707044639848227,0.00978223370763501,0.00602824263405541
-0.0449845406732239,-0.0137648393949405,0.0122557885028958,0.00898157721605477
-0.04890627872164,-0.0564524936954555,0.0116030117954025,0.00848576689670398
-0.0294776320366376,-0.126852297539847,0.00643401546073741,0.00572168674086887
-0.0090707743871354,-0.185953137610741,0.00107642967940595,0.00285872020716574
-0.00584722394643433,-0.183007902351417,-0.00350469350656465,0.000824302172972098
-0.0132142269029657,-0.11401389780382,-0.00565368230687819,-0.000804578681529032
-0.013955275697783,-0.0145168368990772,-0.0040406956836937,-0.00256839244448669
-0.00272822768949279,0.0703129365450289,-0.00222003541280503,-0.00406681566204637
0.00539096255263234,0.108553245704653,-0.00167119698126418,-0.00387703853579135
-0.00559267664981349,0.106051937513263,-0.00142567348798736,-0.000966028657034299
-0.0287436699157365,0.087335384164997,-0.000675050399864765,0.00312394703416197
-0.0463733260300621,0.0740806109954137,0.00145851238221442,0.00484124430484883
-0.0525027540065091,0.0748655973076509,0.00415660401929523,0.0023842314956584
-0.0501655868557073,0.0758464349847293,0.0066283023031206,-0.00264592824554248
-0.0460236670302441,0.06483667389255,0.00775302683527122,-0.00763668321809541
-0.0425698052826685,0.0470274316906087,0.00580543676791402,-0.0105426644400528
-0.0389726662829029,0.0330130598376223,0.00328486736128048,-0.0100581464223322
-0.0371179668798299,0.0180614441604667,0.00273784853010778,-0.00639771059254042
-0.0384262198564682,-0.0110187516218705,0.00420935404151731,-0.00139872135917876
-0.044057865447082,-0.0376359297610141,0.00649931252664494,0.00298123984220558
-0.0469092890989667,-0.0440732354991209,0.00756338475071809,0.00598501624671163
-0.0321534843283308,-0.0594084568257299,0.00566026860234551,0.00748505803603782
-0.000724336934483457,-0.0984683074060853,0.00189074898844991,0.00732583744006667
0.03376055121808,-0.122530375204015,-0.000289239374535104,0.00596066224183845
0.0646589790078961,-0.100159485087957,0.000153331780010493,0.00443868785113986
0.0871732071001639,-0.0396976149666343,0.00165706672559748,0.00304324553860418
0.0940547855075358,0.0149610896065464,-0.000302972974193402,0.00131729333804479
0.0824087353589938,0.0389123056279069,-0.00499553585197486,-0.000861411362678993
0.0614756860702934,0.0624494787734521,-0.0055292708292367,-0.00331991733977773
0.0422386950864007,0.0982991688297729,-0.00186377142982578,-0.00580427679047919
0.0215133087403384,0.11995541495945,0.000516149128953937,-0.00758742822026787
-0.00806656503081166,0.100168461777551,0.000308603792426289,-0.00776586327780072
-0.0482110697931458,0.0256770763193931,-0.000733531723409772,-0.00609484981841128
-0.0852715217287463,-0.0703630062983943,-0.00121271419204478,-0.00341115901018765
-0.0979048290142076,-0.134813862209462,-0.000858382300204468,-0.00122680723442709
-0.0823102832564561,-0.154307206389083,-0.0036132379255101,-0.000290078482658301
-0.0566669146326579,-0.153153101151646,-0.0108059362785765,-0.000338756770606229
-0.0411430855127564,-0.144342820269849,-0.0151230848239406,-0.00115289949675491
-0.0294082412010016,-0.108222645252943,-0.0114643812029614,-0.00236960967568393
-0.0110409759927081,-0.0452319682928918,-0.00383364187988099,-0.00311250312180999
0.0121453377610432,0.0116528917629459,0.00247667140339486,-0.00268379687550266
0.0422213826360503,0.0373413602119483,0.00572655321986753,-0.00101245747924781
0.0705659813738592,0.033944289740065,0.00598498369444119,0.0012285371726257
0.081263083020524,0.0224171347268254,0.00452433478026938,0.00283173709887882
0.064384809638908,0.0129187738214798,0.00249690480079215,0.00284108936016017
0.0205876981116481,0.00142960654214017,0.000340581764376275,0.00156154289580915
-0.0220562550698371,-0.00224817796097811,-0.00175352506741417,0.000308823434264366
-0.0324394774794806,0.00842083800688243,-0.00476498104881332,-0.000173391681747921
-0.0186193597474839,0.01603296062795,-0.00792546026189029,-0.000106732258893319
-0.00411845539176642,0.0106083654237765,-0.00761649999590128,-2.93440385096479e-05
0.0054851546674507,-0.00193055381058133,-0.00478829564843655,-0.00024819121533008
0.0161916349719985,-0.0178696321157136,-0.00460149769870476,-0.000550274087328052
0.0243576368767853,-0.0311476917087557,-0.0080537329949523,-0.000619849561023701
0.0145242621698598,-0.034816689901191,-0.0116998399826746,-0.000440016306204257
-0.0123751796478648,-0.0312700595344971,-0.0140595726565212,-0.000350242616098845
-0.0392455239438438,-0.0283692921209123,-0.0169419644428182,-0.000756713740789134
-0.0536876013985343,-0.0289968464082551,-0.0185182510304849,-0.00144677658066547
-0.0562971087786914,-0.0331683663218598,-0.01733063973996,-0.00173180189845998
-0.050960898844008,-0.0429330774481898,-0.0155371324653468,-0.000888781984874373
-0.0373918627779755,-0.0519046824170188,-0.0128842942983718,0.00102142230475795
-0.0229152303480611,-0.055338453079447,-0.0107959336197924,0.00302094515061333
-0.0168674003923422,-0.058976985076652,-0.0112187287219464,0.00449395515152696
-0.0183382834201076,-0.0627709876730816,-0.0104907255331713,0.00533830595241526
-0.0214098817189273,-0.065500158875191,-0.00755724524261731,0.00560498480593143
-0.025599410289531,-0.0723633149474782,-0.00859474593281982,0.00543455654296081
-0.0318299479286746,-0.0724453437548431,-0.0134097414863376,0.00492304838012283
-0.0313773537927828,-0.052647191468089,-0.0144825410907082,0.00413338516634267
-0.0196525884074121,-0.0219537298897893,-0.00982921795848697,0.00320122871137723
-0.00703628747248458,0.00733561009666085,-0.00439701523450903,0.00223858659330921
-0.00263626171540868,0.0287531643207803,-0.00313287554985348,0.00123739495703042
-0.00774334082432934,0.0429793299691935,-0.00385310717993481,-0.000306563487426539
-0.0153931849996543,0.0511689546263486,-0.00228828725329136,-0.00313052698273714
-0.0156224399829029,0.052494921243182,0.000437450206008757,-0.00629564303505669
-0.00931731905733076,0.0527707948798403,0.00206708956026039,-0.00749834907640632
-0.000414509569406726,0.0517610965241296,0.00267521120517826,-0.00583275425121159
0.0103615436360798,0.0445418382413526,0.00378618191726962,-0.00269764461599703
0.0204334061672389,0.0340054063999465,0.00453582736318095,0.000177023009512939
0.0289680511440697,0.0253003244512293,0.00387210459576007,0.00262889453290288
0.0354869147853839,0.0219447608496053,0.00546515928093441,0.00504312624950233
0.0399792798875015,0.0237814401288222,0.00947999614715157,0.00712631394962651
0.0445655811045473,0.0245826589639036,0.0115835589663986,0.00831292921089943
0.0463845273916921,0.0194456887452285,0.0100561247170232,0.00824992593941564
0.0416387913862046,0.0113184225690482,0.00603853254194724,0.00703614431519781
0.0347712704157007,0.00702708812390054,0.00285924565552864,0.00498541457305444
0.0303808674046712,0.00487872420667709,0.00275716293679338,0.00262032881658391
0.0267952703441826,-0.00216703189188829,0.00479628487056478,0.000906372491685566
0.0219475761869477,-0.0066268834343837,0.00729037451525679,0.0001863452780813
0.0150337945936378,0.00521380490517453,0.00840690231536457,-0.000336979614133978
0.0116215639224824,0.0286763262991817,0.00816722824376998,-0.0014199684750278
0.0187930149793862,0.0471507159888385,0.00838570357712251,-0.00277481802011595
0.031443752090956,0.0524263706418251,0.00809552884173318,-0.00341288139673145
0.0396515289123017,0.0445315176205107,0.00822871754033498,-0.00332861216274285
0.0399264892706886,0.0328492252698784,0.0117070974529582,-0.00347061903950553
0.0344644813495773,0.030620159494612,0.0173890635178707,-0.00383663606347321
0.029789575411597,0.0421186476741975,0.0226479046558958,-0.0036886850097081
0.0291547885733085,0.0624396851151194,0.025347379645466,-0.00287622678154383
0.024699106491538,0.0754895403613856,0.0248316245316407,-0.00172788498814508
0.0153925850469638,0.0678954667260266,0.0221171767033296,-0.00100966894456419
0.00889969711419084,0.0481080545234442,0.0185203006400815,-0.00144240393747643
0.00203495296572529,0.0364984468800199,0.017242863822025,-0.0023907785704924
-0.00721689626504809,0.0388279252553932,0.0201253673295655,-0.00265249228811519
-0.0074406230053468,0.0353907868897787,0.0233299647886231,-0.00192876058121011
0.00435868453368383,0.0148103859831002,0.0224015372865319,-0.000905804477428569
0.014980344465799,-0.0115158371907019,0.0161901069499878,-0.000689172138970104
0.0175927224491929,-0.0307446594696965,0.00813297215660327,-0.000970858253098843
0.0181764166137366,-0.022219845467537,0.00359498478319999,0.000568850374785012
0.019326961546699,0.0235979677376813,0.00397601322230264,0.00401684393218687
0.0176300540482956,0.080661890647662,0.00597328196994881,0.00557077321272707
0.0169021967568566,0.100075004368969,0.00529765677020642,0.0032863647041791
0.0216292004212319,0.0459531969022057,0.000614654858896223,-0.00058781257317691
0.0255689003590616,-0.0407884274461993,-0.0072005418995752,-0.00381293207492277
0.0207685999248681,-0.0841160733313075,-0.0141995684146819,-0.00642512762716554
0.00413341141932972,-0.0691346306335059,-0.0153943605824005,-0.00869514392917832
-0.0143910698616063,-0.0215900634708786,-0.0114559011084248,-0.00955253140100628
-0.00435434456547035,0.0306780776310123,-0.00602762818205434,-0.00823904049208611
0.0376066213831941,0.0625414141610092,-0.00105952803481901,-0.00558212540678687
0.0731008530267646,0.0655324076903155,0.00303707245307395,-0.00257780760542269
0.0806818059037623,0.0485798745909396,0.00732722437418125,0.000445730857349205
0.0677683312156713,0.0173272075952943,0.0100696743012058,0.00311420975273379
0.0520157709035993,-0.0181551284529988,0.00722924908347712,0.00479617421299948
0.0431561969501573,-0.0371205621077224,0.000185176440018572,0.00491280681975872
0.0365442783658393,-0.0365332943887666,-0.00387689891781181,0.00353786951790365
0.0308092403622225,-0.0314626188646421,-0.00199076934333193,0.00173043552183943
0.0270096028307707,-0.030091904781514,6.1263630416428e-05,0.000523080986185825
0.0218449892201495,-0.0291691412791331,0.000189679380904704,-0.000137787641898379
0.0121253317814853,-0.0301625794296414,-0.00036511366457067,-0.000657717410402029
-0.00767539967306524,-0.0245443021761398,-0.0022595964186357,-0.000978488413243411
-0.0387153362744756,-0.00129227395316968,-0.00351821718117503,-0.000994836645069793
-0.0683588660211209,0.0203016457783769,-0.00261716839817207,-0.000855199668291869
-0.0857920673656469,0.0259528209537438,0.00102717376614549,-0.000942244368438896
-0.0881462786931864,0.0289179858917104,0.00545677661543284,-0.00120897539607863
-0.0743244179157021,0.0382333091676175,0.00718751228421737,-0.00124582543211854
-0.0562523452983728,0.0521713548322804,0.00562082310156943,-0.00143196703372593
-0.0496935719905607,0.0645979103274649,0.00245953473723684,-0.00214922789902483
-0.0532135050881546,0.0644066777484291,0.000765753880754418,-0.00277439938803318
-0.0591108815352269,0.0422776252197653,-0.00115930261355475,-0.00286062917435446
-0.0601892808493553,-0.00360649889911469,-0.00676261216524081,-0.00269111678180226
-0.048056598599531,-0.0517695855085878,-0.0134627883535263,-0.00216295474605969
-0.0254508131695347,-0.070614206249316,-0.0178897278343485,-0.000913249935450406
-0.00529661996968744,-0.0602049399928987,-0.0184538623308748,0.000895108130916611
0.00286097176307132,-0.0402994448397857,-0.0155505839577942,0.0030016986518572
-0.00589184468910954,-0.0264083809132259,-0.0113749155956616,0.00511286947590286
-0.0174507215370295,-0.0245089999936665,-0.00550438923926495,0.00676868795964732
-0.0123747320309254,-0.0353093832060807,0.00093480761227385,0.00769089447374132
-0.00114212479724153,-0.0551671039710148,0.00269718980227512,0.00793958630955865
0.00565140097839475,-0.0616996494898661,0.0010938320006589,0.00755367638018854
0.00995068252352577,-0.039857870572837,0.0034693896246968,0.00627304647709602
0.00399281739120971,0.001634044805012,0.0104766319911737,0.00429241120096854
-0.014369639321906,0.0398807299274329,0.0171720127342569,0.00223028931408419
-0.0348322489135495,0.0509154627904058,0.0194925656883646,0.000524240031684659
-0.045503944453919,0.042732526910602,0.0154321184246197,-0.000631062466280059
-0.0382324952992288,0.0444282769805591,0.00816968460424847,-0.00148007754097382
-0.0195131826186548,0.0601089610522953,0.00357223852427501,-0.00220668517820709
-0.00437133334421379,0.0712533815772822,0.00364351300261148,-0.00265595058668857
0.000190190079621358,0.0681202894822914,0.00727652466638611,-0.00278996329169833
0.00291782677394974,0.0535240982356901,0.0124817185214283,-0.00255244522528485
0.0110300997935409,0.031303425506488,0.0168558638570349,-0.00139153092307718
0.0117602592658508,0.00864370183752672,0.0184331768910798,0.000902535166686472
-0.00755643779840234,-0.00757993706026362,0.0173637109136862,0.00335511154442782
-0.038266345452468,-0.0259680506790706,0.0141106917811718,0.00487510585052607
-0.0587383956710968,-0.0529981642478367,0.00826736795971941,0.00500528460016842
-0.0553725035104851,-0.0804426298992959,0.000906010119445494,0.00399507149880474
-0.0292179369013411,-0.112295959399422,-0.00622261372264785,0.002718354387884
-6.07697755834052e-06,-0.149659970987548,-0.0121733726498774,0.00204291880886963
0.00651652994736956,-0.168674758435414,-0.0167462440912763,0.00208441984598771
-0.00505607195155904,-0.145033716272908,-0.0180767284976222,0.00225715505833893
-0.00892397023816331,-0.0727357332730416,-0.0150252416403248,0.00233994184084853
0.00228743078071823,0.0157465510534945,-0.010718040630445,0.00234796042397082
0.0177472604198067,0.0758514937594284,-0.00859313302705822,0.001675307019654
0.0265219115758583,0.0938466952307656,-0.00695324825808592,-0.000380808026046081
0.0300879346360224,0.0796811052994718,-0.00209267837382599,-0.00348144412651463
0.0409805559623132,0.0602717701503148,0.00511455637099517,-0.00608460337734213
0.0589742133628092,0.0553329854577392,0.0105328173557347,-0.0066611339517739
0.0681661407826745,0.0546789954670166,0.0104362051833932,-0.00481674104014566
0.064765100575633,0.0426385287995152,0.0061823289232848,-0.00117130440398832
0.0600458503084765,0.0245454260374227,0.00134532868492553,0.00276422365423816
0.0548090200229926,0.0162936672232052,-0.00349957796341224,0.00516542923882814
0.0418775158255009,0.0162803238582742,-0.00625506178618374,0.00510680391693162
0.0267684479812002,0.0108914099298522,-0.004694649559046,0.002747761184064
0.0148626307080138,0.00348928178380734,-0.00159934780849102,-0.000807132775178289
-0.000930661170944893,-0.00121368838758767,-0.00183654037926844,-0.00389551105173659
-0.018401804133363,-0.0110293120865024,-0.00702800222010943,-0.00538806081931252
-0.0200583391666189,-0.0201244601765848,-0.0136607735253684,-0.00521949705148501
-0.00396753107669387,-0.0223801863963458,-0.0175110722720188,-0.00387464621606357
0.00812673070265327,-0.0239272968167944,-0.0178787325419508,-0.00185762629084857
0.00373691205694111,-0.0328742042944103,-0.0186856571522378,0.000259189183501937
-0.0155337222733319,-0.0636956696264933,-0.0213379599577223,0.00169338510854527
-0.0464134059827893,-0.10028493533962,-0.0214042191661604,0.00190822136383215
-0.0694002751730626,-0.104665784583585,-0.0188734367441708,0.00108928673449983
-0.0635477150594967,-0.0742620686125742,-0.0156009231670118,0.000113090524909681
-0.0400879844744018,-0.0234600591503199,-0.009870809711007,-7.05589656508896e-05
-0.0213630049141389,0.0374702117031342,-0.00122737395997021,0.000383437337619597
-0.0118647852170813,0.0892508568364999,0.00541921855306884,-0.000171016531559062
-0.00590805647846205,0.11228936167429,0.0049441628867323,-0.00229111512058112
0.00110164214220014,0.107743016600484,0.000818821789600771,-0.00388904727894597
0.00650326672886735,0.092460242953689,-0.00156858709275796,-0.00377959480898258
9.65743352553169e-05,0.0741455770478589,-0.00298595145338869,-0.00322387853107328
-0.0120539443814222,0.0451925085964067,-0.00491922349720687,-0.00351197694121279
-0.0123834928111618,0.000208525167241468,-0.00582824903504415,-0.00459830161709624
-0.0111641905523483,-0.0502960634777695,-0.00625984424431621,-0.00558559834055713
-0.0241584151658542,-0.0831272368440843,-0.00674608372523461,-0.00559283653947132
-0.0419123093651189,-0.085824794195765,-0.00455472952928903,-0.00436402665083704
-0.0516704948881279,-0.0680575486599044,-0.00125298427155415,-0.00220193251098549
-0.0509323595770694,-0.0459498892691842,-7.51669922537199e-06,0.00064357761388961
-0.0480365725446987,-0.0382556485684095,0.000809502462052657,0.00364995245592414
-0.0443329002045221,-0.0467801042251348,0.00271287314875138,0.00598194807700105
-0.0291002981164666,-0.0375354838413191,0.00582213932356454,0.00725573899584876
-0.0107582504911484,0.00900680364444974,0.0090605489857581,0.00756003797956061
-0.00350575521190026,0.0620781137900335,0.00967708952645622,0.00692440910886357
-0.00115775025368492,0.0922818172701401,0.0102531256893732,0.00539010650289572
0.0119855857405609,0.103973449719023,0.0127662837449953,0.00332708314242753
0.0366925505924398,0.103600686125944,0.0108913050758631,0.00136440615890494
0.0469918639088729,0.0891777127318596,0.0037202911115053,-3.90315687760906e-05
0.0308560137992911,0.0669775698787879,-0.0020811094362701,-0.00089341235535368
0.00919009075708879,0.0372412299707623,-0.00320332833482614,-0.00128762014259726
-0.00304174217213866,-0.0143963644061855,-0.00327441596205357,-0.00140028986919399
-0.00683916174216926,-0.088872960616584,-0.00627170757917214,-0.00137248376961244
-0.00374594260727663,-0.160737706714305,-0.00770993529670575,-0.000979939542458608
0.00483911111935725,-0.190355962990729,-0.00451647622604651,-0.000449207306264962
0.0113782901053521,-0.160208597932831,-0.000723224296584741,-0.000274756561579424
0.0106798368479048,-0.0980797180795285,0.00157066443136533,-0.000551703375882953
0.0101865002045197,-0.0475456148200919,0.0026604872424134,-0.00114228964552652
0.0147865326038057,-0.0234993235362407,0.00267428102611466,-0.00157617588851395
0.0194933787488373,-0.0148458522917639,0.00236709768378564,-0.00174507360768525
0.0213682998285103,-0.0146115549447699,0.00363192819630253,-0.00162059167204743
0.0184671566213737,-0.0133506093175865,0.00688271211995794,-0.000474470414548146
0.00602257282120357,-0.00844626207563635,0.00881924012335362,0.00173922938040098
-0.0140429911846046,-0.00638246321627367,0.00903969970296123,0.00371276635901894
-0.0264108773033841,-0.00231968945394793,0.00974178883611163,0.00404994740725378
-0.018135830176031,0.00230888733781062,0.00696314045843345,0.00264679421352846
0.00319060169419236,0.010224084548434,0.000994984263107626,0.0006240286727412
0.0198038847629532,0.0344999197231164,-0.00134359854631939,-0.000853784072239636
0.0261563087180801,0.0649170729854041,-0.00146141241859141,-0.00127139384694889
0.0292487455035369,0.0837083254620896,-0.00273393411781669,-0.000898797319305995
0.032000175134406,0.0889612752393851,-0.00430018872693638,-0.00029562183513482
0.0335790780487441,0.0804305905217488,-0.00506276853391335,0.000273599681370757
0.0346383298374071,0.0609857488937883,-0.00358898418211601,0.000566069334031454
0.0340034264729184,0.0372739882052074,-0.00112541609736527,0.000183810166158338
0.0323570255560954,0.0115165100397178,-0.00150191786588485,-0.000870784180350176
0.0311374221858154,-0.00997890432653962,-0.00486334794645032,-0.00206951025362991
0.0259220216581342,-0.0327884855454983,-0.00765019219679323,-0.00294894491319957
0.0207271022188849,-0.0649812731138156,-0.0088969822907935,-0.00321651808301079
0.0223028919997887,-0.0932690586833352,-0.011228288722459,-0.00280003961574952
0.0145956849289492,-0.118173669575749,-0.0148615552338493,-0.00219970842400019
-0.00705263379192651,-0.145114952296522,-0.0166962661200983,-0.00196777619769394
-0.0200527401387316,-0.155130063844309,-0.0158927069734581,-0.0019757121918804
-0.0165529990176541,-0.12725754001014,-0.0125733298598665,-0.00159990462463097
-0.00642571580131102,-0.0706840892084424,-0.00744926841943445,-0.000748466719198104
0.00197262303776043,-0.0156790307268297,-0.00178972416519663,-8.84325095333534e-05
0.00563896841732145,0.0227811109307735,0.00338072772567909,0.000144921184881558
0.00416243788302524,0.0418494099463143,0.00463536552651646,0.000131003935837303
-0.000423649086605341,0.0483125259541173,0.00265233308101031,-0.000280312817790865
-0.00463976145619059,0.0590939895565529,0.000580183834427699,-0.00103292991653244
-0.0106656348166733,0.0754080709885132,-0.00202323463001641,-0.00170238360402206
-0.0195679134609943,0.0812793923054749,-0.0040137006375226,-0.00205091525070233
-0.0280957110755717,0.0709448327400639,-0.00417126282614239,-0.00194894580221972
-0.0342549776529413,0.0550549235992916,-0.00273749769747767,-0.00110794765851177
-0.0336655339746612,0.0382793594469454,-5.34347023691574e-05,0.000312629736906028
-0.0257551537381932,0.0169288613274045,0.00290504644768792,0.00157521460009377
-0.0186168903971509,-0.00294873936765747,0.00518423868081922,0.00246382172484007
-0.0155653738471232,-0.0154753900739115,0.0052098535428564,0.00298789819009283
-0.0147243127733108,-0.0265584034115064,0.00210711647361824,0.00292627173623005
-0.0141619385629088,-0.0368896449649352,-0.00037513075416391,0.00239186193182568
-0.010393919986107,-0.0462008862382325,0.000561167991492972,0.00168219154063382
-0.00438990953457185,-0.0602498955249328,0.000484874528343606,0.00115627694644058
-0.000600927442531256,-0.0677447167773787,-0.00228446178923948,0.00107512831189753
0.00100316464244059,-0.05953069929963,-0.00372876085034375,0.00130564582689797
0.00406603986964229,-0.0436432236746543,-0.00215994308427073,0.00124852866285017
0.00634482490173623,-0.0212365962537403,0.000188380101969171,0.000462350988664153
0.00488017300821841,0.00317184962943866,0.000672827322689359,-0.000600862753668024
0.00271736344525987,0.0261247750786124,-0.000640049405531296,-0.00100268423602907
-0.00175820168882705,0.0495133578915386,-0.000765297565382585,-0.000268681210005591
-0.00790017058765751,0.0660891663705351,0.000926702701637283,0.00107785101012167
-0.0088252332398768,0.0713654231512718,0.00200343315773586,0.00248943563430655
-0.00761465874074932,0.0659725311670689,0.00199276469805831,0.0035887034533532
-0.00829400469630386,0.0513532149267538,0.00142901739218577,0.00359372999320736
-0.00478811553925485,0.031475538886657,0.0032054726348714,0.00225436233785247
0.00400789297700304,0.017467803301146,0.00827244624500112,0.000429442649264974
0.0104010512257738,0.0141070014435658,0.01070051675998,-0.000414261040360345
0.0130647609810162,0.0119575855187736,0.00950067442406412,0.000431948099987732
0.0176878128484344,0.00513616444177131,0.00747891514770283,0.00211528231822032
0.0303377539145679,-0.0124079577141882,0.00409268343677489,0.00327523923465008
0.0534966293107445,-0.0432870803319682,0.000315270108634223,0.00335737138005779
0.0750669985523642,-0.0680477484652891,-0.00288239244963183,0.00283658995672277
0.0743559654879912,-0.0694076118779383,-0.00617783046834474,0.00217778252443107
0.0483738046538405,-0.055374063871965,-0.00944049618924055,0.00119936981154293
0.0244003109438897,-0.0243474085008934,-0.0104357503988967,-0.000180789472060465
0.0268508804639094,0.0289377403600182,-0.00538388682743775,-0.00136211155333416
0.04569941261005,0.0780113413108239,0.00423120433651539,-0.00161344607681691
0.0587672716667515,0.104112186974197,0.0106994330297424,-0.001017827121924
0.0575861009350314,0.118209793832927,0.0118499634736092,-0.000178512558632098
0.0388713013509555,0.125249898699045,0.00963288759207195,0.000520496437291714
0.010950028304108,0.118955849103045,0.00536959819414539,0.000689201605011571
-0.000496015281918227,0.0951481137804908,-0.000483281974666055,-0.000342723550813715
0.0101179440454454,0.0584642382105491,-0.00881821751136611,-0.00303821962742513
0.0284211221052214,0.0207452134251107,-0.0155386513416427,-0.00674142944819804
0.0484929317708174,-0.00553731282559428,-0.0142539488133905,-0.01002597555733
0.0650246172960257,-0.0129712969298089,-0.00525151085578169,-0.011727620379286
0.0669004007608733,-0.012762758770993,0.00356956322344641,-0.0107923347997889
0.0494402343422419,-0.0207203036959144,0.00716720468766447,-0.00683710654968752
0.0157032383251082,-0.0348644678768835,0.0067750369970832,-0.000295127279090892
-0.0182611113296076,-0.0469502054970846,0.00400043503958264,0.00766619456267003
-0.0284129882201059,-0.0459860557221877,0.00155696687563885,0.0139288102497385
-0.0203682837436815,-0.0269626657741382,0.000541272157276926,0.0154862364606699
-0.0184696939785123,-0.00898706102893294,0.000312428277813194,0.0119500181182542
-0.0145734955110894,-0.00110495461792857,0.00110219657075105,0.00529797676416325
0.0143409917673606,0.00928474444966315,0.00205528525317903,-0.0015437906667957
0.0513628247786641,0.0298863202242627,0.00445827615723067,-0.00671073056690969
0.0659554619100659,0.0598392590880558,0.00792848766981423,-0.00946791661439829
0.0595922398521247,0.0876454461666203,0.00812180328876081,-0.00986961092926631
0.0466423938412376,0.102264875913682,0.00577405197860161,-0.00890842530237681
0.0287342592577197,0.097675144923903,0.0020337300888745,-0.00755714480222807
0.00523618163977627,0.0643506964626985,-0.00502169761368914,-0.00614167207707056
-0.0145143584624828,0.0144825742074892,-0.0122609030441023,-0.00449848460711188
-0.0239263662379001,-0.0210508289267614,-0.0145470607369963,-0.00273484906319931
-0.0214051042518142,-0.0422353760147794,-0.0117111486402867,-0.00150143918918753
-0.0136791457860018,-0.05582851383246,-0.0085713382778418,-0.00071879735138279
-0.00703973266727496,-0.0422984535858281,-0.00680177858436103,0.000356033518347212
0.00300120171243678,0.000616984441179191,-0.00308317771096894,0.00166770895757547
0.0082559755060573,0.0397052316415214,0.00406512781923606,0.00264924750047013
-0.00272287865958156,0.0458689144665524,0.0121373693168655,0.00319511499432508
-0.030392953913616,0.0278460195088047,0.0153570202843989,0.00323009248515669
-0.0665193940612238,0.00985629008914243,0.0125321564162557,0.00263246501625203
-0.0854852479528788,-2.89258199048445e-06,0.00816530643017273,0.00187438369256916
-0.0753387073994791,-0.00570499167280704,0.00507183764307101,0.00152336852304842
-0.0568502972738157,-0.010181574761606,0.00350265413736744,0.00137824525880902
-0.0449011590417775,-0.0131054182435423,0.00250362879126133,0.000910831701474683
-0.0333485072390308,-0.0153017544096654,0.00244603591851608,0.000285949683182214
-0.0140130081516623,-0.00224383277401978,0.00407524717883166,-0.000135465340857139
0.0030937590922182,0.0379181649253947,0.00559220366004681,-0.000569071408091917
0.0005423195562683,0.081694739368041,0.00451621969733987,-0.00107223261099004
-0.0105490074008968,0.110969307007035,0.000175439658536386,-0.00127908902422728
-0.0184126095893371,0.131116554312396,-0.00241800502437935,-0.000990176192735083
-0.0296123700756019,0.138573352674892,0.000990132932811921,-0.000522038915329286
-0.0334373740631683,0.121310223801801,0.00748206881995985,-0.000121184250083308
-0.0207138272022926,0.0597441648310861,0.0136200122163763,0.000664341441833071
-0.0137195675410914,-0.0475765143745669,0.0161776382524743,0.00180037931723198
-0.0312239642629348,-0.138661511294355,0.0132243249123204,0.00232846121845976
-0.0496061476391099,-0.141964724549707,0.00748417108308046,0.00152335657938509
-0.0411712153662001,-0.0721406896771873,0.00379999466549891,-0.000155263183534503
-0.0190113411341301,-0.0133158211601452,0.0021694312089433,-0.00118865289149011
-0.00459515703402266,-0.00989606682515628,-0.000251841585256587,-0.000741764984422528
0.00265907136294091,-0.0323332081847298,-0.0032770530091539,0.000535300456052168
0.00775919453091736,-0.0551133890288625,-0.0085739554052764,0.0015991229569028
0.00908226932111563,-0.0773736904373786,-0.0127419355426376,0.00205883489344385
0.00357289938320638,-0.0893099046666163,-0.00854972083479049,0.00217067047627033
-0.0143017263663093,-0.103211031093525,-0.00080395010647729,0.00215193157577127
-0.0425427821901928,-0.125973246371883,0.00401118697015758,0.00208626052336312
-0.0664580258259027,-0.118081009638511,0.00769750473305874,0.00212578284413858
-0.0829515234741285,-0.0656262601981333,0.010655563746587,0.00233238665232973
-0.0975893431431955,-0.00434329836321462,0.010043575436,0.00233365514541005
-0.107541586930586,0.0337287831703261,0.00550880556750306,0.00158422684219639
-0.112557841268459,0.0440201369164532,0.000679693334427057,2.95488342011989e-05
-0.108101368121881,0.0403378289557339,-3.76925893112463e-05,-0.00159982927326267
-0.0865219609391031,0.035836815914859,0.00176400810404717,-0.00227598247570064
-0.057333755176373,0.0275030276099812,0.00181305260244521,-0.00193672399305518
-0.0380089645600625,0.00167743620251745,-0.000165082056253102,-0.00118107241711653
-0.0333176686944581,-0.0423611088761947,-0.00290030876877234,-0.000292293004720134
-0.0310596931288499,-0.0809916489770605,-0.0042521078653338,0.000442145536193989
-0.0247899254129048,-0.0961623260560465,-0.00260945980082782,0.000912214833559489
-0.024486023553195,-0.103810260268428,-0.00156875409356444,0.00144835346601622
-0.0245189439870867,-0.11589996435511,-0.00565299518833511,0.00197924133921766
-0.00655484057762066,-0.123144491073163,-0.0123698575251334,0.00180192991983101
0.0177195606520858,-0.121121208904699,-0.0176586749525504,0.000802007858893609
0.0232050998127575,-0.113036389847423,-0.0191391755907536,-0.000512505071073129
0.0129904651418178,-0.10637531955694,-0.0153484179828912,-0.0018002108898442
-0.00432396318794281,-0.0983660676917307,-0.0107258213881327,-0.00239166446074005
-0.0313731032724199,-0.0772947148665406,-0.0100305791162204,-0.00180079034041499
-0.0540952403243968,-0.0469370058401855,-0.0101817735369963,-0.000593272906082558
-0.0547798697679156,-0.0215800316966468,-0.00833403327260419,0.000361306282512799
-0.0423285697242289,-0.00539411831038403,-0.00749876264537156,0.000753283521362537
-0.034073821735687,0.00482565588533657,-0.0105587651635021,0.000889006461384796
-0.0300518931545908,0.0104997175691115,-0.0146469368153088,0.000956542569494293
-0.0181204711517584,0.0132667635836221,-0.0140335606178562,0.000854381042453234
0.00632606564649678,0.012262610904695,-0.00928280199495525,0.000756754177777928
0.0309387390060738,0.00946571908094498,-0.00521805174854623,0.000608008293704648
0.0423780042710258,0.0117187807667519,-0.00330346107677758,7.13662834187242e-05
0.0450566730847567,0.0152935836578048,-0.00326568851970017,-0.00126402834014824
0.0537977120440879,0.00689283970225318,-0.00342266258806086,-0.00377460229168408
0.0714301677325503,-0.0131409902612519,-3.18259752727507e-06,-0.00628028831123195
0.0828338156967882,-0.0257520511304381,0.00357344057836878,-0.00689623049086609
0.0713154826454786,-0.0269770313129629,0.000276646081958981,-0.00570900774482324
0.0409744698960362,-0.0270265195851664,-0.0073335608619494,-0.00385322650854496
0.0150936077819078,-0.0261504980973673,-0.0130512292794574,-0.00174468392054808
0.00647434986563455,-0.0267154254342764,-0.0137435671266834,-0.000116192862721166
0.009564576912661,-0.0290180946729638,-0.00892049932092284,0.000666437208031897
0.0197133088205634,-0.0268646060632583,-0.00292739211735655,0.00217687583869297
0.0335757684766134,-0.0151886523709701,0.000314980735332842,0.00511934779190638
0.0482953375329458,0.0123775703986466,0.00180500216236938,0.00747052178602857
0.0654620071172905,0.0491241875094094,0.00301294476657197,0.0071642331945794
0.0783669039799237,0.079484980788338,0.00312937199065224,0.00432798988474245
0.0817971572132477,0.0989794392595034,0.00268548771072446,0.000694587950366666
0.0833578144194776,0.110158556362176,0.00304856914164619,-0.00253150148815174
0.0857008518802515,0.116857384718563,0.00252728458982469,-0.00512944751253799
0.0852586066356874,0.122277612198692,0.00119002996357539,-0.00656174343625429
0.0851314389741071,0.123859248497786,0.0017914620843077,-0.00634266657976858
0.0857246288933157,0.110483338944109,0.0034214190172918,-0.00487722185576116
0.0843014192368357,0.0771380539574559,0.00477488772982276,-0.003089655024075
0.08077054920979,0.0398290569993735,0.00843283180927749,-0.0016939807522983
0.0700165615173142,0.012696244399066,0.0143538110021735,-0.000607183176111418
0.0464900734601087,-0.0133248965073111,0.0178687500168641,0.000809713414543326
0.013122646702376,-0.0454743223432362,0.015724070323829,0.00289683597028035
-0.0102685705240499,-0.0760816645902998,0.0109380115260147,0.00494422520374608
-0.00764996040564401,-0.0903224445544179,0.00822008486020179,0.00574414086028054
0.0019202961213607,-0.0767565193053657,0.00649034442799245,0.00520542026301445
-4.62643255271719e-05,-0.0437014466670902,0.00503232905356542,0.0038554607626918
-0.00421814821479623,-0.00345695021373515,0.00688370296038963,0.00165052484445562
-0.00169002303655684,0.0396285641918166,0.00912807689127375,-0.000732873484481303
0.00778185406579932,0.0770672203602007,0.00862501999087464,-0.00191674937507937
0.015868412482348,0.102963872087794,0.0093507188736024,-0.0017031344637781
0.00902666318638817,0.11903724378276,0.0113033295716729,-0.000812442088932773
-0.00907951688508702,0.123266734309574,0.0120391058088475,0.000231746967103363
-0.0220152081267687,0.113952150147946,0.0118139876585936,0.0012269892449232
-0.0247108182000497,0.0963343250113762,0.0108539447226464,0.00191223774643486
-0.0236994641157318,0.0725107347200576,0.00829819912436031,0.00203367358329711
-0.0238564884743241,0.0367373181487266,0.00219347129855326,0.00164521086346296
-0.0264834222433308,-0.00661755223450591,-0.00383579480652552,0.00104647199487983
-0.0292116055843985,-0.0452900497656175,-0.00484973326106235,0.000770376242202353
-0.0254301990643498,-0.0706187039000049,-0.00306178876640708,0.000971083934400575
-0.0141281741031842,-0.068250380697252,-0.00131822476100457,0.00148181915567469
-0.000389568654041134,-0.0415610079441878,0.000321167766499639,0.00221355187315528
0.0153209392542575,-0.0133189736876146,0.00305030401101534,0.0027345371345842
0.0309145502994459,0.00945178736184481,0.00542897601145969,0.002432912392487
0.0341574414444972,0.0234827876326167,0.00433420774839131,0.0012723743355697
0.0241436509359828,0.0205667677318601,-0.000193306845400943,8.67669686349668e-05
0.0112244712813637,0.00916506406115304,-0.00745325666433145,-0.00026542887804959
-0.00297831425188769,-0.00356078969796528,-0.015760514594423,0.000206276424093839
-0.0207888179062049,-0.0159554035648881,-0.0217064964839691,0.000643417361292856
-0.0374428853076217,-0.0119669649148483,-0.0209368111030763,0.000453984729843662
-0.0460510939021365,0.00984934161764393,-0.0137070659426655,0.000357018343035347
-0.0494953927083578,0.036269264953595,-0.00598579600791569,0.00158778830153976
-0.0473266007243476,0.0573657182406999,-0.00190097011054467,0.00332959004834217
-0.0341488909957489,0.059141788867098,-0.00247942528005956,0.00225314361343497
-0.0218949377521428,0.0435196185837161,-0.0053277938417688,-0.0027038373175388
-0.0248314164957338,0.0320806261697758,-0.00793986689137447,-0.00803752758275907
-0.033335721873471,0.0342603749598222,-0.0106594728760907,-0.00989908402828036
-0.0342162125751613,0.0365883551751277,-0.0124666485080216,-0.00724154125238235
-0.0292901559095247,0.0254890655910236,-0.0122592623368249,-0.00124924421941472
-0.0268916120021784,0.00343519813217293,-0.0107383764179394,0.00483741010659039
-0.0273566686991588,-0.0175734097562875,-0.00885886634647464,0.00671534512404264
-0.0233176851338756,-0.0264711415307698,-0.00713369208811825,0.00341740071930045
-0.0161541806609955,-0.0242276565372267,-0.00575528472058034,-0.00130797859175833
-0.00995755935520276,-0.0248335942422371,-0.00664655309894482,-0.0033870583687148
-0.00387275374843637,-0.0404463147465674,-0.00906948728553385,-0.00193435868026083
0.00507427788777725,-0.063384383525305,-0.0102215673574906,0.00131969878307018
0.02621321164221,-0.0687538806574148,-0.011126920489044,0.00396588024162723
0.0573140404657911,-0.036630336156106,-0.0106501962314465,0.00475201944570062
0.0702478396550159,0.0193953837185616,-0.00711564005755606,0.00420275945772891
0.0559143967682372,0.0599405088002246,-0.00259175280564439,0.00304272498815851
0.0409144414329646,0.0735115617677581,0.00164153250569936,0.00152651072469755
0.0368794981046188,0.0784218954807671,0.00396690562995181,-0.000186334590935381
0.0371170946898647,0.0783279699833139,0.00443934214521435,-0.0024014142553198
0.0365840387299604,0.0482160801377969,0.00402029843516221,-0.00512757053372022
0.0231999074646582,-0.0164930375125823,0.00203564106546799,-0.00732375072352296
-0.0106077174180696,-0.0684572216418947,0.000868796773639893,-0.00792991543793623
-0.0430470341439102,-0.0740913761239383,0.00249764805968635,-0.00641731632619826
-0.0505678976527886,-0.0506804031006488,0.00271857497874088,-0.00287721146446614
-0.0400412368685818,-0.0266773136117085,0.000798875462933307,0.00128134785739908
-0.0214165084255611,-0.00410568696538413,0.00138245960856617,0.00424461449911208
-0.010274823378135,0.0271089295005171,0.00424583877762889,0.00564426627257054
-0.0201688450827977,0.051854877802304,0.00615696928759707,0.00587135828000623
-0.0296237496648321,0.0528784123404559,0.00544584594733221,0.00457486999698252
-0.0151976681234965,0.0377772319179732,0.0046025010126327,0.00183955772988329
0.0138356035322918,0.0184060295066936,0.00380402909483534,-0.00116448378026816
0.0316850703521395,0.00250756974884003,0.00162495796643416,-0.00336868469378517
0.0243264511728904,-0.0021613696527733,0.00203380413597087,-0.00391693597656312
0.00244111610504723,-0.00882001538412651,0.0042612990875128,-0.00244938400957891
-0.00711056804987808,-0.0266174382923261,0.00415658368715532,0.000186042208386143
0.00619225959223427,-0.0312845186703798,0.00355508239414073,0.00252328877505205
0.0252266901692613,-0.0113467269814252,0.0063214306906303,0.003625045758186
0.0344809438281384,0.0233721790059485,0.0122385043391541,0.0035869094496453
0.0341240975855783,0.0493754899844723,0.0182806531743249,0.00269349705196914
0.021945956879227,0.0296391819550537,0.0214745588140628,0.000625683373477087
-0.00586893245645921,-0.0424453110182179,0.0190409692495375,-0.0022626237192389
-0.0344887514727244,-0.120286447236583,0.0120471491549446,-0.0046020068787219
-0.0470901871346241,-0.14408108964063,0.00530290600725339,-0.00536543498447988
-0.049884988808492,-0.100025002866775,0.00158031603974801,-0.00438216290283239
-0.0510396965583905,-0.0331892313092176,-0.000200661901246211,-0.00256219356027298
-0.0436956700472013,0.00434795942045749,-0.00123382828826937,-0.00103937433899364
-0.0268021927252594,0.00999729974955899,-0.00161214997870664,0.000163733520078395
-0.0105888909193628,0.00862098502671811,-0.00152827678687251,0.0015918699432727
-0.00413572382650655,0.00233830641437359,1.61628337705475e-05,0.00330257826472584
-0.00919369391792515,-0.0149727813772314,0.00256713510644335,0.00484465260829592
-0.0192063142751019,-0.0332068222786875,0.0035877101153981,0.00575353731664759
-0.0264042119109222,-0.0464364033246903,0.00373514055140704,0.00573475304516555
-0.029301054996538,-0.0570422437210316,0.00508627037602844,0.00464530625884003
-0.0287975586011339,-0.0508982664150928,0.00800253622676665,0.00235207274682492
-0.0271836317004812,-0.0203490299913266,0.0114628488099778,-0.000702190318513513
-0.0295329556617284,0.00843702382214705,0.0129726944596522,-0.00308751666510072
-0.0376790911208733,0.0148529226481304,0.0124087106327173,-0.0038816954638237
-0.0499846774745146,0.00448004256642182,0.0110213204182561,-0.0035757700026928
-0.0622303826179676,-0.0104325548146459,0.00902362527799883,-0.00295229484851713
-0.066798216662237,-0.0179745249008811,0.00856466849518455,-0.00237047312342445
-0.048679882413704,-0.0172504531590807,0.0119744798827189,-0.00198493826535984
-0.00723031183477525,-0.0177723500978152,0.0183840611745832,-0.00164629753122381
0.0235154309530212,-0.0235841409034943,0.0230336883725618,-0.00100752278391447
0.0244406207317043,-0.0273907640232278,0.0217820988062312,-0.000153313081228381
0.0159143740982569,-0.023969637495887,0.0167084912683404,0.000563738220300737
0.0140756193009641,-0.0241069738694083,0.0108818992616109,0.00132678151730891
0.0173168708944554,-0.0380628959745542,0.00433225410780894,0.00234070910048073
0.0183632630598297,-0.0639341779619998,-0.00342485507312689,0.00320661860804657
0.0114227838791213,-0.0955933133806451,-0.00993980979072386,0.00375113318292001
0.00414338828186279,-0.117478616939469,-0.012304121714026,0.00401379774611058
0.00438301946549365,-0.118686354422623,-0.0116536424512111,0.0035119619734507
0.00732524876438768,-0.112457528326426,-0.00714435405439539,0.00214145660700613
0.00832534240571076,-0.0968404381601152,0.00367626125322163,0.000805456217860642
0.00854150755853324,-0.0566085484401875,0.0173087406887774,0.000202945849246914
0.00270515790540668,-0.00875571249404078,0.0256468924338798,-0.000241733827542984
-0.0184929971920383,0.0194683270564783,0.0249806818171319,-0.00157797865767007
-0.0424500527432672,0.0252542307249743,0.0193876242866955,-0.0035842213799084
-0.0496921978937431,0.0312032366219066,0.014319335172121,-0.00508054622251071
-0.0464305055518768,0.0550718481107682,0.00916639684726582,-0.00585096000358887
-0.0486521262207983,0.0803257726717553,0.00371963916521567,-0.00630236115227331
-0.0503060414730645,0.0874528137138614,0.00409142221858607,-0.00574503741451143
-0.0381110473776691,0.0890933150375718,0.00917262593399555,-0.00309475767814037
-0.0189080854763218,0.0855258692642136,0.0104843060966297,0.00164050579147684
-0.000523485895758957,0.0472797163046545,0.00744644412659209,0.0072272991581188
0.0216948791890286,-0.0134980507392664,0.0045818153384153,0.0110876697259758
0.0472522060214052,-0.0475165927956755,0.00160990614117776,0.0103193848180477
0.069585937514315,-0.0426509489631868,-0.00206717267053976,0.00475490276382444
0.0847552365281829,-0.0237088200142483,-0.00281015212836775,-0.0021642212566006
0.0887685503633438,-0.0092863642782926,-0.000392829333939259,-0.00664981238866082
0.0820731021322793,-0.000299859389044839,0.000236779575063462,-0.00765277217924531
0.0715412240574872,0.00305924754778885,-0.00373901646651093,-0.0064454828192389
0.0653905374797208,-0.00365370736697555,-0.0104183844537213,-0.00464359974783356
0.0632733141210607,-0.0148206867330731,-0.0135204657384682,-0.00314861447031963
0.0574679912452185,-0.013501123425272,-0.0109244539935408,-0.00171255715734194
0.0487166882637055,0.00374771310536844,-0.00799221081968533,4.68235294392816e-05
0.0361665478240112,0.0193459886049952,-0.00677786051438652,0.00138167156053965
0.0178993101338061,0.0272347403116356,-0.00448392413946759,0.00123510969470072
0.00528269579833748,0.0452905553015797,-0.0018056393083828,-0.000265346852249679
0.00217698074460393,0.0744784842847384,-0.00377737522910687,-0.00187026844569285
0.000712338346504943,0.0885460742766063,-0.0104642251406216,-0.00320429274192958
-0.000273729667820001,0.0857942588694647,-0.0166482154420856,-0.00497553529388015
-0.0024367495576819,0.0846256978113372,-0.0234571499159141,-0.00701079177216387
-0.00901999704185021,0.0877106324811226,-0.0337473321656103,-0.00801351510536056
-0.0138662917955877,0.0988112446331234,-0.0397292628026545,-0.0069586566499979
-0.0196631772949596,0.108009678112499,-0.0347773140979227,-0.00409613165105746
-0.0360201703027984,0.0824530958105458,-0.0253078623167995,-0.000772468093454196
-0.0497125453764119,0.0276738323140619,-0.018097040261541,0.00183987388231811
-0.0464248599519637,-0.0105377160025762,-0.0130390727189682,0.00329829974813612
-0.0310073835440311,-0.0152331020482489,-0.00870374683530883,0.00358309835167936
-0.0154418462547909,-0.00422408849115043,-0.00624896558427618,0.00317014186422767
-0.006781570718426,0.00884629907741342,-0.0049595752596876,0.00256613780437844
0.0054676047669531,0.0165684577731671,-0.00168449888160169,0.0019466427597285
0.0324457230632798,0.0218492734996128,0.000519421391461221,0.00143755775009086
0.0645926262648246,0.0328897194815324,-0.000422532337899112,0.00134696034324954
0.0830813209524847,0.0462744918028802,-0.0028777556979127,0.00176751861511306
0.0825681325368518,0.0626831867514233,-0.00621915896438964,0.00191841011931844
0.079784185259258,0.0843965466208479,-0.00821234976633468,0.00101004606760243
0.0861772497978118,0.107277328860761,-0.00843872931881777,-0.000815546001750685
0.0835151417576265,0.121102687629223,-0.00923580643532997,-0.00276486239121505
0.0585132576890612,0.0978164405650261,-0.0119083002181439,-0.00399327353087068
0.0252648387869848,0.027383397733075,-0.0159470020663014,-0.0043318148345332
-0.00585162234217121,-0.0431708354544506,-0.0183467893767668,-0.00425398606252523
-0.0348066160226386,-0.0650126330024621,-0.0182052614428995,-0.00398729916652911
-0.0516611493065822,-0.0392902703589182,-0.0173623027410049,-0.00337342877653861
-0.0511521971746445,0.00561892395531699,-0.0130724214237974,-0.00230986286698843
-0.0490116173279888,0.0333433685042679,-0.00457184163267566,-0.00060555544956198
-0.0548178405463256,0.026197004918247,0.000424460336140011,0.00182560568401905
-0.0554497837696477,-0.00196938810149346,-0.00161463519885975,0.00422394423884404
-0.0440519269359867,-0.026322809375994,-0.00537517647204442,0.00540374217848692
-0.0348712324325156,-0.0316944087116891,-0.00814362971062997,0.00510320687824379
-0.0342538752619031,-0.0404584824992453,-0.00883382632013537,0.0039455556269415
-0.0319118964573671,-0.0752831852512409,-0.00453424436688855,0.00249439660341487
-0.0215035577135771,-0.105566147119028,0.00327975777887704,0.00123923159641844
-0.00391734837909895,-0.086470186084497,0.010742929298166,0.000823455836028863
0.0192981750683675,-0.0247642291386004,0.0153209467929445,0.00144815799380626
0.0455191997347673,0.0369554773073111,0.0151334735037652,0.00233591589255671
0.0682005154025806,0.079782071489198,0.0139279033466452,0.00248577455043277
0.086570658113266,0.100137140691523,0.0143094788648967,0.00180097186561604
0.104539191074966,0.0930227389130285,0.0127834810750802,0.00108299435767224
0.115565568389258,0.0701551891537792,0.00996145816065903,0.00177523043632669
0.113824393221471,0.0442735608726527,0.007972885194355,0.00509250564197107
0.100048660815871,0.0178423837251066,0.00715453781990026,0.00912816695920256
0.0781224784486857,0.00289191599246119,0.00823060823387836,0.0095907055446242
0.0538898100174416,0.0076223741600015,0.00966029634959493,0.00546172140728946
0.0281269035880461,0.010817715910968,0.0072851745974111,0.00021507007800481
0.00221795302330842,-0.00825231494645806,4.76661959349506e-05,-0.00304083065097369
-0.0299125858504712,-0.0411973573995876,-0.00777946491829316,-0.00452099949694107
-0.0727115769891019,-0.073750455021846,-0.0107733950661511,-0.0063449722851222
-0.102415085201835,-0.0884360635841284,-0.00680205043505535,-0.00882934462595398
-0.105961873122997,-0.0805676374313359,-0.00115294026835098,-0.00896444830602563
-0.104960649119475,-0.0944107098638463,0.000528716774040747,-0.00539944626034366
-0.10866434340885,-0.14683700851501,0.000743448528564935,-0.000688740324481201
-0.11341578943896,-0.169358537383922,0.00328114461420416,0.00307796364328968
-0.124788925591825,-0.117813444000534,0.00794753110200714,0.00587066229178987
-0.131158144374932,-0.040522161237345,0.0139746033850169,0.0076764415522462
-0.10557093305507,0.010993880134973,0.0184495954007267,0.00796217689838279
-0.0407428539696952,0.0410262411511314,0.0186647045100172,0.00686856635893618
0.0343553662405915,0.0605842219161282,0.0170423610281292,0.00543054027915113
0.0775167679059557,0.05801161366806,0.0145231539622405,0.00465891500261215
0.0731781403625323,0.0343614593860863,0.00945699136648286,0.0044992122398113
0.038346569217568,0.0160674833222545,0.00294737586661861,0.00397521734937457
0.00740782535329463,0.0132565943668426,-0.00105359456860683,0.00250563860970864
-0.00186713630652643,0.00716488886040695,-0.00100346817848279,0.000664001844662797
0.001021785069351,-0.0190423378468132,-0.0004155944280503,-0.000706517896185252
0.00137658533719821,-0.0588629201199,-0.00102628352482729,-0.00150162993563078
-0.0111913568739209,-0.0875553476606496,-0.00100103486302701,-0.00195096202283877
-0.0311482404594736,-0.0899377943670346,-0.00114407115773681,-0.00190411835089638
-0.0407807480490861,-0.075255045476604,-0.0022778252128934,-0.00118616693093535
-0.0382294984739211,-0.0595729111069871,-0.00263638926186637,-0.000368371015243902
-0.0418999984794848,-0.04815267202456,-0.00268783880313746,-9.99107358821761e-05
-0.05942373052167,-0.0434680997328982,-0.00381752810058372,-0.000387741630915539
-0.076512105068712,-0.0485006636504853,-0.00733938940447856,-0.00104246127257548
