-0.0742863533921303,0.0960164434420059,0.00523534242989173,-0.000819667761156677
-0.0289046698525658,0.0921920487307134,-0.00418314567824402,0.000609591040876573
0.00445772871193786,0.0618672308892789,-0.0184748848327137,0.000693461725992936
0.00790779008055521,0.0454884966550714,-0.027474303409402,0.000526453287540895
0.000552557341552178,0.0349588020938272,-0.0238762680040329,0.00076062645423951
0.00641966328971603,0.000298939303548851,-0.0180258777850378,0.00110368918253005
0.0152674631002151,-0.0314892094644522,-0.0155157017237356,0.00111058110375336
0.00909760237529433,-0.0362382542620583,-0.0138547243276297,0.000881512352394293
-0.00438896546619189,-0.0370598912113438,-0.0144412504056927,0.000698263236792529
-0.010876682918328,-0.0499602244792356,-0.0152507034761429,0.000713810407882456
-0.00166058623533689,-0.0632512055184415,-0.014831453800177,0.000938080089638582
0.0180136340822964,-0.0655385096331336,-0.018113804948408,0.00122794075481485
0.0255738115341401,-0.0567934132096756,-0.0227952569814243,0.00140126156065954
0.0111149851042507,-0.0389929418201997,-0.0197758990829705,0.00133166582110537
-0.0120044320566706,-0.0220368466115804,-0.00669155012027834,0.00117004100832925
-0.0306469224730722,-0.0169506471355478,0.0014430702066343,0.00144690658876958
-0.0396719354827525,-0.0146797814967897,-0.00936590357584304,0.00214966535643216
-0.0357098891543626,-0.00331823297450028,-0.0243272207814465,0.00237781751965323
-0.0229766824801041,0.012303739802789,-0.0247896516898172,0.00170464203590338
-0.011264133569179,0.023248446374615,-0.0129724178163209,0.000747171498973167
-0.005238869609528,0.0252894043949276,0.00316057759027321,0.000209095785687254
-0.00622176908446693,0.0220195404073143,0.0205197916985899,9.7434657814543e-05
-0.0123771372107688,0.0239468224591175,0.0352474061790203,0.000136401888990485
-0.0182784538424471,0.0333793713240826,0.0400580891214862,0.000603338597808291
-0.0202635188698167,0.0398120646094599,0.0329338735172955,0.00153148104312192
-0.0195987424450691,0.0379079510435765,0.0234294736638331,0.00163291902357217
-0.0183833888228807,0.0345608999236178,0.0194014860316455,0.00019792586626984
-0.0146269406384454,0.0345430155658177,0.0193874595830985,-0.00100597172645007
-0.0104481796498669,0.0339078381084603,0.0189626825884828,0.00025224916267102
-0.0102380671030901,0.0301061313058103,0.0150560183339532,0.00370490571913783
-0.0111150333799221,0.0254887488394204,0.00974279867673926,0.00670493678989461
-0.00834706635444552,0.0220503060929577,0.00414086750759821,0.0070081552414246
-0.00174392022376671,0.0191199210058135,-0.00163579334127845,0.00407228401209091
0.00557942217419422,0.0166958835153914,-0.00462684985378975,-0.00114725455134859
0.00815296712943779,0.0155790635658102,-0.00503757907687968,-0.00587027940517378
0.00560227254171724,0.015106638599168,-0.00379936739840742,-0.0073758644799032
0.00427441676521766,0.0158981931491266,-0.00165183766529392,-0.00547326354448267
0.005882951757382,0.0159146726371143,0.00058943045445234,-0.00180624227560314
0.00800997217313987,0.0144905174884285,0.0020810307804473,0.00211756382757849
0.00983238335220801,0.0138130593433084,0.00249377359782251,0.00486738247071129
0.0113362477316411,0.0128302816188258,0.00372635269577764,0.00496042050983061
0.0128951621393321,0.0124121313818925,0.00657368558978842,0.00300794065839688
0.014722882527925,0.0127988892830452,0.0107658295804052,0.00105390390334721
0.0155559372660335,0.0125024305553652,0.0124599028529595,-0.000333284676456334
0.0149492961580891,0.0108630494885147,0.0077309534603909,-0.00176770216796216
0.0132058379702563,0.00631469888201515,0.00115988471688885,-0.00324516960803619
0.0117158358630141,0.000322545186022694,-0.00289193962761771,-0.00400803974819963
0.010136975791968,-0.00416487037078144,-0.00878230112353423,-0.00376505702715637
0.00799223461685615,-0.00419330951586005,-0.0154145875312647,-0.00322729588738047
0.00776669771857341,0.000751219162046821,-0.0167444097297652,-0.00293145333448962
0.00787752226628675,0.00559640331173159,-0.0130657210846572,-0.00250510660019913
0.00970784562469205,0.0051435829273358,-0.0079707991909665,-0.00189158214563131
0.0176660500006207,0.00167550847865355,-0.00418759142241281,-0.00167422953113315
0.0244806406105236,0.00547373280248005,-0.00175600886475556,-0.00212974245279513
0.0230541716947178,0.0170955533000969,-0.00204156813822508,-0.0028868710894872
0.0172389731268089,0.0235239706861789,-0.00564351889871004,-0.00334366775622963
0.0128952280983576,0.0238268472651487,-0.00904912212502498,-0.00351250144165235
0.0140428220251034,0.0308830989681451,-0.00950159487880467,-0.00361953037843538
0.0180664354823211,0.0428472657673264,-0.00916757873664325,-0.00335629532178743
0.0249659875678129,0.042652555653019,-0.00925663355724889,-0.00242868007922779
0.0421554465106762,0.0257044173046427,-0.00591425738353715,-0.00133159410807371
0.0575008572437375,0.00510532901290062,-0.000126510587421447,-0.00089144689469158
0.0434872154231854,-0.00367780835750426,0.00555240994588288,-0.00117471220541027
0.0071474605602164,0.00542159295654479,0.0158737083357178,-0.00134262684968179
-0.011938338937053,0.0243976749022366,0.0311806565325743,-0.000719012908069396
-0.00574637227415455,0.0435340849936174,0.0412584463122295,0.000123049733726021
-0.00528895885064169,0.049774426690093,0.0374238665973584,0.000300321850137188
-0.0315568936564304,0.0238595173398861,0.0241048994275359,-0.000153234771749313
-0.0715198598905243,-0.0330026841484013,0.0160899999940914,-0.000646749790307926
-0.0919250580242851,-0.0819343983735795,0.0197361253716397,-0.000738522156944027
-0.0742382399311247,-0.0802541630984138,0.0227259535009173,-0.000241097802669085
-0.0347313623870271,-0.0371660653932928,0.0128160967267251,0.000926166303529367
-0.000902566794252893,-0.00525301701768494,-0.0074564039834692,0.00220459927195135
0.0177267549078004,-0.0100730222573736,-0.0273198582996497,0.00240419769564963
0.0174020116793566,-0.0193737435888312,-0.0405457767716078,0.00105162652539751
0.00857617886148117,-0.0140561902631646,-0.0493402688217074,-0.000975515553637854
0.0123813199125666,-0.0139067824641646,-0.0554862519708093,-0.00221819859753663
0.0247313554835053,-0.0153702283740287,-0.0543466052202018,-0.0023412196266306
0.0379109748531959,-0.00316349327432872,-0.0401341979858636,-0.0021818512809902
0.0562371375814361,0.00910674421247958,-0.0167848630782513,-0.00196514439932878
0.0737962597631395,0.0111513577356172,0.00671774957347741,-0.00136216692052756
0.0765169807895691,0.0164494241306702,0.0211100949352281,-0.000180772555238817
0.0614264565577536,0.0278519865225801,0.022627997154058,0.00140544541581765
0.0407767771698054,0.0333517822829161,0.020105232105006,0.00277680490002815
0.0326145345163805,0.0230388633793138,0.0199826110482725,0.00347865716599736
0.0356250285745286,0.0011660531091474,0.0182478576031913,0.00354698336182357
0.0230239533344718,-0.0126595742049449,0.0111726109750542,0.00333385039434206
-0.00691266872518227,-0.0166496382784087,0.000643908547889285,0.00331035251782658
-0.0258718817518539,-0.0237712533776381,-0.00611296006232062,0.00356914827268377
-0.0498760336194366,-0.0340303831840336,-0.00254010244632624,0.00358344584429442
-0.105401644498699,-0.0382708813796875,0.00954143034150697,0.00304780889875715
-0.142129433045413,-0.034199748917254,0.0231186677745503,0.00246734918969645
-0.113968726381825,-0.029880329156724,0.0308408075394104,0.0027316056875176
-0.0583658256421168,-0.0290138971554263,0.0244553821525943,0.00404075875945169
-0.0213353114925497,-0.0266721123131244,0.00492101996861603,0.00508730557752885
-0.00484839371836412,-0.0256643521447426,-0.0140503431225142,0.00454775212174803
0.00527507949648685,-0.0317684058324217,-0.0215104645868018,0.00288614991682164
0.0159109812714088,-0.0341184463909002,-0.0153752075691908,0.00151425888347775
0.0278909053023293,-0.0306261639230454,-0.00110670587285152,0.00117342135734329
0.0396460638442776,-0.0343195677020542,0.00881410241212377,0.0012350720556272
0.0447225196765042,-0.0380809234992981,0.00554291128997014,0.000507663944054947
0.0433660933300911,-0.0306660230056721,-0.00249426800036575,-0.00113513669695866
0.0414819249567431,-0.0188339650841477,-0.00346074637701145,-0.00262059249429418
0.0357709059082135,-0.01052756916639,-0.000558430909296498,-0.00287879047488491
0.0232556608232542,-0.00523321132686692,-0.000438388328701814,-0.00196209404381655
0.0103197348597937,0.00462978671804854,-0.0026624066190208,-0.000930699460876944
0.00303627536679926,0.0209947782235596,-0.00325376920574551,-0.000423460024966147
-0.000179149758368413,0.0347727999508826,0.00111797817419388,-0.000138459673494288
-0.00361021698000266,0.0405776392299747,0.0083247882401376,0.000385182666880755
-0.00800348653496758,0.0389215711246654,0.0141997382163261,0.00139335605208315
-0.0115350946736553,0.0277611573666832,0.0169318488934281,0.00330593633262296
-0.0148369319129174,0.0120001243018765,0.0154320640017288,0.00633882519020677
-0.0218361018225973,0.00104316437862478,0.0113840982810038,0.00916784225601555
-0.0287455724321589,-0.00575318854527608,0.00849670603924414,0.00965691165487179
-0.0288223410221478,-0.0104780905315137,0.00522739111985216,0.00686822334273904
-0.0251486795700635,-0.0107688842345512,0.00234000260007853,0.00135151789496924
-0.0205245805940887,-0.0064803717513997,0.00502742540612293,-0.00494285017858345
-0.0142384738269519,-0.000927049568180675,0.0113611647189818,-0.00923767569608128
-0.00802478779785442,0.00376102263201821,0.0169905371893324,-0.0104787592258714
-0.00301319428162223,0.00771704427874749,0.0206154420882023,-0.0103840591643404
0.000361689112463114,0.0112050027912727,0.022969003258119,-0.00969320228809678
0.00129956924667521,0.0139709348498546,0.0240532998665901,-0.00645215030767454
0.000380167988532156,0.0154662804331098,0.0227704944238503,-0.00152651316027674
-0.00165808636915542,0.0174626315586651,0.0216150601709022,0.00163326278875243
-0.00366790958991655,0.022493748286708,0.0223022310567871,0.00354416155387964
-0.00325937261758029,0.0286159940181303,0.0215111040843584,0.00553313043404564
-0.00148313197941288,0.0315869945671961,0.0188436121304067,0.00584330117507579
-0.00208406403085288,0.0305568937903656,0.0176647874328705,0.00393201061713519
-0.00478877775972275,0.029388160387629,0.0184139000123133,0.00131988170980608
-0.00657669870358845,0.0308532463994134,0.0191053035261404,-0.000965977408916665
-0.00723367784649157,0.0305809737749654,0.0181666853944828,-0.00249666511607237
-0.00673661439538592,0.0253318117908571,0.011417289787912,-0.00312883580511467
-0.000984257120671942,0.0215841148993514,0.0014227127738791,-0.00325262632878993
0.0101122444419326,0.0205634273524757,-0.00263900916238933,-0.00324539651345384
0.0189718198266592,0.0174369304788703,-0.0024587284784699,-0.00292853499876271
0.0191339313335165,0.0146139930956249,-0.00158550857557577,-0.00214620082845939
0.0127876241121808,0.0127999640613689,0.00180462280111012,-0.00126357394789921
0.00926049291599017,0.0115448665594146,0.00647914528543593,-0.000913401155541433
0.0124021589761276,0.0123237066618546,0.0101815898621658,-0.00137248548860072
0.0160007324313483,0.0130102973351353,0.0113478154896597,-0.00248581810361168
0.0158638334629145,0.0119188512855665,0.0101239944519422,-0.00367560706467298
0.0148620177956047,0.00961251334969153,0.011501232847914,-0.00420096320331854
0.0133282281359351,0.00662679958629833,0.0148003257098041,-0.00401687268836
0.0028098555882517,0.000196568585474913,0.0175483284638376,-0.00362553139950681
-0.0186568837901435,-0.00536431778742601,0.0203162858886996,-0.0031846884390751
-0.0352660801125011,-0.00419852454950946,0.0131703766398405,-0.00248630324466538
-0.031659607617368,-0.00429455542220043,-0.00352949313605765,-0.00131724548667304
-0.011131314165931,-0.00754407394507882,-0.0124669423981748,0.000363578759631051
0.0086488356628207,-0.0127362426887487,-0.0120403687395021,0.00185092448795997
0.0214665934400241,-0.0279557012124607,-0.00929751127457495,0.00234074489723003
0.0317318453473965,-0.0429676714399196,0.00131906630990914,0.00228019296952183
0.0323017822589909,-0.0360539754787475,0.0190747553067368,0.00265856730100161
0.0219396862022294,-0.0160616124734181,0.0246923335411252,0.00321021829649043
0.0128144707869768,-0.00615660251460541,0.00986444223030282,0.00270741708473822
0.0090973669568765,-0.00827404089210627,-0.00851684049792623,0.000970080944403907
0.00705744631805662,-0.00919524986999256,-0.0135975910515419,-0.0010785644175029
0.00630582341928827,-0.00369546323974053,-0.00790905755962647,-0.00257219760878945
0.00938097367892505,0.000396293871319238,-0.0044038688996473,-0.0029805043704071
0.00341837276535691,0.00126544662704416,-0.0045685710639626,-0.0030339469792122
-0.0197680508209791,0.00468879517936356,-0.00219086422717221,-0.00429909409622334
-0.0363234019843604,0.013146455962891,0.00190555041832508,-0.00632801740476908
-0.0291209773539647,0.0210861723882819,0.00593962280314455,-0.00612792120454729
-0.00845933866189665,0.0139770188096228,0.00661335411428316,-0.00183740680341225
0.00761317095478824,-0.0106879730647331,0.00049048200824039,0.00346287459543857
0.0124055595575082,-0.0333020525282075,-0.0065174416828453,0.00461352235782916
0.0113805318613013,-0.0405294545613195,-0.00919035289805633,0.00131815513553354
0.00837882100651342,-0.0375229324644048,-0.00935991747448989,-0.00178678977951972
0.00408870737708484,-0.0332249703717862,-0.00893832724417516,-0.00143892186525469
0.000204773046878024,-0.0306229433416229,-0.00870360299496337,0.0012860524676949
-0.00191869691247573,-0.027164047403035,-0.00931310425420488,0.00353994184450905
-0.00389041979955533,-0.022803041467374,-0.0102981490971483,0.00417518648738051
-0.00688305139760455,-0.0200918135775558,-0.0115865832300462,0.00405247227214396
-0.00771982398345947,-0.0183416512566416,-0.0138622971357113,0.00343916232067426
-0.00722829546448232,-0.0168611229933074,-0.0160824752822721,0.00192057377357285
-0.00837435021342239,-0.0159688917885802,-0.017826154759119,0.000620366544270521
-0.00926628049192268,-0.0162824905830761,-0.0195987744096201,0.000662749535329396
-0.00990574286113585,-0.0175126053276775,-0.0198663994610279,0.000595849788388039
-0.00875325701075867,-0.0165772928605353,-0.0181932823106801,-0.000909976422659994
-0.00401348768206397,-0.0126918208145801,-0.0143107023385694,-0.00242522710092453
0.000706658158462514,-0.00823558031725315,-0.00834145904098415,-0.00249540200021796
0.00247832740950243,-0.0054568637862784,-0.00388976809867858,-0.00141434033101444
-0.000175127401541972,-0.00430505629679842,-0.00233147038240931,-4.98091909242548e-05
-0.00628191662863803,-0.00238391021953934,-0.00247741481072585,0.000887413432992645
-0.00913987987343012,0.000837903690562144,-0.00328044526701202,0.00140689915407178
-0.00741257187618448,0.00483532348051733,-0.00304088535886961,0.00201104036082444
-0.00610569618743519,0.012221772412787,-0.0016716603680627,0.00277372733369559
-0.00687923756024065,0.0220812651675913,-0.00113949322891098,0.00351134670578591
-0.0106516665123119,0.0288056706366713,-0.00131000856224884,0.00396962518643466
-0.0171562790117946,0.0278709470533111,-0.000994416195963032,0.00381821689655362
-0.0214316596096559,0.0202181113529865,-0.00206022128667032,0.00296582207213359
-0.0179845988196467,0.013258328625526,-0.00626473013749005,0.00160372527825915
-0.00987532410010943,0.0129252508726507,-0.012551076175506,0.000268410777487169
-0.00506234120831694,0.0175923273367719,-0.0170764030605497,-0.000724314194464219
-0.00590849353927033,0.0238725368367406,-0.0151320050605834,-0.00126286196656891
-0.0113040117792338,0.0412112826252017,-0.0104610252910529,-0.000990560172687246
-0.0171090017365751,0.0727634203306124,-0.0113797276225492,-7.91664217844855e-05
-0.0179414332025503,0.0963823644880974,-0.0176072118345322,0.000871930178147896
-0.0145469296997938,0.0997230901628088,-0.0233439213160054,0.00160906234323403
-0.00747359708065452,0.090675097509274,-0.0255742244107947,0.00224845361847135
0.00504254807436642,0.0764469016012648,-0.0266884824740791,0.00276677551053554
0.0200627315660187,0.0609753097613919,-0.0276404773165577,0.00235410615739515
0.0359502605645373,0.0388429627044779,-0.0233831887287278,0.000358260608189116
0.0522425778173443,0.00382358210727288,-0.00971156812529847,-0.00239892450617133
0.0620090461699193,-0.03240845193458,0.00393550488204625,-0.00433787635787611
0.0623350334260231,-0.0583316017182035,0.00580037835458722,-0.00503897668394017
0.0602471028379014,-0.0820726504584808,0.0154986734954544,-0.00529783461661664
0.0556458362862737,-0.105789223838804,0.0528240032304251,-0.00480990409353696
0.0434572997647036,-0.107212332392523,0.0783887306154178,-0.00189688383886534
0.0331484708687272,-0.0789824641206379,0.0556490860612681,0.0032012998057313
0.0271065326797581,-0.0435530553317953,0.0194872682495553,0.00767085437740635
-0.00231483879669761,-0.0131523595905184,-0.000995400115883845,0.00962581116799784
-0.0724706382755424,0.00880265145432488,-0.0158539262281469,0.0088624059151256
-0.139089149281595,0.0164878501224517,-0.0253891021338962,0.00563823869836881
-0.142979627276459,0.0162816519907772,-0.0299596647796231,0.00141408131204882
-0.0947826408172418,0.0196601165366797,-0.0341969763358933,-0.00152278655520372
-0.040882783663088,0.0280685373576561,-0.0356035777953988,-0.00255759923256897
0.00183367616647033,0.0341263387783777,-0.0358161632354551,-0.0033439635612731
0.0344970959714319,0.0406257514727033,-0.0356774456748802,-0.0051332820439919
0.0528848912467287,0.0490841873082344,-0.0301017315202611,-0.00672036137648681
0.0548351617873007,0.0416075531287351,-0.0197783319516763,-0.00622762472636351
0.0481125227606017,0.0141358546164769,-0.0124968135392691,-0.00379376957686234
0.0400400541350461,-0.0136411155653378,-0.00855223012458785,-0.00116308340459697
0.031928317039697,-0.0303968180716533,-0.00380130901728372,0.000341580518470014
0.0244862760703145,-0.0404043998940771,0.000490679298359029,0.000560546432138044
0.0183814322324676,-0.0483348913670625,0.000821327156685535,2.5323604576136e-06
0.0120885244810497,-0.0549089264875631,-0.00219025830874847,-0.000818543245545402
0.00454897319515651,-0.0588011553726932,-0.00332772105578404,-0.0013364318525206
-0.00330917974463634,-0.0587727009326863,-0.00121921555750403,-0.000603013320665345
-0.00987397916140022,-0.0574529294260808,0.00119432191682004,0.00198399964920776
-0.0156198576140597,-0.0566918309615887,0.00181160356404338,0.00561720320882212
-0.0207109527312245,-0.0543236790762038,0.00073767073317075,0.00835042647415454
-0.0223819279264032,-0.0496970812564394,-0.00232070983367094,0.0085505776523712
-0.0219211407239125,-0.0455549796836826,-0.00571259025068259,0.00631551636417168
-0.0217444505713622,-0.0419574203123186,-0.00833041153137615,0.0030467004324311
-0.0216243619021338,-0.0383229663752682,-0.0139336690832138,-9.40314235488449e-05
-0.0227885761107816,-0.0357091685882965,-0.0198076726349314,-0.00253839231625817
-0.0237830935816232,-0.0315106827741131,-0.0197071144268234,-0.0039072770162439
-0.0221747672870611,-0.0247750087648711,-0.0160080923494793,-0.00407559092860112
-0.0184154965639603,-0.0185912571657502,-0.0120469329467048,-0.00350754073583258
-0.0152247206107514,-0.0146685412200049,-0.00823922912318405,-0.00264601412109215
-0.0135365730923886,-0.0114620361538425,-0.00608264304892756,-0.00168295652660392
-0.0115851838397585,-0.00692158919215433,-0.0050054648357218,-0.00084978693002567
-0.0093448758528441,-0.0028730261946086,-0.00341923100721185,-3.91244773366099e-05
-0.00730292712011893,-0.000469797962138763,-0.00194287924525703,0.000772651717264385
-0.0055251662605988,0.00297655214979637,-0.00086774400985884,0.00131182585968023
-0.00470672434460865,0.00547441522431894,-0.000590013730733554,0.00161154702686719
-0.00375500812470327,0.00646757586046213,-0.00131120699777633,0.00183573516697167
-0.00270724869296982,0.00918030545626121,-0.00333608030316299,0.00191552297473908
-0.00220436205249682,0.0119400162527644,-0.00637008578730703,0.00185462035526534
-0.000482710277840932,0.0127273643509828,-0.00736457766236184,0.00185733776749944
0.000593311859626024,0.0101253983934274,-0.00724354982615362,0.00175707634118977
-0.00166105974200164,0.00552656558718703,-0.00456474753921236,0.001381330165426
-0.000877390816589762,0.0039813760913153,0.00328365123627392,0.00105456706232876
0.00902081401149255,0.00564546960135948,0.009331036536452,0.000971169637543704
0.0150623995331845,0.00603783456883797,0.00819130852750798,0.000966410284171509
0.00737263998629625,-0.00444197335984537,-0.00189056554189392,0.000751593561380461
-0.00113812447192461,-0.0347311759174671,-0.0179362922554899,-2.20896376149034e-05
-0.00240954524910882,-0.0703932314133761,-0.0290154080106945,-0.00153810557468875
-0.00764010847725473,-0.090683680789146,-0.0282939296225753,-0.00335892388877201
-0.0204076464776592,-0.0957680367667876,-0.0202611563458282,-0.00465017553036767
-0.0269596309042399,-0.0917996872390117,-0.013461431512246,-0.00482304509607076
-0.0252968677295598,-0.0844837147718361,-0.0110531222748596,-0.00412835016337151
-0.0202708903941959,-0.0754877376076287,-0.011131987396343,-0.00366159036344629
-0.00915730891151193,-0.0605619674342422,-0.0130927858523187,-0.00388063981154633
0.00857223165277326,-0.0519464448977728,-0.020717790534161,-0.00386492159829549
0.0452622955107917,-0.0686777056601048,-0.0314120948160163,-0.00300426351556551
0.0995214671775611,-0.0853867609558781,-0.0247387483181112,-0.00158481672009511
0.108903824664318,-0.0374555030318709,0.00583805117363065,0.000841379956638726
0.0402038373180998,0.0749092406810958,0.0290317456371449,0.00487275976011269
-0.0316760135404236,0.166890525768665,0.033895449492948,0.00876881731071231
-0.0424881577612012,0.185931190986477,0.0398356790898035,0.00965911425806694
-0.0173754337932331,0.146217070122766,0.0448576507132438,0.00702443527400311
0.00744954907817152,0.0691743077551474,0.0359658193056694,0.00289832982561931
0.0278722851801158,-0.0217726530281463,0.0162826727177145,-0.000198563695533964
0.0368138493974252,-0.0868876052257808,-0.00334317279209397,-0.00125482408934328
0.0289686786793202,-0.103840104842221,-0.0174637908167514,-0.0012237783248282
0.00928438760195179,-0.0842392611651767,-0.0236094298984092,-0.00162836818693749
-0.0273054849610101,-0.0453662369144142,-0.0214024635089621,-0.00327503144084218
-0.0675832486388478,0.00712041887940993,-0.012042442822891,-0.00573407080087444
-0.0774065027271615,0.0572696339723252,0.000280099819903016,-0.00766865287088892
-0.0469985411128598,0.0654454288394798,0.0043745984771745,-0.0079172541688654
0.00158725296871753,0.0241621493754893,-0.00106710270961261,-0.00650927937826519
0.0360563250371689,-0.0180790014506974,-0.00514114357244164,-0.00454965973172549
0.0394639281105359,-0.0289817086984113,-0.00579066473575144,-0.0028710367454112
0.021956580507027,-0.0183977747763346,-0.00501800885988193,-0.00132150125459645
0.00400956471007768,-0.00117718959992903,-0.00117152307681524,0.000546203585594063
-0.000777188997762877,0.0174272248678066,0.0046415392628287,0.00239479652419311
0.00447779819822632,0.03260588865068,0.00945592024575283,0.00348747011217774
0.00938540986320734,0.0421890431613763,0.0127159162690925,0.00416114460371814
0.0125220975094857,0.0491610159909883,0.0154772798900594,0.00519371532589283
0.0162768960218621,0.0543464681802581,0.0176562965309754,0.00666780396165196
0.0196256897608679,0.0574024521978789,0.0177927800645159,0.00808127492618508
0.0195689261929928,0.0596738032649508,0.0155053899783322,0.0087089163326386
0.0154543935688956,0.0610144551372936,0.0120367066189292,0.00821393522135306
0.00645958718209813,0.0624460419885952,0.0111517460098227,0.00661804734224915
-0.00531234333926829,0.0658064944118127,0.0142443681057922,0.00405737972498114
-0.0130058488969533,0.0684482908373975,0.017825883017116,0.000998448130397305
-0.0146248765882585,0.0698349451727479,0.0210141291455656,-0.00154392116375541
-0.0121351415476073,0.0701959827034455,0.0261817943107143,-0.00230533619990881
-0.00813254562396727,0.0693125069353348,0.0326826950833923,-0.00125420583364473
-0.0045893195171903,0.0684802483715171,0.035776099738762,-0.00024985480808637
-0.00168185041954442,0.0674888298519613,0.0343587802051215,-0.000918024892691585
0.000817983626648842,0.0665105143796283,0.0303814230442663,-0.00338986931828623
0.00268315790300958,0.0634756744227678,0.0251502107041263,-0.00718958913196585
0.00259139105699511,0.0559629212945854,0.020234560324207,-0.0107431409814407
0.00171961697590391,0.0466901243093428,0.0159104075257761,-0.0116195105775919
0.00197276645934952,0.0384528131219581,0.0135270698746741,-0.00907123677514825
0.00265022937225705,0.0321809743555973,0.0149327816941981,-0.00439554178204389
0.00143887061056835,0.0270621553032543,0.0166984051034565,0.000647331449688296
-0.00320829085454258,0.0221456816763018,0.014758969182209,0.00452431303271608
-0.00729571933142797,0.0176302628635638,0.0121440137591423,0.00675143198261018
-0.00642524686159978,0.0127281359699608,0.0110048511255434,0.00810725995998402
-0.002690882004667,0.00684194305611238,0.00783999353379719,0.00896035767512846
0.0018041121007825,0.00142399155204806,0.00379655640206701,0.00860962582951109
0.00457794104567309,-0.00316287036218229,0.00105458457287408,0.00701976932031889
0.00347372189085726,-0.0066421807466869,-0.0010022856090766,0.00491276100813186
0.00257448384827144,-0.00586757041419945,-0.00532451351288925,0.00197552576907019
0.00433101083946278,0.000548454188755904,-0.0128984384188597,-0.00300817029170041
0.00511459439335502,0.00949126902762025,-0.0143815751890763,-0.0094312359184317
0.0041235260861985,0.0159689062091368,-0.0060157359701839,-0.0128694926500558
0.00364483640777622,0.019944178253814,0.00292984311413146,-0.00903160968859655
0.00439757553653753,0.0241289731264172,0.00552037062126367,-0.000932502443321815
0.00607600425972751,0.0255172634664113,0.00289815499950314,0.00265738524377172
0.00642909690548577,0.0253353771641329,0.000348628505713711,-0.00189021958560453
0.0054721012235065,0.0333138599492466,-0.00101146721049181,-0.00946029082287367
0.00332985345547366,0.0466895371086809,-0.00524038717489842,-0.0136296910500912
-0.00127320607675247,0.0510199839504597,-0.00866915642936977,-0.0121756071674538
-0.00523487113665718,0.0409075526809507,-0.00909306852113047,-0.00658521272891705
-0.00245443364689528,0.0209207226583016,-0.0141571054294725,-0.000602258050293519
0.00938634644711487,0.00010544483160492,-0.016720840808407,0.00200339477396716
0.0229329023958256,-0.0124156530077322,-0.00575105437724634,0.000996213039211412
0.0283720780810335,-0.0183018662049197,0.00531172141665508,-0.000657265603557241
0.0259603456459749,-0.0271651729089692,0.00957538961220302,-0.000726967926227379
0.0201864932166712,-0.0358250692179095,0.0121080618589234,0.000875026702876277
0.0150777408784748,-0.0363321461082302,0.00782786732579745,0.00327890259751579
0.0152117560833885,-0.0360703849104192,0.00582785077141799,0.00483578993193849
0.0145746172182739,-0.0380337782574121,0.0202940299850588,0.00417422250518934
0.00660196913603347,-0.0297762649969633,0.0328910929216062,0.00187237043931246
-0.0121909955681614,-0.00841914022726906,0.0218721648335841,-0.000849183121567123
-0.0548129606886958,0.0106576891169468,0.00126681262744758,-0.00335585163825812
-0.100968052833927,0.0184425361528577,-0.0117832469123067,-0.00525634142672849
-0.0979354380630703,0.0153192126191003,-0.018239635490664,-0.006253740108617
-0.04995419234226,0.0020191651854951,-0.0138576337868049,-0.00576128192148846
-0.00696369881723113,-0.00846608997507094,-1.03941126652386e-05,-0.003048013570507
0.0154972975670145,-0.00437903108883366,0.00755843651794495,0.000957625192021333
0.032010486725248,0.00449022764735992,0.00647323290976145,0.00355703224958461
0.0504098128104642,0.00433004474815876,0.00521740008307268,0.00367428275922714
0.0650811161388838,-0.0038865629915481,0.00417883096699139,0.00263826076882678
0.070378540386142,-0.015643568959198,-0.00100423876553399,0.00136151701057115
0.0735957405067417,-0.029558300046538,-0.0106343392719453,-0.000105420627185278
0.084151797661959,-0.0403786082149189,-0.0120585376613951,-0.00111769151350299
0.0907396815229572,-0.0406461324234194,0.00253525098486537,-0.000693962539180082
0.0723089361513147,-0.0307021445700861,0.0205337949458171,0.00138312793349514
0.0299269847944375,-0.0262162291536038,0.0274707194125462,0.0039866340238221
-0.00799046176486908,-0.0400226839659587,0.0163307554103552,0.00480702196786325
-0.0215561488789531,-0.0591788937229263,-0.00260275433437891,0.00264122719930924
-0.0268678278658284,-0.0579348876970929,-0.0110353237981217,-0.000650062844468689
-0.0439781362520037,-0.0344043946344428,-0.00798479345376328,-0.002246173100077
-0.0745113797860786,-0.012396086160842,-0.00105804898817435,-0.0013592384178002
-0.124427123387947,0.00187190588064461,0.00912306805475935,0.000802349067691932
-0.170739727839716,0.0124799253848643,0.0191685698795583,0.00292280645027566
-0.154534033222827,0.00835017836815215,0.015727354317259,0.00439318721670178
-0.0781826328763746,-0.00735972766361168,-0.00317864344327876,0.0050127463905285
-0.00307263159202356,-0.0198445450952271,-0.0211236205601795,0.00478473772659283
0.0404003999453479,-0.0276082817253531,-0.0234413804681153,0.00399337146439692
0.0666469853410133,-0.0353261205047754,-0.0123451360460814,0.00309531570507463
0.0877838553033246,-0.0462467746633181,-0.000764929231083525,0.00242301617620994
0.0933988429558951,-0.0572862662854833,0.00244677136173423,0.00221396574848679
0.0766069213097674,-0.0593218879920046,-0.00264241645404437,0.00242607537723775
0.0474325338228523,-0.0494875129417931,-0.0101057707487376,0.00261939286028681
0.0209295377660432,-0.0346753235023578,-0.0160038657932053,0.00222175622770012
0.00239607065316888,-0.0231881915273056,-0.021578646326583,0.00115350919597549
-0.0118700640589545,-0.0169697440047548,-0.0268806733350306,-4.33484649552071e-05
-0.0229839052042942,-0.0135538888294616,-0.031184736733553,-0.000823567118897621
-0.0282680072899053,-0.00989882840274227,-0.0342298472140238,-0.00108678642218305
-0.0287663147533484,-0.00529187820584759,-0.034382905026949,-0.00101522439769264
-0.0274992260782156,-0.00347066481349352,-0.0321981994859614,-0.000620624574730225
-0.0254782800961435,-0.0033704414704535,-0.0291214355848586,5.01745203806408e-05
-0.0229582275268651,-0.00113294448698795,-0.0261068824604809,0.00068910422633843
-0.0188720074398608,0.00230652061415067,-0.0245099228808627,0.000884023457825016
-0.0162173976575222,0.00492621442039847,-0.0238544990884791,0.000668342235355589
-0.0182195954221918,0.00510559303317968,-0.0216735961055503,0.000591058388530712
-0.0190455766563462,0.00466615823530061,-0.0189716290165074,0.000718896668950105
-0.0143004853026679,0.00380861134099451,-0.0192391790914619,0.000690888474961587
-0.00852896525691684,0.00141590788014146,-0.021258602936589,0.000519832932101346
-0.00562247413862553,5.50679005129825e-05,-0.0227481601469485,0.000370717323452446
-0.00381732094665731,-5.44791465387339e-05,-0.0236788572933738,0.000327738174736728
-0.00089122981765527,0.000411342859320029,-0.0228735111886034,0.000352810845878181
0.0020940119237956,0.000634598836876873,-0.0213479981455684,0.000341500316522466
0.00182251664102552,-0.000336566609188283,-0.0226283773309524,0.000389523459778263
-0.000860253846331305,-0.00153674872204278,-0.02465848484105,0.000425564949012613
-0.000903693960437065,-0.00195739231108653,-0.0250372808688992,0.000277074297607645
0.000846625114598413,-0.00147759500976565,-0.0251843927873139,7.21912961461166e-05
0.00137119507516927,-0.000858751606749174,-0.0244566468698777,-0.000144965230372714
0.00106548197928579,-0.00127269350798508,-0.0236339124343667,-0.00038498408718546
0.000740051824927023,-0.00207510699248283,-0.0229561336134466,-0.000482986071188495
0.00213143120779346,-0.000588352033548287,-0.019209267266048,-0.000294475352048962
0.00439700282681184,0.00251791886929938,-0.0129025110840155,0.000188299173841516
0.00666135658743311,0.00410640056354167,-0.00709258596132218,0.00056041393963099
0.00999702194084094,0.00468985048758376,-0.0023733670445526,0.000422077876865368
0.0127257746268708,0.00539497561046853,0.00238130560757805,8.51915226350287e-05
0.0139007613416925,0.00597725465241882,0.00673329074149449,-1.53130305526612e-05
0.0135279986680037,0.00693951722930587,0.00825892513935552,-3.82351080141302e-05
0.0121323026283228,0.00817309948340306,0.00863831888837379,-0.000229272759115473
0.011262946092219,0.00824309494515715,0.0102174119023912,-0.00045896586376979
0.0109063520698883,0.00768997126026775,0.0116235321164963,-0.000436985045440965
0.0103785841774963,0.00802079539102831,0.0127878959614464,-6.16792732053044e-05
0.00778512177710232,0.0067544333916002,0.0128393197921246,0.000473756609346974
0.00371859557476451,0.00385497750678482,0.0110372775069619,0.000868563956145127
0.00226497313178502,0.00345834398723707,0.0101864182694671,0.000920789438224712
0.00268562223084807,0.00464346195130821,0.0118070044284852,0.000897315238078137
0.00185843224616631,0.00461046908933845,0.0135420292590078,0.00101331721911393
-0.000961805976073387,0.00193748844504105,0.0128263933346619,0.000881976530201581
-0.00424501815637741,-0.00158922399693551,0.0104388492211964,0.000263917777907003
-0.00580905670086064,0.000769725504341521,0.007211570628381,-0.000533806612671461
-0.0062622355268246,0.00862480957093403,0.0043124694525246,-0.00127079813539225
-0.00627782816775463,0.0136162415554921,0.00340732311750719,-0.00199999204863905
-0.00436850994898267,0.014078882077184,0.00734495570719453,-0.00243790509657935
-0.000990934401121205,0.0151056047198855,0.0148451255768465,-0.00222539067057721
0.00599160990958367,0.0164395537854095,0.0186037342881533,-0.00169488843254036
0.0181672213231482,0.0123320791628419,0.0174305908390131,-0.00130886676674593
0.0284103884601731,0.00474571148970825,0.0146969166867334,-0.000768993254797319
0.0328064932771659,2.85273895382666e-05,0.0122953880309108,0.00020820188478915
0.0356397176074268,-0.00451164061322092,0.00940839323851281,0.000925428321081283
0.040567469916961,-0.0135970709519391,0.00500603670874424,0.000963359211784094
0.042630407193521,-0.0273643987569286,0.00469078915769114,0.000792788663018227
0.0358737722877926,-0.0366822236460193,0.0121947348905179,0.000781782327070217
0.0275993766169267,-0.03012058268724,0.0159028757985215,0.000770212318241074
0.0257389835607107,-0.0165768003743297,0.00940922501133843,0.000219635250090191
0.0246729164761918,-0.0198745121681686,0.00270020396717854,-0.000910655275989142
0.0179566906045006,-0.0419383700242087,0.00272214424572971,-0.00176614900238205
-0.00248040593230411,-0.0487433561164073,0.00557292918396577,-0.0019527086176271
-0.0447557934536534,-0.025085603570374,0.00371560604093947,-0.00203532645744314
-0.0825471178928639,-0.00302935820385923,-0.00312582831188222,-0.00235122517750136
-0.081163692212756,-0.00448153379407274,-0.00788469392585218,-0.00278380302470256
-0.0563535388999037,-0.013554789360555,-0.00521185541315759,-0.0031780096318645
-0.0345068255040508,-0.0155460884227351,0.00710937245327246,-0.00339229573162778
-0.0117450280854987,-0.0179647201578001,0.0179105848501434,-0.00307416370070792
0.0172075713966786,-0.026742379264133,0.0100952797419968,-0.00176883550509336
0.0442338051963731,-0.0339187416032154,-0.00757743468098989,0.000207340098089807
0.0580932005313302,-0.0300451190315489,-0.0156236805132973,0.00191011054526696
0.056216661186002,-0.0200394449040417,-0.0106153983754101,0.00267712714537943
0.0485040205590161,-0.0137270598953101,0.000809086312834051,0.0022435180056595
0.0381880115227413,-0.000846387984655923,0.0160481771934707,0.00110973587053423
0.0170744172274303,0.0335952728959346,0.0327085867665914,0.000628882296911186
-0.00786179890879403,0.0750509730675283,0.0367068100115144,0.00155742199413576
-0.0238886799228066,0.0872538932969838,0.0220564653464839,0.0029686081122938
-0.0330695323757724,0.0609480114394225,0.00318165369950979,0.00308625679530438
-0.0338712239155998,0.0206744379456749,-0.00789600334053927,0.00102527000751754
-0.0214096640092994,-0.0115604091243498,-0.00969644845020126,-0.00238664043881928
-0.00612221761795374,-0.0297095109917644,-0.00727387032068852,-0.00541876372236692
0.000228782646384963,-0.0366283588607476,-0.00768139928458156,-0.00649745803187999
-0.00192105149410756,-0.0381567123611575,-0.0104127344165702,-0.00515805091095411
-0.00761936556635713,-0.038747641806319,-0.0116984350528871,-0.00243917431121891
-0.0124231179644111,-0.0355344555242473,-0.00761733094828004,0.000361817469445354
-0.0151407502037594,-0.026086365235046,0.00385878840078154,0.00249471687638477
-0.0186226752792036,-0.0146199224613381,0.0139576277930048,0.00366347914818818
-0.0207387166323514,-0.00204350398032345,0.0150192128778081,0.00373859303566285
-0.0174351886509057,0.0118082703229264,0.0113326069307163,0.00264557195000158
-0.0135032413913853,0.0221485742263852,0.00983108542831465,0.00120815201079309
-0.012768604256987,0.0280660072818991,0.0109369803908319,0.000517466349319813
-0.0121871207538727,0.0326414940961004,0.0117898901074963,0.000508579671072594
-0.010155681704191,0.0368055947094239,0.0146833843363564,0.000726493207989262
-0.00887607625042689,0.0386549583393668,0.0190418428447359,0.00103923395643966
-0.00880490772365997,0.0371537784008334,0.0193168220115448,0.00132363252907416
-0.00710293323513238,0.0357704455118503,0.0160642597566695,0.00168159606183739
-0.00411037754340404,0.034281969199525,0.0145517172854155,0.00236598530414563
-0.00165913666030483,0.0293872399326162,0.0167149735700674,0.00330856339279779
0.000409450618742573,0.0248550661907142,0.0194764992746936,0.00426213635037877
-0.000954974632483903,0.0248541835715123,0.0197803371712842,0.00474380176987634
-0.00621501901388061,0.0269832408400191,0.0197338370739411,0.0043049972714524
-0.00972950422551145,0.0255400824168248,0.0213416895222309,0.00327743729825623
-0.00971284733999403,0.0202317488465801,0.0211290758755086,0.00202768332229057
-0.00893177022761783,0.0174451355792668,0.0174646031926238,0.000409440427381855
-0.00994800245486901,0.0172369944881666,0.01331116291635,-0.00131015627829976
-0.0113887126557452,0.0156477948352195,0.0100942497608491,-0.0025096689012713
-0.00895405818711016,0.0140552765948395,0.0100502375670788,-0.00282720479684369
-0.00458049264812841,0.0147961026677748,0.0153747794156913,-0.00220017777766065
-0.00123912849291418,0.0163189092976192,0.0227962077796463,-0.00145558242686056
0.00168753523512062,0.0149233948991348,0.0261787710282967,-0.00189876182458789
0.00382233082246649,0.0114168717937831,0.0236009521850401,-0.00323628375415754
0.00524520808167224,0.00853619885008109,0.0211210430134536,-0.003722931231692
0.00587146350137538,0.00576760464899269,0.0241600815572148,-0.0021412016845884
0.00607576158513093,0.00503129206081979,0.0306833562554583,0.00177424156622572
0.00719886595492077,0.00651984126538425,0.0336114388770248,0.00697783222382774
0.00923319192468579,0.00556262897617395,0.0284310711865553,0.00978650325844735
0.0093884723215274,0.00277174499374222,0.0203565923932619,0.00670746539645648
0.00612094397980002,0.00170338451766103,0.0162093480647887,-1.39729216621417e-06
0.00224126056372507,0.00102251017471828,0.0152882976681032,-0.00461001644887035
0.00152155929338004,-0.0010765031497894,0.0136972217581272,-0.00414045195243393
0.00213850277537098,-0.00307127342647827,0.0111572570207815,-0.000148274491837372
0.000600705062177138,-0.00374393469040366,0.0102117267068325,0.00300692703622866
-0.00121644720316601,-0.00400088247512022,0.0110734284826476,0.00172947171823931
-0.00198527954649234,-0.00459731691080547,0.0136857966022128,-0.00357515360425925
-0.00298237358406117,-0.00477364093294311,0.0171010894552102,-0.00855453562002391
-0.00417245681481307,-0.00234403489224094,0.0206588025448688,-0.00959706736265157
-0.0043859184858159,0.00214087913969348,0.022008216416005,-0.00710046786896701
-0.00358148892246065,0.00344735603183555,0.0177053977406803,-0.00345460795746083
-0.000861935563933927,0.0031166273205019,0.0101154033346564,-0.000559779984572449
0.0123830273909447,0.0101467521462564,0.00547943380749984,0.000689934425441884
0.0374521998299491,0.0252941626682764,0.00800441473102316,0.000775928242706351
0.0560689183973714,0.0452540490116718,0.0129034268387142,0.000976035164132619
0.0593001008004484,0.065428569889816,0.012410787517693,0.00149618964624876
0.0628391116277415,0.0743520018717168,0.00803618806661039,0.0015413358734508
0.0703695499768921,0.0673486401196299,0.00242955734350664,0.000762173611004098
0.0651779189851325,0.0520364690722897,-0.0107081894111821,-0.000801525338355431
0.0495236391943678,0.0336806929586791,-0.0295934929814304,-0.00300776097445814
0.0417752763772296,0.00332835697210176,-0.0419690402086151,-0.00522567096112132
0.0357194587878766,-0.0514768695874468,-0.0420702566417501,-0.00662752377873998
-0.0147730419778639,-0.116422967043921,-0.0238747844395935,-0.00694809581971206
-0.125881808467651,-0.150213630065451,0.0137955007044407,-0.00651817938512236
-0.216439018146785,-0.137551389265299,0.0447827001056191,-0.00546397674841986
-0.20524477512985,-0.102065635217671,0.0584439022929879,-0.00363343300058876
-0.129131575799238,-0.071317878437295,0.0691416146077607,-0.00100521279292171
-0.0678859412752662,-0.0591957820609121,0.0586052040736497,0.00198997054161114
-0.0264088649178121,-0.0576739098498444,0.0134952759920405,0.00395399368293061
0.0325194229956962,-0.0483587973759385,-0.0339972167304883,0.00397236367403769
0.0953873626246874,-0.0232580595152152,-0.0571084759301379,0.00286390508152587
0.113473122046555,0.0164923644016805,-0.0584054314886543,0.00168316241938208
0.081633768564628,0.0583127902038073,-0.0500815574332237,0.000709322195618811
0.0399521602694435,0.0739744315170267,-0.0427073653127919,-5.73701508908668e-05
0.0220855078352517,0.0538649812838835,-0.0413391645630095,-0.000437909714935695
0.0277934493601765,0.0163838813555301,-0.0443656292454582,-0.000659046563747369
0.0373413879925619,-0.0195436936906569,-0.0448320645261023,-0.00135575561726508
0.0353355817997881,-0.0435306772330132,-0.0385772408892602,-0.00225977653988735
0.0196053009567732,-0.0590299203632485,-0.0321780092884731,-0.00250152262873189
0.00432215542899345,-0.0732751892464593,-0.0330248975479681,-0.0018255428345583
-0.0046477796569762,-0.0844135746387636,-0.0336318397797095,-0.000789540915810578
-0.0271032106186826,-0.0855568136142726,-0.0213252856345466,-0.000189434747830843
-0.0580347675569526,-0.0727869708756431,-0.00227414913701363,0.000182122662392913
-0.0653465132338411,-0.0578941267817692,0.00657987896164935,0.00104888138236532
-0.0478872326845028,-0.054092542382784,0.00732988723806631,0.0020472824036662
-0.0253299692670228,-0.0501227229788724,0.0107026894167339,0.00261809652949744
-0.00767175314473013,-0.0251721522508343,0.0148723620666274,0.00320205994709202
0.00261125966030521,0.0225003278029424,0.0172096008048958,0.00446009262687147
0.00731768366825711,0.0625841922798714,0.0151736572028606,0.00629912006835797
0.00681236168580504,0.0521584601900569,0.00290697622305458,0.00769351438923247
0.00410846101115669,0.000742376317860352,-0.0110657959890443,0.00765808089319604
-0.0067058180378855,-0.0367318046046427,-0.0159178372052925,0.00619523721502947
-0.0374531457981289,-0.0422615009549408,-0.0156425408103919,0.00398769091204577
-0.0629134417767385,-0.0372903837961127,-0.0159954554722079,0.00178884209599373
-0.0510440934656997,-0.03451755058269,-0.0173776484551426,0.000349042441577254
-0.0155163588321761,-0.0298452106129244,-0.0178602053922987,8.91674937161667e-05
0.0127016937687221,-0.019158092819649,-0.017280814558873,0.000510807424014867
0.0231221335441837,-0.00739738305094948,-0.0170747489258584,0.000817917082005357
0.0235715910600554,-0.000292592589183922,-0.0176481016883057,0.000900237236882016
0.0226229139653191,0.00422965264133382,-0.0195075435009067,0.00114119280344088
0.0237273144180772,0.00957842180735346,-0.0220899027686254,0.00160247619012492
0.0252501561082221,0.0161990741898303,-0.0209055317581515,0.0019273029830247
0.0220459130660253,0.0237736927981202,-0.0150261001967341,0.0017823826522953
0.0180667191296283,0.0305790085956455,-0.00856299770044946,0.0012900555611246
0.0179186952913031,0.0348286017305613,-0.00191865467248817,0.000970196043028951
0.0153369074829416,0.0381001890766352,0.00460789757318028,0.00102458457970864
0.00872197539496804,0.0412263328768971,0.00707759507236377,0.00130437060968524
0.00429355548769881,0.0419438950782053,0.00509876435205955,0.00139850887161871
0.00259230200443765,0.0407704872145082,0.00269424217345545,0.0010208365232052
0.00153203832201383,0.0398172457672903,0.0038053918097527,0.000558325356670929
0.000984406295881542,0.039057655404421,0.00868761584084535,0.000325884933102527
0.00136082070209972,0.038853267924732,0.0131219227402929,0.000233838234781056
0.00273372065252152,0.0381890490112028,0.0126582757912006,0.000127596444657185
0.0036088465949102,0.0369895029705156,0.0101970245113391,-0.000224072698758202
0.00386538500397716,0.0357631374161911,0.00940906916099188,-0.000917022861144516
0.00409413780006278,0.034080024780525,0.00879435516577275,-0.00168484297471445
0.00313269953110379,0.0323993163140348,0.0077996743777541,-0.00224009682926876
0.00187162983211563,0.0301967878585597,0.00708505437894353,-0.00248543719306109
0.00208388023412538,0.0268222583681008,0.007008723843579,-0.00259787110270455
0.00198283362190969,0.023863018658733,0.00620960969462069,-0.00261909215251926
-0.000422104119978124,0.022271973480489,0.00367460408904367,-0.00229333634681746
-0.00352177537308546,0.0201822267529816,0.000651786977117347,-0.00183444709212436
-0.00539694039966587,0.017492792181556,-0.00118365387268231,-0.00163302652448827
-0.00673583635074779,0.0153125933451501,-0.0017836827132051,-0.00161145391163695
-0.00731823357399436,0.0139029329196897,-0.00212707352208095,-0.00142058898461684
-0.00780462467143807,0.0120417634904613,-0.00190388931420116,-0.00100107879330845
-0.00847823873283945,0.00980159003613503,-0.00183389059084663,-0.000679210540477814
-0.00812348834715908,0.00813939009716059,-0.00312553015139653,-0.000768312899467756
-0.00700659649200012,0.00757580578978625,-0.00342728775523873,-0.00121845761888702
-0.00519247419601003,0.00846441962497014,-0.00158322627707761,-0.00173516875175047
-0.00177885403919958,0.00982915169528232,0.00180114517612354,-0.00220993394317657
0.00232206357449655,0.0107022473727815,0.00635308818930262,-0.0025166034264485
0.00487901763014271,0.0113140183512436,0.0108011199786271,-0.0026118675511269
0.00522678311139474,0.0104894634914668,0.0126728462429643,-0.00279699915294316
0.00552917838314026,0.00879048008198038,0.0129461009808237,-0.00323358279815607
0.00640328041057649,0.00962088690118627,0.0153040747555458,-0.00367320599902011
0.0061715074300583,0.0110382590907959,0.017865808377797,-0.00392694208969859
0.00518965039297942,0.0104195875129274,0.0175796587436635,-0.00398804985954402
0.00371243702438619,0.00942717432253354,0.0163511735585083,-0.00360456238182225
0.00155742532932413,0.00904160846135941,0.0177361501987921,-0.00246021339251379
0.00143429866202493,0.00892125575115335,0.0204790006049143,-0.000169679336195543
0.00303154724935118,0.00859762818609128,0.0210498007169578,0.00299887229391657
0.00164916848671338,0.007544925615098,0.0186133032393941,0.00516747396250706
-0.00144608788828638,0.0072362853513974,0.0142836953393722,0.00496235211401802
-0.00354236752582188,0.00736082768917531,0.00959713689404478,0.00325261200233235
-0.00467441075484153,0.00634292138973784,0.00673151753477849,0.00163645895535089
-0.00418527761388666,0.00575341287059091,0.00647180722248665,0.000771040086627512
-0.00352009017827494,0.00474939130114033,0.00445977830137813,0.000556444781634396
-0.00416969830235072,0.00237682562765159,0.000502164821508689,0.000854842587197086
-0.00514829127721789,0.00271697201257514,0.000864159941258477,0.00108401784846213
-0.0033675972217937,0.00618227460104644,0.00484519048380244,0.000683295828166923
0.00181266382240312,0.0084285168192963,0.00821643106511806,1.77021459579112e-06
0.00497321258073248,0.00815953006279034,0.0097932473435963,-0.000412288603905819
0.00620861917273509,0.00724558087125327,0.00890892372105889,-0.000736440712302012
0.0077921722447377,0.00751573044130129,0.00446658378514442,-0.00141190945116639
0.00765310381341676,0.00753801647763207,-0.00276194666396539,-0.00188058369042226
0.00706726322632653,0.00730856729457236,-0.00752020066150408,-0.0014650542254634
0.00722078818639184,0.00922487545427625,-0.00841660516043686,-0.000580877075090018
0.0065488724866515,0.0104174296148327,-0.00975435089155161,0.000389080808710471
0.00488183602284878,0.0087460734409995,-0.0116493315165169,0.0013785067097147
0.00162152145327813,0.00409147428441682,-0.013900112411191,0.00193302484357655
-0.00105420779258912,-0.00352104277622408,-0.0156052273558558,0.00179952798741967
0.000796287938064193,-0.00829624635249508,-0.0115374292321053,0.00125017189190088
0.00450363667839102,-0.00584850328580617,-0.0049032574179084,0.000493525881711684
0.00616495511147266,0.00130619094923632,-0.00461038259567604,-0.000378282539523052
0.00470308113189894,0.0136825974360226,-0.0147033660968236,-0.000957794134226128
0.000909595871326893,0.0309825794487226,-0.0296673984447259,-0.000728442208028673
-0.00238698941422305,0.0422987603663936,-0.0347399508036275,0.000436908834952419
-0.0030451882924631,0.0425642055996016,-0.0289103359828939,0.00204084484423153
-0.00269979039863677,0.0378767983078485,-0.0268753350574322,0.00323230707587464
0.000424101054350532,0.0315081363644807,-0.0333799490985688,0.00365691767027101
0.0105993315090878,0.0215382490356089,-0.04183285365785,0.0032642675069297
0.0197849216034617,0.00803948419453177,-0.0452385614894919,0.00203768566533312
0.0164645515768072,-0.0025222485388532,-0.0406554513661342,0.000578110319804124
0.00067000320138498,-0.00600547493895032,-0.0292664218553967,-0.000292173821332958
-0.0151032861726831,-0.0120894599208734,-0.0140223365025234,-0.000653784144000813
-0.0122846256696319,-0.0330319146056424,0.0063781011277894,-0.00129048361101946
0.00848234466544681,-0.0629964047116827,0.028648022311949,-0.00231913830240959
0.0313723791745345,-0.0795756721158259,0.0312624438230579,-0.00314443428329485
0.0448257090112864,-0.0679951829011635,0.00593587525524345,-0.00353043755557366
0.0427860535098884,-0.0400924948361004,-0.0194274847003731,-0.00340394711338256
0.0293255438060275,-0.0206615764195007,-0.0249781082056033,-0.00241688014110085
0.0142165027273117,-0.0167442831229195,-0.0257312196805109,-0.000833118993838821
0.00573997549073463,-0.0143354428044017,-0.0373273935248324,0.000423391725208067
0.00194571617134701,-0.00589091940327824,-0.0523783415847789,0.000845125635325406
-0.00846670848194381,0.00284541002387845,-0.0589219122118469,0.000626577468784912
-0.0278756483308245,0.00678863539525615,-0.0564640658162668,0.000380580763116431
-0.0420578723007731,0.00268191722572068,-0.0518847716213484,0.000513852870549714
-0.0386963632070348,-0.00658895355191368,-0.0495789238230042,0.000714467204849448
-0.0208506077229079,-0.0127637590799145,-0.0446748649446895,0.000494120782457515
-0.00166510423061095,-0.0135089698828847,-0.0345640170746874,-0.000196531736047052
0.0105477942336761,-0.00771890779958846,-0.023191751031299,-0.000949798323201183
0.0182907233624385,0.00738234447420338,-0.009384191970817,-0.00132455772558404
0.0227060139819015,0.0260800441257749,0.0123834686597153,-0.000950349120107256
0.0202468174237968,0.0303835217127114,0.0367575464501337,0.000626375912622703
0.0125151702054376,0.0122183242716759,0.0480867339019388,0.00296365346745293
0.00788187533092773,-0.0135764521509734,0.0420139108098069,0.00452367338725855
0.0100149165345886,-0.0314073013561972,0.0306008128211657,0.00433507665384682
0.0145369303982994,-0.0395934705477122,0.0223716677960201,0.00286096554215853
0.015997411505555,-0.0405019197005824,0.0152575190597252,0.00117524828690136
0.0116392971745503,-0.0359702965022228,0.00702764861785724,-0.000128941715142912
0.00449306223265849,-0.0303020568540608,0.00039450707144233,-0.00117266489701954
0.00014704018718644,-0.0265655274461356,-0.00134616328605052,-0.00192996593921134
-0.0024175236021236,-0.0245610673647151,-0.00151298386669813,-0.00203389476118439
-0.00524949118012428,-0.0226613070572722,-0.00332557076720101,-0.00161502603779418
-0.00745997913502389,-0.0204838364620627,-0.00508548650851941,-0.000844494715727614
-0.00942847758906317,-0.0177262573105438,-0.0075271717686182,0.000127427909754976
-0.010456690020752,-0.0148816642445755,-0.0101462198786732,0.000613919568234142
-0.0103580887638716,-0.0117106343923557,-0.00954633342665353,0.000292427916234228
-0.0130176102836661,-0.00747989782104624,-0.00597218401982974,-0.000186879193290453
-0.0226034213616328,-0.00267370477326766,-0.000395174257213441,0.000168683471895798
-0.0306837762320297,0.00262667655410645,0.00682137495381808,0.0014555918675884
-0.023454661363677,0.00658367633703692,0.0142066911140771,0.00269405913563063
-0.00451388999003348,0.008196539374977,0.0186751956519308,0.00294965263249301
0.0140956122920724,0.0098176287691445,0.0205847628469879,0.00228554360978701
0.0260200803318236,0.0111969562904902,0.023691000881152,0.00151603621931682
0.0267503794946757,0.0121599583357592,0.0265394404963193,0.00109453710803376
0.0163731438363771,0.014176453073452,0.0260215629086,0.000693105629043585
0.0036216875757635,0.0156851599607691,0.0240278026756329,-7.22052922170536e-06
-0.00350183781664249,0.015687271152006,0.0231985262068388,-0.000661513333900708
-0.00419961587913576,0.0153933852846551,0.0238929828083391,-0.000894617300668603
-0.00322566060710913,0.0147831072921652,0.0251512327050717,-0.000664974883626649
-0.00512921601245224,0.0127536386019545,0.0245938464873228,0.000209165539918995
-0.0077113632260174,0.0112677993790788,0.0219207545480656,0.00200769985293981
-0.00856000810187016,0.00960585534768179,0.0195214197931735,0.00403912359158204
-0.00982209725005592,0.00773464753017081,0.0195778519927345,0.00521756709865631
-0.0115972006019446,0.00979835635626384,0.0226204106280669,0.0060324871331216
-0.0117883729501789,0.0112019414471883,0.0242912055526684,0.00706783069326791
-0.0107469984975236,0.00871074534086207,0.0212536193068016,0.00652617848574119
-0.0082405286810729,0.00683625855355352,0.0183517022797341,0.00263477937894383
-0.00395498655635309,0.00555339528327207,0.0189128607308733,-0.00315288636103311
0.000327447985356773,0.00556991300496664,0.0214407744384302,-0.0073735704508306
0.00312157370074748,0.00804310529424444,0.0260319801741529,-0.00700411709890324
0.00438659935506189,0.0105360303894479,0.0320269707157945,-0.00189640051706082
0.00460762480836859,0.0107627003584768,0.0337386229575439,0.00287485841687698
0.00392523951933248,0.00724844357103968,0.0284551679957139,0.000947382988922509
0.00295990628465763,0.00430840475429984,0.0230923046448481,-0.00699740957789514
0.00155041335971155,0.00481257187711687,0.0224973190471997,-0.0143630633117604
-2.22504168911116e-05,0.00568874441376546,0.0217496612926328,-0.01676881603929
-0.000744323743894723,0.00515235866572649,0.0184520545971817,-0.013421251899986
-0.00147626114692427,0.00306481398660457,0.016239806051535,-0.00512235386783001
-0.0027376136760235,0.000736275759598881,0.012275536153544,0.00483622412350113
-0.00400946036056024,-0.000892393654527666,0.00461539318965626,0.0112774860676931
-0.00489111890362182,-0.00128716640694222,-0.00203176368335779,0.0117642203487567
-0.00373648003427343,-0.000392959359950942,-0.006609993066942,0.00906305267738415
-0.00277493445025368,-0.00107590443838498,-0.0106519736679865,0.00665809327413159
-0.00523823934379414,-0.00459433756275987,-0.012823034449319,0.00467071123102366
-0.00787384606241671,-0.00731755763553531,-0.00979659082961036,0.00234025387772451
-0.00781912639386008,-0.00772862837236904,-0.00391469243118779,0.000322108028625498
-0.00535687646890837,-0.00766978494953132,-0.00126338227597408,-0.00119040551662731
-0.000347932088696209,-0.00760433530734013,-0.000761663608143642,-0.00300540345086006
0.00409065368094024,-0.00787830057272131,-0.000270036204103985,-0.00550039207867199
0.00472589579273473,-0.00756925708649588,-0.0013249649986811,-0.00817835160474143
0.00385114200005114,-0.00714171840252486,-0.00367389098018631,-0.0101135015575548
0.00431021445333762,-0.00858118064291254,-0.00659890524107808,-0.0110138518665543
0.00597262273140183,-0.0105406532338828,-0.0092602805855191,-0.0112275505699152
0.00544419731481308,-0.0119480949065386,-0.0129236659990344,-0.0107255541838778
-0.000178536030780246,-0.0103763844614486,-0.0197497223450155,-0.00922297358027614
-0.00719194957910117,-0.00576064930407289,-0.0253036511279323,-0.00661972139784694
-0.0103861102527492,-0.00363403916828557,-0.0255431842151227,-0.00295531276404414
-0.00953282097348614,-0.00244215701370079,-0.0210510875506901,0.00103170004890314
-0.00655842124216834,0.000660381110737168,-0.0155771091159448,0.0036939609740353
-0.00738249540173,0.00134456140080934,-0.0159087088000042,0.00387660566999649
-0.0150282905884174,0.00156562353336607,-0.0203278538058246,0.0022017626797999
-0.0244779000373224,0.00493372185110405,-0.0244683411816464,0.000225017637495903
-0.0300869660361256,0.00588576187939498,-0.0298138829947857,-0.0012736572115568
-0.0284687847512836,-0.000307344647379004,-0.0350904376795007,-0.00190884224105775
-0.0216633932242278,-0.00972216657659065,-0.0383800547079651,-0.00103128815794612
-0.0133633813070272,-0.0140827403419123,-0.0406730034233227,0.00079286154420624
-0.00275937455913938,-0.0104067305156313,-0.0385406486732645,0.00196761296399548
0.0103871164183916,-0.0078346363698804,-0.031157045304865,0.00225575169422513
0.0306633317256355,-0.0179234850010155,-0.0331636279760995,0.0020655333854657
0.0581858456055459,-0.0270077984372401,-0.050434626530623,0.000731373358817592
0.074513151016277,-0.0131111737942362,-0.0618752043319372,-0.00142381982727557
0.0740198850208442,0.00568953002288145,-0.0605985971888631,-0.00224168117537873
0.0709473461344033,0.00110708948385859,-0.0599596706112514,-0.00106475208215672
0.0627613549684211,-0.0201473056206119,-0.0580560946844519,0.000355566941878178
0.0427902454443419,-0.041332055752001,-0.0567482965409821,0.000996828751470808
0.0331598884791492,-0.057239619567397,-0.066047754071171,0.00154919623470181
0.0546820283045118,-0.0644406823536635,-0.0750099995679458,0.00251472161607491
0.0825107578455673,-0.0651175538338195,-0.0697738064463132,0.00339267214592378
0.0503248495396598,-0.0567989969188919,-0.0448846603281405,0.00312351342827955
-0.0574719243716348,-0.0273060402594173,0.00480344108763296,0.00139260572073298
-0.155211836801718,0.00567921536409494,0.0703587444976066,-0.000149214669999373
-0.170391696370803,0.0359219201857395,0.128150951038288,0.000921059299398728
-0.127960564985077,0.102565528710448,0.150060969426887,0.00555261304915025
-0.0891762448700059,0.177608976980657,0.124011097427594,0.0118149355290942
-0.0588707290783254,0.172418598564294,0.0700595167111442,0.0158308200411166
-0.0120455656951007,0.0898731547190102,0.0194702780318995,0.0153427936604167
0.0345435090097753,0.0134697638827843,-0.0135571982844503,0.0114162804334462
0.0570595942639586,-0.0197053232126834,-0.0317127871758502,0.00642004793165848
0.057793826993253,-0.0321822467512272,-0.0369950064723334,0.00214566864719636
0.0514476140486308,-0.0422762458173673,-0.0310615777859134,-0.000675188767701498
0.0506188068203141,-0.0503754865359493,-0.0250604824424635,-0.00224077938483009
0.0513841831417053,-0.0543855863892286,-0.0210740691529908,-0.00260355165615175
0.0429854179865234,-0.0544654382289192,-0.0108439519108752,-0.00159913846939772
0.0200143138133448,-0.0521289044584756,-0.000797077227710483,0.000309822956275457
-0.00698161604467264,-0.0496642211198026,-0.000397625252635106,0.00229161869547924
-0.0189541927570618,-0.0543359046347288,-0.000822432138682161,0.00359686752074973
-0.0180070234922744,-0.0636687566169367,0.00828973408440401,0.00376777738606266
-0.0170753089509912,-0.0584483320690048,0.0198391933874063,0.00293310724015144
-0.0251328124233194,-0.0325590419815191,0.0234665022566321,0.00158842457621984
-0.0449777327659038,-0.0025120217569721,0.0157264426410997,0.000308964012575356
-0.0569842910966073,0.0150300923768105,0.00405299124694415,-0.000327398784777592
-0.0508043500513911,0.0218150742447548,0.00442924501049268,-0.000112736436944349
-0.0414754956722317,0.0248539874780924,0.0139885670904943,0.00102822823845861
-0.0248797467957246,0.0170903291177564,0.0135860088419101,0.00271682091525512
0.00427757062294951,-0.00832117540189345,0.000646794097434858,0.00351308638861152
0.0184126085190417,-0.0341799616881359,-0.00962545163297163,0.00246500067131329
0.00591253359695599,-0.0358219691723189,-0.00591944195667811,0.000537909840014538
-0.0133279240397778,-0.014113571571266,0.00585668863258075,-0.000599198821187409
-0.0345771873371818,0.018675375710725,0.014074696066846,-0.000430173971345682
-0.0542618242799143,0.0539065918447474,0.0276386521195503,0.000423582079490093
-0.0613011122589557,0.0606461385955758,0.0598020628531946,0.00134811342625934
-0.0552508869496262,0.0109047493360724,0.0773727588021447,0.00234258539393297
-0.0371979497565594,-0.0663026666959589,0.045802629997125,0.00309922325002777
-0.014592264337897,-0.113333878130113,0.00284131302806694,0.00229434927533305
0.00417455955734543,-0.0993294417651234,-0.0075943897649066,-0.000628387494086028
0.0129686662649418,-0.0491949202582423,0.00182976405734398,-0.00414724765420008
0.00786653842110812,-0.00832378072269518,0.0026687112218294,-0.00660250470875027
-0.0032599841890438,0.0222802091841247,-0.00734372755848909,-0.00802930659709631
-0.0124697747433903,0.0522082542059436,-0.0156408987644514,-0.00878404020084692
-0.0196595100375112,0.05261389894896,-0.0218402414877679,-0.00876792167956123
-0.0200138167438433,0.0148883256810102,-0.0318352136183524,-0.00842417353843129
-0.00736562474238514,-0.0241571139189828,-0.0451689677543239,-0.00794887696354834
0.00989323897802212,-0.0411321698339778,-0.053728397417025,-0.00692486325775154
0.0168666758733334,-0.0358714304221889,-0.0507497247731475,-0.00536111479013993
0.0116941766069819,-0.0128695698653845,-0.0388659691557614,-0.00352589977601511
0.0030741881124537,0.0086677837362175,-0.0259652474695525,-0.00165844396181365
-0.00206489715092838,0.0110459834500155,-0.0190102287216252,-0.00015220831181183
-0.000543191248901049,0.00301202788915485,-0.0160026929371665,0.000675533268757646
0.0043336302365074,-0.000701513804405134,-0.0101823980168696,0.000765260637848764
0.00793932039555895,0.00280852625200365,-0.00141422910172761,0.000317400563990398
0.00989326028356891,0.00899044563741215,0.00545434749438888,-0.00020497989244815
0.0110223385453641,0.0139073736730569,0.00873629069048662,-0.000458216424794141
0.0120772763068431,0.0193971357911962,0.0114210241407355,-0.000453930035386354
0.0117640984241126,0.0260352715176549,0.0136443379020425,-0.000278565011720789
0.0122662911111135,0.0317099665161764,0.0137873747129381,-0.000200684116318188
0.0183493951334585,0.0348388538813506,0.0101674078821943,-0.000514347302418632
0.0254683038397512,0.0304662555784726,0.00109828379386816,-0.00102248895086515
0.0298185639963912,0.024771748508395,-0.00757261435030671,-0.00146880856262486
0.0302731769839907,0.0295209984228011,-0.00890194270311705,-0.00188255258548193
0.0229531476148869,0.0296331483136938,-0.00617104417170539,-0.0023895900707604
0.0178790473036011,0.0139368505810784,-0.00586307544510227,-0.00297501985030308
0.0194680784106248,-0.00129121825678918,-0.00864355631525594,-0.00328488986922677
0.0163116054229109,-0.00879477777738039,-0.0123778890867777,-0.00304828401357138
0.0147131241991224,-0.0171941968634713,-0.0204488112153891,-0.00218290163427716
0.0170120583052632,-0.0348365387398754,-0.035329797742741,-0.000863235283750823
-0.00257387010109778,-0.058150169222062,-0.041493046138058,0.000626925050008398
-0.0382562943680029,-0.0762757227275459,-0.0259938243081012,0.00283390739000195
-0.0418746025531477,-0.0852807900093202,0.0130235769378728,0.00550483499552052
-0.0151579219423348,-0.074666602306153,0.0765659927464229,0.00633431724705564
-0.00918294253932934,-0.0161115193946,0.12892088917857,0.00467742393391009
-0.0200750553188454,0.0906961234125069,0.12460459707859,0.00331329392658345
-0.0141372068248599,0.178491944192181,0.0804557224776812,0.00425885117514905
-0.00563422938811414,0.184605706033503,0.0393215215928371,0.00567169870142825
-0.00535102640581588,0.120962345150075,0.00889224160366164,0.00483444097755365
0.00110502124740482,0.0464294286852565,-0.0170462466380806,0.00164341453788013
0.0133027648982129,0.00719796064753916,-0.0286989358224115,-0.00231109841789896
0.0238892049439249,-0.00328029479159933,-0.0218594443436144,-0.00567203564554069
0.028522695015246,-0.00700999632644893,-0.0106990054047819,-0.00760922476047717
0.0264935506883349,-0.00781118332127179,-0.00419358200302724,-0.00753291049244503
0.0196673213522262,-0.0102318331192282,0.000171486794154979,-0.00556733436853746
0.00888870990259319,-0.0164469959196263,0.00344873878213888,-0.00270550690521955
-0.00276671376550662,-0.0214559233367513,0.0062093966987993,8.71258254763248e-05
-0.0105814211171333,-0.0226595293638884,0.0105975212741036,0.00241371800258975
-0.0145882897283689,-0.0216692726833822,0.013628697429912,0.00406221683378019
-0.0167808085202512,-0.0193749453917388,0.0124588986969695,0.0049634760388633
-0.014320033232195,-0.0144431402350591,0.00956670284118867,0.00513360904608038
-0.00895031332547141,-0.00743280016195431,0.00840105372041303,0.00474091826757831
-0.00692858718352704,-0.000253993970393981,0.00830248234108205,0.00457504164415283
-0.00965515460686631,0.0068449257525618,0.00659859052601901,0.00502519836146355
-0.012639805448798,0.014400190424498,0.0066716909187637,0.00532231797304288
-0.0114130873511323,0.0216561330631676,0.00958209046644468,0.00462666202852812
-0.00783288031281274,0.02820082900787,0.00993175788984941,0.00275466333617318
-0.00433367701930608,0.0322808308005752,0.0064871447436346,-0.000495814316064371
-0.00232977926729574,0.0320938140331872,0.00275777761346749,-0.00514156562354355
-0.0030221586183814,0.0323863540437535,0.00193976415803232,-0.00972341291214403
-0.00441323122107872,0.0350613036053365,0.00469407642966773,-0.0115907986879133
-0.00542269745343586,0.0367106092310295,0.00702271457406406,-0.00904995979111909
-0.00486582835382886,0.0365816711780253,0.00414537827548119,-0.00307916431031735
-0.00241392027996421,0.0349232608819834,-0.0030268962380716,0.00264172695572718
-0.00171274941535736,0.0315199168730319,-0.0101956516253163,0.00456479288505399
-0.0020947383616317,0.0296619542564356,-0.0146198839360793,0.00311210221424143
-0.00110839874659864,0.0309456837924024,-0.0162741983143064,0.0013582176132648
-0.000714293437687493,0.0300492229525016,-0.0159899623150752,0.000801887949949253
-0.00156710080462887,0.0261874399067832,-0.0162101796010921,0.000830453647791823
-0.00254454239874842,0.0221586455744516,-0.0193159817813698,0.000538155818974521
-0.00288088185420529,0.0186962548551682,-0.0227247218928369,-0.000595193660618928
-0.0014050711154452,0.0167253634764648,-0.0229913801584003,-0.00219976847987422
0.00223547572387502,0.0155733953996142,-0.0211440431830867,-0.00319096276070483
0.00644918776852015,0.0136462718356659,-0.0196555318924084,-0.00321720388042609
0.00946018276634014,0.0110172807126579,-0.0193383938962352,-0.00253382510608679
0.011776183318183,0.00940805589565159,-0.0182874244600008,-0.00159005486816194
0.0125322073740328,0.00854370345896415,-0.0156103898744179,-0.00107653091816738
0.0113476649958511,0.00611085063196262,-0.0150970741905447,-0.00103483863612478
0.0106079130960876,0.00351145030355635,-0.0160091849810875,-0.000869053999058688
0.00971915273807442,0.00252138888505876,-0.0157162191074196,-0.000254194050929634
0.00847195116460475,0.00159052860975679,-0.0162992522599359,0.000563702437005676
0.00837471578856433,0.000386898670690262,-0.0167273303441973,0.0011645475354396
0.00769366281051427,-0.00125582019286729,-0.0177067194424461,0.00137109069964187
0.00535720612065358,-0.00405204711239382,-0.020882509111744,0.00148478727110058
0.00287697188277134,-0.00673450821661913,-0.0228593164727839,0.0018930136609377
0.00104169888756257,-0.0076625214605368,-0.0222779612768812,0.00235064672169834
-0.000643914464965992,-0.00792851306463477,-0.0217091306391339,0.00246645569239443
-0.00243464501881389,-0.00756880903700835,-0.0215818331949604,0.00193025498201044
-0.00312085684528693,-0.00595096125909487,-0.0185937695223617,0.000187361620112592
-0.00287453055704607,-0.00548765281879968,-0.0123408089520225,-0.0025739293434625
-0.00340042457817076,-0.00658381575308443,-0.00664054204738634,-0.00434772000855951
-0.00362636803741096,-0.00710533284966875,-0.00344645361305143,-0.00276176838020357
-0.00108218054430801,-0.00661744713769064,-0.00218606048478457,0.00104923781639333
0.0026634126136367,-0.00510582927903021,0.000204834477385564,0.00265531999437849
0.00463734000767674,-0.00200449643185791,0.00853189098701243,0.000459467423818362
0.00561015347987263,0.000921637628710333,0.0194761253465804,-0.00249345152722084
0.00708833461081316,0.000468661975234667,0.0242375230300383,-0.00353068532981496
0.00919701141252762,-0.00154826519036999,0.023395362731909,-0.00298375975563597
0.00902070353507552,-0.00176003184764058,0.0243886386977293,-0.00156866759355509
0.00554790542605658,-0.00100281671436751,0.0264905491934141,0.00153863173599754
0.00238063441348768,-0.0011212266993648,0.0232188392392588,0.00620288887913911
0.00201776856767439,-0.00188687932706344,0.0163277673568491,0.0087978581562613
0.00395552578268957,-0.000294490970292999,0.0135967603622444,0.00596287809528003
0.00390673266347545,0.0042962518828738,0.0157438429602789,0.000348108963634739
-0.000124424071927857,0.00808105509812335,0.016838664764851,-0.00208654677023472
-0.00488542384044237,0.00813035830983424,0.0169181179329259,6.04380204702968e-05
-0.00680187742123823,0.00759145403591548,0.0179389368178577,0.00287452882470691
-0.00662634391770262,0.00741362423495751,0.0173870562695869,0.00345282538303166
-0.00810383435447544,0.00423071454923967,0.0153661043220923,0.00271035427299591
-0.0119238337515585,0.00199390488529122,0.0117628266427999,0.00184550733692335
-0.0137869991676311,0.00560539797708586,0.005273444316159,0.000384616723793988
-0.0102849496117413,0.00806452324015117,-0.00238316311258884,-0.00181698025495211
-0.00285721973818762,0.0015323168235056,-0.00745416139367116,-0.00381275859587888
0.00504087207837671,-0.00657222169320706,-0.00559217256996882,-0.00461800241841293
0.0130937656263266,-0.0130854435908424,0.00321732137012667,-0.00393091093200606
0.0263028182013546,-0.0246721952680299,0.0145994978552819,-0.00219528978386972
0.0384460654278208,-0.0300050587571141,0.0226862990315007,-0.000431350948095674
0.0313530748628291,-0.0131507686834727,0.0253561781215015,5.92363700302849e-05
0.00810207894638353,0.0138007105107087,0.0311166039339604,-0.00111715970667344
-0.00689631945085268,0.0269695258550545,0.0419665059077396,-0.00256624285100356
-0.00267202009790751,0.0198857878871587,0.0445755421399287,-0.0024223141413782
0.00907051883768649,0.00739124897203259,0.0367019967700084,-0.000328070775854983
0.0148245176291733,0.00656471745009057,0.0305696901091236,0.00250005626837628
0.0151962992159134,0.0107114176085916,0.0292100863754325,0.00460227332276791
0.0165268134594215,0.00973753098763222,0.0241195447856858,0.00519459088128137
0.0152813682123763,0.0064427574185251,0.010819135712322,0.00420209352349531
0.00825362731948165,0.00263019634312504,-0.00377586395214337,0.00206907654905645
0.00354249969317398,0.00500768868657381,-0.00806520831555863,-0.000357953558930791
0.00645357730919996,0.0174496898483113,-0.00334746100284393,-0.00180858349575976
0.0140453854315756,0.0317998895763168,-0.00133720356284933,-0.00172298657094057
0.020819542134026,0.0341925304184287,-0.00460720845092081,-0.00154288492817137
0.0274746050246407,0.0219395111070646,-0.0129033146352049,-0.00255419651013906
0.0339824770299634,0.00854421706725034,-0.023974229462971,-0.00402876453278316
0.0276237139988808,-0.000369207006347946,-0.0306357090156028,-0.00477396096542483
0.0114301571590597,-0.00761733313628678,-0.030803985063963,-0.00468265736920771
0.0105099530253709,-0.0159519738111948,-0.0234385751801694,-0.00442646572504809
0.0255505051940895,-0.0305324823050326,-0.00931072384229222,-0.004005845895162
0.0344351887208881,-0.0499060794252977,0.000575771975860728,-0.00279882008609709
0.0339927851449545,-0.0672635207526012,-0.00157057887243849,-0.00103679636201961
0.0328683164962544,-0.0788861528507923,7.24642182011806e-05,0.000164429345858191
0.0247552332792978,-0.0791807229262489,0.00857745645708856,0.000418871474801674
-0.00124484508267719,-0.0679546752991389,-0.000997749355748149,0.00038924556293496
-0.0329993845506216,-0.0558217186803082,-0.0234365143052487,0.000211580636728688
-0.0426056410851037,-0.0460006829302331,-0.0342558450212267,-0.000495303356494165
-0.0358665420343944,-0.0341790057254908,-0.0318875510138977,-0.0015674044046999
-0.0420728586088006,-0.0205153842825894,-0.019596469394304,-0.00229231066697969
-0.0475758620990948,-0.0105185437257162,-0.000662972120508379,-0.00191532038849702
-0.0273656618798593,-0.0171450667951008,0.010849146213725,-0.000564525059299031
-0.00104405296786225,-0.0356829274429734,0.00647372531519156,0.000722938607919743
0.010458511011695,-0.0403002149409174,-0.00794603737398131,0.00113222079290128
0.0196043431648049,-0.0379267771454162,-0.0206938549958581,0.000557238358351015
0.0372773352622666,-0.0543365540500799,-0.0261173620302699,-0.000358287079518567
0.0508770773599409,-0.0789963321407255,-0.0266234199826645,-0.000683942991913175
0.0520368494222128,-0.0923155693227299,-0.0210938833181853,-0.000181838536054939
0.0570199727370147,-0.0970994652540006,-0.012231692297601,0.000538035958402152
0.0750762551150781,-0.0975075076946692,-0.00831925756585064,0.000729866139052917
0.0777644674218748,-0.0848128858690081,-0.00980172154709625,0.000156425620692224
0.0388743721879545,-0.0574054005354523,-0.0129619956177318,-0.000847526641221377
-0.0191847773209831,-0.0256692033388486,-0.0135062044605763,-0.00157869907350755
-0.0658788457163603,0.0156627868446987,-0.00946193095221356,-0.00129975212393817
-0.0926042155697279,0.0688572019931908,-0.0033318961046894,-0.000128590025458179
-0.0841786097311966,0.103233516906346,-0.0015997564910906,0.00131621567734731
-0.0404622736428674,0.0877524716534804,-0.0154279431211707,0.00289117912743897
0.00229261085450407,0.0342256234191662,-0.0441043501929089,0.00440541282608741
0.0187556863398158,-0.00530483634070344,-0.0673830380333734,0.00531275065809069
0.0151583874763472,-0.0115797961495684,-0.0679558355192897,0.00517499865836745
-0.00230505067309833,-0.0297714888905893,-0.0451780926801287,0.00418879534338337
-0.0218847587757212,-0.072050783189502,-0.016916273058751,0.00325389753276421
-0.0230699337051523,-0.101668254940697,-0.0126505375541932,0.00318572085151015
-0.00592860474545881,-0.105990635527694,-0.0297109866025328,0.00346788087277345
0.0110382604250464,-0.090279682731641,-0.0374730313838065,0.00299868865495579
0.00772776714679795,-0.0591814842782222,-0.0275971114460862,0.00188186080767479
-0.0182746805837521,-0.0281881115144705,-0.011294319772482,0.00105432434248101
-0.0302073260485846,-0.0140915523634088,0.000703696973929961,0.00103605449988951
0.00550314830867263,-0.0105517514199972,0.00679345732384223,0.0017003632859835
0.0558845024799874,-0.00293790396329641,0.0100365038601333,0.00306549767918794
0.0720541978940388,0.00315864004434738,0.00235024730611687,0.00499692488054137
0.0617749929202927,0.00330393392160589,-0.0151242332299177,0.00646259940027506
0.046617543388728,0.00893589461520208,-0.0245266272283978,0.00655125754060439
0.0193893673488608,0.0265527931556784,-0.0230062391106903,0.00540492478373618
-0.0243624927484642,0.0526215273793176,-0.0178584750401554,0.00389244671519644
-0.0665049769621779,0.087163712932094,-0.00853991929464693,0.00282929703343773
-0.0925771052597523,0.113890094574011,0.000418333784340386,0.00251727652556049
-0.103052923457555,0.0944155476219903,-0.00195366904326937,0.0026962777251606
-0.0958274819914565,0.0402346877707876,-0.0081098800990664,0.00263762039125578
-0.0755309670964938,0.0118047871710017,-0.00510818555570274,0.00247657395234533
-0.0548343691222791,0.0249596803657199,-0.00225371968769415,0.00307026204207629
-0.0392213933629552,0.0392998486162524,-0.0116681321342943,0.00394140363890225
-0.0228005633532837,0.0293934143359683,-0.026502956220891,0.00399241218576743
-0.00108815088081539,0.0102189259620457,-0.0329512042977851,0.00325368908260712
0.0146150768271942,0.00631113283195354,-0.0262326522648321,0.0024475403351565
0.0217215516186186,0.0162417126829135,-0.0120827524505139,0.00201500873833091
0.0349584715280526,0.0184431196410733,0.00101118517854053,0.00195760223415548
0.0467659007891443,0.0103259806958054,0.00806382373204718,0.0018114559936027
0.0344193573919351,0.00291886154458737,0.0108355051590265,0.00108848648698771
0.00506989090935812,0.000566245822317836,0.019569048426155,3.56706335319372e-05
-0.0178816935111413,0.0106804027605304,0.0369783424876828,-0.000796024732644081
-0.0325579399034171,0.0373161614809095,0.0498260080111227,-0.00130683502158936
-0.0458803852622319,0.0716653945845118,0.0521271556560692,-0.00155678745996325
-0.0533004700120878,0.097385480506387,0.0515148218690845,-0.00153559006523793
-0.051360144765234,0.095256460193952,0.0527768164647678,-0.00137426828006955
-0.0417065405468455,0.0664727222030046,0.0467569896384415,-0.00135546142413272
-0.0274880514267887,0.0369736124748175,0.0260763949968369,-0.00177105687684507
-0.017847605089474,0.0258833055727026,0.00377573289566974,-0.00266876588503096
-0.0176231673595534,0.0270533772367924,-0.00913025810528159,-0.00374962207337843
-0.0220801513898721,0.0249369706380264,-0.0140543224532653,-0.00430626084274844
-0.0283960164274889,0.015779101453305,-0.0128591378943265,-0.00356229488242654
-0.0316417198161487,0.00646676763742926,-0.010993921964386,-0.00193340521771398
-0.0254995599060525,0.000783878126790635,-0.0196348960006045,-0.00151805022552568
-0.0119021637119313,-0.00226923789018464,-0.0329313139679405,-0.00412506683780916
-0.000238662937069197,0.0011006528127105,-0.0294612377303847,-0.00849872005076638
-0.00775564313724987,0.0135841918756697,-0.00922617156365452,-0.0107958406717525
-0.0415042536410526,0.0262055016902473,0.0117387174611831,-0.008294149058792
-0.0681382861638628,0.0271488422010694,0.028756051383034,-0.00142556363276937
-0.0518359834076275,0.0128674620284967,0.044217262314727,0.00748372789160983
-0.00767869217874915,-0.0057900568602158,0.0622589711967563,0.0144320521430396
0.0277915076664976,-0.00864796594236662,0.0750287258566839,0.0135781239312382
0.0418779739731975,0.00789885510491815,0.0674301980760758,0.00264596627574311
0.0419166808520304,0.0268939891064768,0.0489805811546666,-0.0123606149637952
0.0379626998742515,0.0364157398254886,0.0370765659971115,-0.022388349632023
0.0298801385169588,0.0373220462086398,0.0356952352118967,-0.0233360810796081
0.0140103212498904,0.0352793276183723,0.0405854837805728,-0.017199453445361
0.000948480637075796,0.034207629683691,0.0474355062242551,-0.00827826106525316
-0.00401201460686595,0.0350097174828008,0.0527899653947109,-0.000214267067381306
-0.0150938703309501,0.0360642181591035,0.0475085292790599,0.00442916508018651
-0.0338515127540263,0.0335004082150215,0.0292742727091856,0.00462055992573579
-0.0376914077397075,0.0237849953138425,0.0065531559685709,0.00174095908830112
-0.0191020879895276,0.00876420203386001,-0.0106319920745096,-0.000937732002757678
0.00207427795600536,-0.00464567810408417,-0.0160497453196131,-0.000169089250911676
0.00993954016686364,-0.011773199301922,-0.0151166779174845,0.0035142214335542
0.00799603061332027,-0.0141129698241161,-0.0107551819972673,0.00531139360691912
0.00428853192906613,-0.0171858144289105,-0.00174171129928865,0.00259707711865324
0.00138214873674215,-0.0196914664126909,0.00453801588208795,-0.0021304631193373
0.00268789747456142,-0.0190842776567813,0.00425211083756759,-0.00546907597132185
0.00751057627652527,-0.0187694192695288,0.000991930679613626,-0.00630064226663928
0.0104775991417063,-0.0193796113460012,0.00113439089054537,-0.00598536674766863
0.0116776216245086,-0.019424739009516,0.00522674158440158,-0.0066053817452034
0.0109735896126288,-0.0193493088585069,0.00683393283828001,-0.00844498350064883
0.009297786933949,-0.019212298450657,0.00838800072908845,-0.00994322323316127
0.0103525707830613,-0.0190989923900129,0.0151709932336539,-0.00947868618856974
0.0111557664208065,-0.0176565530540061,0.0228153563485082,-0.00650480969837603
0.00725146025663421,-0.0148961867944991,0.0264986572052864,-0.00185139714582003
0.00105510012035801,-0.0135276987793789,0.0262084473020444,0.00270501609565593
-0.00393476783149677,-0.0133964795181991,0.0231640705052888,0.0057547443252076
-0.00496572628052029,-0.0146423382389998,0.022317424451406,0.00739374371143176
-0.00460888425973347,-0.0165657445136889,0.025886234547947,0.00861027481029441
-0.00958969214308015,-0.016738388620414,0.0298135552148495,0.0101065346819535
-0.0185479134133595,-0.0170553689438798,0.0299166204095282,0.0119121424620668
-0.0265483303864316,-0.0190144539577953,0.0265330927411302,0.0130962930978218
-0.0298829935830656,-0.0195123913618441,0.0227249829465225,0.0117544967676479
-0.0296752510166461,-0.0172153826157044,0.0189206102741366,0.00679373285618553
-0.0292019668222766,-0.0137357884810933,0.0181918301748595,-0.00021192018370764
-0.0233595595635094,-0.0113554587448976,0.0228807649712949,-0.00673749091680283
-0.00995469796144433,-0.00970451825233293,0.0270057150390263,-0.0115391434287408
0.00117711045808953,-0.006587671121675,0.0271723798801045,-0.0141461991283775
0.00303612436603964,-0.00187204820217804,0.0276555715819428,-0.0142105964352525
-0.00563204265692464,0.00603737605924129,0.0330591465580363,-0.0110377642117457
-0.0200694716878142,0.0201656400991839,0.0432920176588803,-0.00421470455761553
-0.0257864085521403,0.0337005285302599,0.049489439243825,0.0038316845845415
-0.0164811108376812,0.0390620499531904,0.0469881343610071,0.00890987331620187
-0.000869798968664705,0.039439749000338,0.0398074911578827,0.0101587999382477
0.0137024707025946,0.0366181451899007,0.0299167840378605,0.0102936791195491
0.024609177615053,0.0293097644598524,0.0201858491469897,0.0102445609136221
0.0267759534607439,0.017310890796104,0.0125324595784227,0.008321792917732
0.0189455877112062,0.00203725176952529,0.00385253349710134,0.00408590019068567
0.0105121531021086,-0.0154559101521231,-0.00859034028514858,-0.000360003789627033
0.00633645621628865,-0.0366030249075832,-0.0222342525658883,-0.00220875610362713
-0.00135036777977641,-0.0557797928358686,-0.0243231172928232,-0.000459603225242863
-0.0115857052258254,-0.0605316810954955,-0.0113399166882544,0.00298755293633682
-0.0102624258152244,-0.0551739217695315,-0.00196811561292968,0.00521714708785901
-0.00283604556723657,-0.0532214108040802,-0.00170857549038586,0.00591236293486696
-0.00617041786889383,-0.0499902139995765,0.0010601812025604,0.0072603919758952
-0.00596823397794424,-0.0422288664552732,0.00729100842098526,0.00950033921609102
0.013284535208798,-0.0371424237128059,0.00929477304559539,0.00962902857919863
0.0273609784943048,-0.033116660679704,0.00252929464308265,0.00550084594938895
0.0114464072410868,-0.0330252365585606,-0.00840783026545054,-0.000925094106801463
-0.0204545051686236,-0.0395268101776117,-0.0127592289515828,-0.0054609884443105
-0.0423442422235592,-0.0395472031535367,-0.00584809168227238,-0.00576786140768864
-0.0480711622719019,-0.0270091490934159,0.00496951329730959,-0.00281391656779304
-0.046120196798467,-0.0106526926543052,0.00908757070841887,0.00138440379120309
-0.039408076607854,-0.00432859973563589,0.00383670868721347,0.0058101287777459
-0.0173079738044301,-0.017781789488064,-0.00799577101700216,0.00917753335276511
0.0225350288499363,-0.0386649060977896,-0.0235454407829431,0.00957855306873189
0.0582745795934177,-0.0455557069012712,-0.036600710502173,0.00641438796546172
0.0719503125590194,-0.0400968819297712,-0.0426622306305156,0.00114170223849383
0.0718419436918233,-0.0364097886775109,-0.0452983075484023,-0.00413132538233407
0.0609177437309289,-0.0316078870665334,-0.0472209596836274,-0.00848702496058858
0.0223090087565311,-0.0100873037206641,-0.0472240841847007,-0.0113323284402703
-0.033942079941603,0.0344178775115585,-0.0438472312483016,-0.0113912549015935
-0.0669631075435557,0.0822179919185048,-0.0362895608272567,-0.00856749363049434
-0.0680353794470468,0.0931519852753607,-0.0268907582821316,-0.00455919772462669
-0.0472786955296269,0.055593864310956,-0.0226641427666497,-0.00142994074927735
-0.0106809054013579,-0.00321151436514067,-0.0289883328962011,-0.000579988566346244
0.0159788248928423,-0.0566532153018888,-0.0412554124471103,-0.0018997123162891
0.0135681305831796,-0.0881002637298388,-0.0514405357615008,-0.00386186466026267
-0.0235521356114633,-0.0938040270245975,-0.0572318546457305,-0.00507577561746094
-0.0792835854193202,-0.0823971037276978,-0.0604211598193841,-0.00552744296931611
-0.111437274837511,-0.0669781347420171,-0.0623751320867089,-0.00555274934293631
-0.097467479072491,-0.0598209496692208,-0.0661781494435348,-0.00449567653569919
-0.0530804815663197,-0.0568975175616731,-0.0757711377475328,-0.00248329593711923
-0.0237655888409279,-0.0500326593922138,-0.0885679915113244,-0.00125134027726324
-0.0370325959553554,-0.039536981755828,-0.0935321116805429,-0.0017128025486631
-0.0529931342797464,-0.0265802171256821,-0.0880137027617701,-0.00327471010579676
-0.0167176696762021,-0.0172922753997748,-0.0886715801360244,-0.00470955469541751
0.0574210390119757,-0.00765839707658565,-0.0985423555934586,-0.0049806968128495
0.120920859958996,0.00299536696329396,-0.0985644532443931,-0.00450116559220959
0.156560134293025,0.00207607454120691,-0.0838154346409051,-0.00452365967533926
0.156909483804576,0.0051717838896382,-0.0662815908632633,-0.00522050751321253
0.127816934682619,0.0253777474939418,-0.0536383564787744,-0.00559819088388719
0.0999503134338249,0.0404914522885498,-0.0465114339014745,-0.00514579430849122
0.082021438215757,0.0384413144670284,-0.0501751315303073,-0.00519523775147828
0.0614869292408367,0.0437868042918875,-0.0682389441608335,-0.00746369404936959
0.0318467791596209,0.0611366611230037,-0.0858175913023779,-0.0112016155931233
-0.018354814475182,0.0555700001512579,-0.0802325002722341,-0.0134757518514317
-0.07913720096728,0.0312370239124888,-0.0529725494370276,-0.0121466503555822
-0.110970293119028,0.0277192726599512,-0.0195914845692585,-0.00772644119587007
-0.101817325402065,0.0541862905793328,0.0114004245444575,-0.00190863367135552
-0.0774983865225287,0.0751705084880443,0.0239170304474355,0.00388302530157548
-0.0757727080989175,0.0625827872020371,0.0173479943422134,0.0080371199226325
-0.110530646260496,0.0260296441738562,0.0170056756100436,0.00931270267859787
-0.127362449585554,-0.0239338290492762,0.0228182069868137,0.00750262794398354
-0.0840228398201288,-0.0709777478272498,0.0130671669657107,0.00332766742472486
-0.0207486362533388,-0.0905249450945727,0.00194251697087712,-0.00136139633442143
0.0311487091673324,-0.0724998129180706,0.00823321394774795,-0.00387564937917419
0.0718399412886511,-0.0098744447325666,0.014453082967984,-0.00302627611079188
0.0953812388024607,0.0855398362055279,0.0130409216002867,-0.000332145475672443
0.114795897685081,0.155392222497444,0.0142391300354844,0.0027827554463774
0.148126903867747,0.139144166589874,0.01582732017028,0.00638139605390791
0.177031615353253,0.0468863441570342,0.00354675266049385,0.0103044007829957
0.175399613237614,-0.048416543675269,-0.0318092723136646,0.0133953204928853
0.122181997542143,-0.0870951484965612,-0.0651371083698032,0.0141649312247882
0.0282423422763378,-0.0713483841142722,-0.0600284686882256,0.0119684744995861
-0.0131937975465148,-0.0434251424238164,-0.0285476605891433,0.0080861062610508
0.0381509374606709,-0.0236245136824071,-0.00606183005535464,0.00487387158036964
0.0927300719567886,-0.00290365452135387,0.000295079440448221,0.00372737449926464
0.0889373014712726,0.0182234597441941,0.0062736620555082,0.00508261684254735
0.0590737151492766,0.0243092845372715,0.0254124302244963,0.00996321483022014
0.0430632795888322,0.00796489072575499,0.0468802817643889,0.0189350124325245
0.0325742821159999,-0.0192406544449865,0.0487639399763523,0.0286769262454156
0.012246982607977,-0.0424391428418854,0.0328136752906111,0.0328842597839643
-0.0019817617530534,-0.052481277330672,0.0213744518625526,0.0289480664427253
0.00630571841908602,-0.0340909415530183,0.032042593961257,0.0208160796451415
0.0346049518142098,0.0212363667861343,0.0662317878128745,0.015182381534288
0.0523494380318256,0.0871005764648868,0.104587247526936,0.0164777817460189
0.0188688050784925,0.112515610335566,0.119320864191128,0.0221298029695874
-0.0573889098162916,0.0806043240931747,0.10592808284684,0.0238604424688207
-0.130842534117152,0.0322147952677004,0.080075395382798,0.0151015891326226
-0.167987541095798,0.00616385354935262,0.0556896902628321,-0.00381645384603933
-0.164073723860673,0.00514107978080729,0.0430670033526136,-0.0258080848737213
-0.134093800961886,0.00896262867991652,0.0385995796866154,-0.0419942140216851
-0.0892745614459066,0.003748200543125,0.0317214273995124,-0.0471143436065982
-0.028600714052125,-0.00146542349358633,0.0216438674822145,-0.0412982314158701
0.0567893815619959,0.00352186905608684,0.0137221033709431,-0.0287561334110442
0.144520850370515,0.0142197349110755,0.0151866561434242,-0.0141909974413669
0.183211896124657,0.0186971929557588,0.0250954189837796,-0.000286757152745599
0.164065242476396,0.0166904661421483,0.0363464944934682,0.0109930224472611
0.124403660981319,0.0169276822524237,0.0447127044800573,0.0176340890433732
0.0938685401750127,0.0191936745561124,0.0488476039707031,0.0189729845784513
0.0728827022119653,0.0193737411747544,0.050895923055259,0.0168017295206879
0.0499247482246875,0.0173503993037991,0.0504120301198566,0.0143737615472735
0.0237222607751255,0.0153196760855491,0.0464751580839895,0.0127162275357048
0.000480076653674416,0.0148477671061661,0.0420612748108703,0.00961046928003896
-0.0178109595758756,0.0155910164433795,0.0375204038794824,0.00407555245598621
-0.0301241771086966,0.0176128248014317,0.0316596271514658,-0.00196588825250796
-0.0319814103610704,0.0182817903036862,0.0254625743604959,-0.00706961178201132
-0.0280892149474968,0.0182034378071863,0.0190730323361383,-0.0115044519888172
-0.0277485883908172,0.0239141559198443,0.0119936825090117,-0.0154912910699083
-0.0306001061025488,0.0356302461593008,0.00692727554823544,-0.0191506692819419
-0.0319387233150212,0.0479994478139683,0.00882727211129261,-0.0229370165472011
-0.030918006626257,0.0581437026038986,0.0176601842732535,-0.0258721077668902
-0.0314873270196458,0.0640038895898621,0.0267817417792356,-0.0261209744812801
-0.0287471057177068,0.0636406938852365,0.0317957763698256,-0.0235575221991391
-0.018172318200815,0.0586978679583868,0.0331616776513647,-0.0204826924037905
-0.00487658580653227,0.0495407555061465,0.032746695915273,-0.0200587666386579
0.0022911970484505,0.034192452508129,0.0360229139935641,-0.0228725402817595
0.00495774975514341,0.0149260748378977,0.0488808116353474,-0.0255135647087761
0.0269364029433778,-0.00175070836198653,0.0659959514802095,-0.024022912820113
0.0572217681653164,-0.00745439978198059,0.07979173322017,-0.0181585872502529
0.0547084865428723,0.00256034203446888,0.0866712575241616,-0.0104585704967025
0.0307371135622158,0.0240823078905593,0.0848954755131324,-0.00340939218776525
0.0224322676793591,0.0499776033286953,0.0740711794386156,0.00107743535378819
0.0233989633911106,0.0713348696055761,0.0506365311379552,0.00313624634468988
0.0127688417107529,0.0811156225976962,0.0230537388677792,0.00541519553807886
0.00132331733109745,0.0806235945707549,0.00320946116118168,0.0098413877749314
0.000532759825023875,0.0684211167478822,-0.0079366141483332,0.015219199269521
0.000176256954656695,0.0467906981997773,-0.0111793154885246,0.0183965005965548
-0.00445275265844215,0.0253566880979497,-0.0163071609769353,0.0174017514154554
-0.00519518914185654,0.00887105570515399,-0.0302014629001855,0.0127734284143925
0.00230038205455849,-0.0101108707199216,-0.042808292661355,0.00623982927313547
0.0158302623690844,-0.0391261301491288,-0.0364909607689803,-0.000247145121794103
0.0244184040482039,-0.0609476081964563,-0.00617278360740985,-0.00407874767890281
0.0132444109316587,-0.0487774497339537,0.0179201015436859,-0.00287385541481018
-0.00604602611534944,-0.0127506002292428,0.00311528516030617,0.00244867146943157
-0.00880343930147874,-0.000939640548043727,-0.0332104544745529,0.00852771262236987
-7.97128351623724e-05,-0.0209925979617938,-0.048912394185955,0.0137951598686265
0.00054484498106161,-0.0311632189533075,-0.038248516768712,0.0174820180209455
-0.00245405780554959,-0.0210190778306294,-0.023192935753378,0.0172752138581923
0.00970345624949061,-0.0134037112459716,-0.0111998398787422,0.0127238510293226
0.0332330061231483,-0.0132479917971313,0.00494414214447383,0.00726813469177351
0.043416357739865,-0.0076451560852258,0.0228413086178882,0.00458066422776163
0.0270591468570974,0.00384341417721887,0.0323034849309867,0.00565788630049374
-0.00463498780343906,0.0102669939568262,0.0325294341489759,0.00929058251199936
-0.0311302229111458,0.00874784732697421,0.0255750757788247,0.0126869593574491
-0.0416386937728461,0.00585200800394203,0.00975751320260997,0.0132188644464578
-0.0396820837456711,0.00872445995284261,-0.00956699237620436,0.0117188615940859
-0.0367075998402296,0.0155724721616491,-0.0252437585090367,0.0107483578036231
-0.035897236551474,0.0149531234957945,-0.0407234632985833,0.0106191383796535
-0.0317348252853541,-0.00198768136246137,-0.0594204822551083,0.0108636922755649
-0.024237232997469,-0.0240368482531968,-0.0736272471845413,0.0118189195421715
-0.0127647595857789,-0.0332232685521444,-0.0728884317881584,0.0129953208623786
-0.00359683944341325,-0.0302832530135201,-0.0602910319659371,0.0129671239597958
-0.0092670434659917,-0.0242717168410134,-0.0497226022241639,0.0110979267428312
-0.0204197613737776,-0.0231206987775288,-0.0481196344591979,0.00786060383335041
-0.0174152268513583,-0.028817720167406,-0.0514334934084947,0.00405093952315535
0.00844574152139824,-0.0326376137764066,-0.0528864202605069,0.000978498710241697
0.0430294311900697,-0.0337769646763067,-0.0512190464939355,-0.000421399120506241
0.0538518718346511,-0.0414966732334237,-0.0440891253078834,-0.00145381758915699
0.0330685166769889,-0.0485062052798081,-0.0292030436143843,-0.00408612572276305
0.0156328932627073,-0.0379548181741845,-0.0176459439350002,-0.00771680722205871
0.0283756797330858,-0.0165148874199222,-0.017951210323238,-0.0101371810689431
0.0435392274714829,-0.00652516557688762,-0.028241588654444,-0.010631952160994
0.0270992329707521,-0.0165470422154622,-0.0429527293714288,-0.0101313857651082
-0.00522669127309121,-0.0354659497920116,-0.0542465628708658,-0.00946383204009635
-0.0195570853148353,-0.0486794062605237,-0.0622178381606736,-0.00872472859432511
-0.0148030559309706,-0.050865114528387,-0.0698434875893117,-0.00797567304370457
-0.00594146096238194,-0.047812767268517,-0.0766295757050034,-0.00719591283826963
0.00520417119907806,-0.0513208343565316,-0.0848188469101704,-0.00619668779009791
0.0202376513659816,-0.0569338652140696,-0.0933794307258951,-0.00531453437088687
0.0316351955059659,-0.0472687006393242,-0.0946254882035097,-0.00493176795664989
0.0294262572974138,-0.0256802397452094,-0.086188987676352,-0.00502773202585651
0.0124311286235369,-0.0120352101694693,-0.0675144536540399,-0.0052331477702676
-0.00140134181686319,-0.0102584173497752,-0.0362657365491432,-0.00513054814848649
0.00534183697233412,-0.00494895282769246,-0.00583437743035028,-0.00500486720503431
0.007823418986476,0.0184087229613029,0.00592902769046406,-0.00511311505852185
-0.0154392322069481,0.0578696799036971,0.000760686984828632,-0.0049889188384682
-0.0502738683005251,0.0849607532750757,-0.0142874775847917,-0.00440717882424199
-0.0789318164261332,0.0625590290237842,-0.0387591089015042,-0.00403928381337701
-0.0871894883382948,0.000164966473881395,-0.0666070692404228,-0.00483200104038001
-0.0743697597729754,-0.0491111971087642,-0.0859347934878081,-0.00669577213317348
-0.0450179197279529,-0.0600958941345,-0.0887068732213296,-0.00843274564989607
0.00370114717984216,-0.0536101394879652,-0.0815425140280112,-0.00896180958763784
0.0487517697907922,-0.0453787400329542,-0.0706826660957192,-0.00824520712000061
0.0541541093528848,-0.0300234539567767,-0.0455332497262557,-0.00685347765805189
0.043338219035104,-0.0129483991517176,-0.0103889152359131,-0.00381267123652676
0.0624219424746444,-0.00788459511887255,0.00818923416720166,0.00334522476666893
0.104879555921753,-0.0135681052902754,0.00162864814065744,0.0137257825395532
0.120937276887048,-0.0179923552495996,-0.00957865325442897,0.0220475787424786
0.0697812072523566,-0.0104626421036732,-0.00965838850019888,0.0243536216414412
-0.0219739176156229,0.00783983396818047,-0.00645832366625938,0.0203615930708766
-0.0966412027963355,0.0333440995429327,-0.00585140765409625,0.011905119350585
-0.128065553896952,0.0595040224150957,-0.0035108557114786,0.00195603102555484
-0.125191446380871,0.0612815568508351,-0.0061408033167183,-0.00599730989929064
-0.119929470884497,0.035121658676308,-0.018082473800878,-0.00974566476715129
-0.120313828656396,0.0090030779410815,-0.0282791758726727,-0.00995955230310881
-0.111106204081603,-0.000849724892465611,-0.028936393752118,-0.00940794612507001
-0.0983692092245254,-0.00442867516549361,-0.0229536318037899,-0.0109719422245143
-0.0891889126809052,-0.0147618900606553,-0.0153553600338018,-0.015452707897938
-0.0735884561884387,-0.0240691068308336,-0.0131815491288116,-0.0208003390351423
-0.0448091131885502,-0.0233827376289179,-0.0204772771990093,-0.0231268801681866
-0.0129830024771455,-0.0257638150799251,-0.0225947871174226,-0.020074484664836
-0.00791138065656954,-0.0361630237721605,-0.00502881886435077,-0.0128402189538963
-0.0471092649046164,-0.0328953053636308,0.0275148650626948,-0.00324078033747278
-0.0940491657028803,-0.00545806844265821,0.0547511910845562,0.00745755378795126
-0.107241708816524,0.0289322355193816,0.0526369289035118,0.0166682442115472
-0.111214885368632,0.0454852160477034,0.0265691549734465,0.0215958293853989
-0.132110601209577,0.035486912678251,0.00503873219916416,0.0226096632514172
-0.132366811683768,0.01809559647066,0.0039787314339326,0.0231295813452534
-0.0859371413676202,0.0197647431574043,0.0159380651311274,0.0254975438968109
-0.0398974756072654,0.0303224648093324,0.0210829314212361,0.0280396505661778
-0.0265281265141656,0.0112871707962792,0.00651818631571377,0.0265121395252011
-0.0177363431796608,-0.0322413234384503,-0.01540585980178,0.0184197539051815
-0.0236801652237876,-0.0566811610228269,-0.0247635547227593,0.00536765694830002
-0.0583311036161283,-0.0533712987346048,-0.0239362741403385,-0.00904627933448365
-0.0556551190820018,-0.0503805831031356,-0.0171713938382822,-0.0223356122433772
0.0153274046057254,-0.0579726704969529,-0.00426164848175457,-0.0331234785646263
0.0731423113617902,-0.0508579696403643,0.0141578172472256,-0.0395866366877884
0.0688924562230978,-0.014200316700974,0.0412420536875499,-0.0393293854972044
0.0502241533089554,0.0367126133665934,0.0733787885002271,-0.0321591329394833
0.0364027677872164,0.0919417198242071,0.0931063964075641,-0.0221096184507416
0.017215065416411,0.140083641659261,0.0826424601880665,-0.0132186826189823
0.00574558514742865,0.158815129209941,0.0491814009797578,-0.00647112133041308
-0.00501971300596621,0.147060620749487,0.0199794719343742,-0.00171849581097444
-0.0195416682706714,0.101663646246434,0.00115057125195675,0.000706175796176557
-0.00958689882829294,0.0155127662073997,-0.0219501419278325,-0.00018697071605321
0.0145721685891132,-0.0739547830937336,-0.0424076739741055,-0.00365002137211175
0.0106621021092254,-0.130606966651797,-0.0415855760562772,-0.00696073450223138
-0.0227861485345132,-0.160581961242024,-0.00773439727558039,-0.00812075813911279
-0.0636424991480452,-0.178162514907317,0.038562331171374,-0.0060775044792526
-0.0892874861351384,-0.190950878810186,0.0544199502006373,-0.00187987812857034
-0.0902886317512717,-0.189793507655084,0.0505412761185957,0.00124539110467827
-0.0874547972396641,-0.163061028662294,0.0623398076143777,0.00234246805965309
-0.088758573005912,-0.13514093997038,0.0901054751955879,0.00365592802150652
-0.0666114325312263,-0.118724532732554,0.106186557630095,0.00660804630392795
-0.0117276909209517,-0.0822660410425443,0.0862626495929534,0.0104778308494593
0.0668582681731351,-0.0254455706224999,0.0574159222626635,0.0140940796554368
0.163337667152424,0.0285724310348948,0.0581614982073999,0.0164903645752292
0.236459753031871,0.0865833689855167,0.0712419786822934,0.0167236662363426
0.254456935585109,0.138168660672415,0.0675442873821775,0.0142590202090915
0.240265547551715,0.168420833120425,0.0535887060403308,0.00998504898286837
0.199965900319276,0.203296636822632,0.0448402844796403,0.00573661071757437
0.10171614877753,0.223538573582289,0.0410572886259099,0.00246619184114935
-0.0408329166471884,0.155274557583433,0.0401568334563195,-0.000311989740580953
-0.133316870815966,0.016144262365372,0.0449679592392303,-0.00325933274265591
-0.117223061492471,-0.092588836542773,0.0546852809930793,-0.00566755771661694
-0.0513879440832571,-0.128305680364199,0.0661127606443512,-0.00544963548827888
-0.00172881819630845,-0.114666204498236,0.0763987854679926,-0.000855167984845487
0.0396481763745679,-0.081918459864987,0.0806776570219641,0.00709333701221934
0.08659374277064,-0.0562330351381694,0.0759478835563664,0.0144276083995438
0.108279989270986,-0.044638369135153,0.0714006212101577,0.0172966653952982
0.0845105199530532,-0.0336198253285484,0.0742951390613721,0.0150971432335457
0.0415284896556513,-0.0214631862692138,0.0769655039462084,0.0107176252499078
0.00720244350083343,-0.0191489826228627,0.0713831661078628,0.00727338922054332
-0.00556701653167289,-0.0222998491715233,0.0611053254462534,0.00554376426764541
0.00897087597984389,-0.00996972581574962,0.0516989303363423,0.00497953293940866
0.0262985308813511,0.0185486847290995,0.0395799885809488,0.0044414835893609
0.0144175861450201,0.0428472608638786,0.0290179492476654,0.00293532428417121
-0.00608728756945328,0.0580146508731258,0.0317043888378555,0.00163426154439409
-0.019171160006478,0.0747088721304189,0.0427836451458505,0.00259150541477561
-0.0410036281189877,0.0895745896522193,0.0469977974636364,0.00553870346156005
-0.0437092136348503,0.0784945674667762,0.037464822680344,0.00818904160231595
-0.00517933942454731,0.040558572854752,0.0185511409764029,0.00857933142013539
0.0437552078899393,0.00695226497313911,-0.000586739565234296,0.00634617040241415
0.0750885583476384,-0.0137032805144667,-0.0148636866380878,0.00301524207655508
0.0799642989582104,-0.0352383643309848,-0.0146956703746058,0.000878322065223551
0.0521184435852437,-0.0557491278915903,0.00898355552606682,0.000960326486535833
-0.0197609067265457,-0.0555440384930621,0.0405318653003398,0.00246478287388544
-0.115815538130025,-0.0218069646922851,0.0558849822753172,0.00406274456988856
-0.182865726652057,0.0223663312337587,0.045222264784878,0.00501972725251334
-0.199089439086243,0.0538967578669457,0.0231796351231952,0.00517680265058301
-0.174022868360776,0.0809720449902508,0.016323206162864,0.00516810657398655
-0.119477441696302,0.0974108958223944,0.0220511158741317,0.00635453706411187
-0.0571081689322102,0.0886826550295532,0.0192901092046756,0.00843314691371146
0.00592743260415621,0.0673303949814472,0.00206609100734748,0.00879962341164511
0.089317552064338,0.0490964763764264,-0.0296593614180205,0.00602556417621601
0.17063551086649,0.0366385988159799,-0.0666530951369606,0.000636947183523357
0.192372002639571,0.0264625939636815,-0.0852016706469521,-0.00730798386621154
0.148592419095889,0.0165752036924623,-0.0734924905968646,-0.016926657345472
0.0816717754596344,0.00362000035890026,-0.0420952232570282,-0.0240871155977801
0.0314160262727994,-0.012621788014014,-0.0189271636284506,-0.0246230525645461
-0.000700692130066793,-0.0177494479303631,-0.0214415733079371,-0.0187128858013605
-0.0331480634513207,-0.0127974483298522,-0.0351057663620402,-0.0102585246723291
-0.0542321534281217,-0.0195452013147578,-0.049496605785634,-0.00336213787033696
-0.0402019961797912,-0.0406641519367084,-0.0688814261168041,0.000203348265215012
-0.0209910330965313,-0.0597299419134185,-0.0854313104837416,0.00118248283133704
-0.0385783671222308,-0.0648497444019212,-0.0850485451256885,0.00133109465547528
-0.07316127257215,-0.0519133756297505,-0.0669285125677933,0.00199273475289874
-0.100523532640446,-0.0309996626355151,-0.0456624620258535,0.00344441102395098
-0.112294589196143,-0.0225443871776814,-0.0354425789671634,0.00479411106942046
-0.0904210488236843,-0.0261323539142497,-0.0314708748846246,0.00511884451878961
-0.0273537705855033,-0.0184613224637781,-0.0242287933643638,0.00491170031493474
0.0495650697387708,0.00498666246932739,-0.017334439060238,0.0051911772724682
0.0786931123309425,0.0332618875996109,-0.0101856995633388,0.00495022405704327
0.0469168573343761,0.0700317492235681,0.0021370435793016,0.00184891624899108
0.0127183511588674,0.0981218547655086,0.0103833870785887,-0.00378258330450623
0.002051634604166,0.0931929986735091,0.00236688743337998,-0.00855237786512816
0.00138927145089805,0.081333655074507,-0.0107971150567556,-0.0101233946187966
0.0118976678572994,0.0838690924405534,-0.0113459657946132,-0.0084968890835718
0.0243232597756627,0.0759320767478959,-0.0106796565494702,-0.00450792401612814
0.0233335808549924,0.0377118777270951,-0.0296295537626555,-0.000163133404860584
0.0160575834765231,-0.0136655208368329,-0.0596994213941005,0.00211156316887719
0.0150339717152742,-0.0464179642109155,-0.0756779190232744,0.00208883014161752
0.0269892804305524,-0.059196317704624,-0.072218664831876,0.00152518101872795
0.0503459287851406,-0.0766355872102418,-0.0564332881398361,0.00174933502228005
0.0664277199191409,-0.0978353888934513,-0.0323543240640695,0.00280045453274522
0.0614516825640908,-0.1080747182999,-0.0197175097406921,0.00391626754694206
0.0514900065804648,-0.113290774392529,-0.0250965600441428,0.00407369589352888
0.0483696382647637,-0.112634397297685,-0.0304523482881425,0.00321616611583167
0.0418057828161604,-0.0932935063787372,-0.0392229346412547,0.00235023095960082
0.036909484167927,-0.0599184326195293,-0.0520199022564395,0.00168744178794659
0.038092651063489,-0.0288922321650215,-0.0516263114081012,0.000565768009927702
0.0300925645784732,-0.00676777482011778,-0.0410855052772738,-0.00113397901167075
0.0130758147201771,0.0183956267089732,-0.0312586380355476,-0.0026329939665468
0.000642949049173558,0.0598635100644975,-0.0221501180442954,-0.00295095690893755
-0.0029723975432888,0.0905617452743765,-0.0132924738918911,-0.00200001348031901
0.00542983421731322,0.0767154740904314,-0.00319180332522643,-0.000996448306902844
0.0123896431136614,0.0395147367354736,0.00681249874284514,-0.0011566097779334
-0.0107435907047147,0.0252999668516053,0.0143854570273266,-0.00236838057892403
-0.0377178133187984,0.0433362485388004,0.0229793430417336,-0.00359888506785021
-0.0271184643292461,0.044735686837391,0.0324370122733015,-0.00417992015186575
0.003391983830057,-0.000998964008184104,0.0401716036531196,-0.00412728835156799
0.0375042993731783,-0.0516277997353979,0.0371127447316263,-0.00309475603591494
0.0855533261532077,-0.0675295302163348,0.0153140144463055,-0.000776573597093213
0.109418952208926,-0.0556342589385972,-0.00124578021623779,0.00171286407022931
0.0422895439419332,-0.0386943150627508,0.00736258512311607,0.00221934072020418
-0.0583175873741968,-0.0306170544149323,0.0252942384610639,-0.000234952750382268
-0.0667261955960003,-0.0226294751413892,0.0372470402221372,-0.00419857946179714
0.00312404799855002,0.00173644593987163,0.0320160126628083,-0.00753625091789782
0.0606688483386085,0.0355232626475079,0.0105527224267318,-0.00943868878327986
0.0762028374310176,0.0486052620152303,-0.00645695537775727,-0.00997586563370602
0.0570469768165288,0.0253746141722719,-0.0145679129850397,-0.00904988580293502
0.0272641544283611,-0.00935428039028796,-0.0201294430559781,-0.0068666319741541
0.014010395773176,-0.026387085535779,-0.0187708921755173,-0.00387007675700014
0.0117230274448167,-0.028806760709062,-0.00894027552626161,-4.68740779143977e-05
0.00275128011872444,-0.0356987168253914,0.00348551081333503,0.00368833575264812
-0.0136516133824013,-0.0518160401634173,0.0115189708040639,0.00471789502144634
-0.0229578215301858,-0.0681147477028318,0.0103584362378451,0.00209824484891342
-0.0118026311875654,-0.0768280962911947,0.0089485196944853,-0.00110412875882333
0.00872894140495506,-0.0756736031453503,0.0312529882145283,-0.00123289995897839
0.0163869598380039,-0.0655513087971667,0.0726895269101948,0.000976448503156715
0.0117216180187027,-0.0456938145876716,0.0874015956338431,0.00118851885452102
0.0110040090227784,-0.0252005245348804,0.0622172931974844,-0.00258203260303158
0.015699496218389,-0.0127502319406507,0.03233641715446,-0.00782892600351023
0.0135022662273329,0.00103260447001163,0.0192352587695711,-0.0111111655197847
-0.0045869570364226,0.0237738962354836,0.0207930639345485,-0.0111107085099477
-0.0297350058036352,0.0534353689676395,0.0313601115247242,-0.00861872156354493
-0.0403959108118379,0.0833083911113124,0.0382349056399546,-0.00494228031211714
-0.0306508217902888,0.092659705561613,0.0321543873246755,-0.0010119745512061
-0.0106828077423725,0.0686475386473293,0.0214631803950221,0.00218734908126225
0.00561081570030317,0.0340087468883561,0.0165073002475621,0.00398393219310675
0.00476804918110638,0.0124537209085238,0.0178084316981021,0.00444088052091888
-0.00795219583854611,0.000403727074353634,0.0218303782227005,0.0041696874377663
-0.0179609252175806,-0.0111255310477771,0.0256865046629729,0.0040710571316197
-0.0246089129477696,-0.0211986352493745,0.0273211650237652,0.00389994286344974
-0.0231480152084838,-0.0234858411555958,0.0255888558929414,0.00231805769362644
-0.00364922082877461,-0.0158540208164986,0.0181657681869279,-0.000638612196264775
0.0290649807298171,-0.00571759719553555,0.00596023646290633,-0.00335706904808835
0.0547409218091087,0.00306637338114558,-5.7624920786481e-05,-0.00478112194754358
0.038904101122352,0.010095967814321,0.0046350564159048,-0.0048870537445452
-0.0287413699440691,0.00391347920554088,0.0115255687164845,-0.00427111452375881
-0.0993946788309957,-0.017641905639704,0.0150291351067791,-0.00443643388579616
-0.126872706972356,-0.0342324901441365,0.0153092896341009,-0.00677779899517555
-0.117409051294399,-0.0375200875311683,0.0137333557443957,-0.00982620843681153
-0.091853016095206,-0.0334492909068492,0.0116080907821943,-0.00938341302671398
-0.0542530956039957,-0.0276919064385329,0.00571523468612587,-0.0033884020295467
-0.00730636277597682,-0.0302510660303763,-0.00330161890243147,0.00559635690360251
0.0321976194169813,-0.0423809689472228,-0.0068820424077044,0.0130714203511492
0.0587631921158958,-0.05143457458087,0.00176965230706424,0.015473839781006
0.0807436399610602,-0.0468680897003735,0.0201272713289411,0.0124026621279398
0.0980750693825157,-0.0355417518663453,0.0310740566513107,0.00712281028743976
0.100495671073803,-0.0226030858451383,0.0221993025955151,0.00298876506084019
0.0797575808754706,0.00898827268770863,0.0061986269809214,0.00126910094948135
0.0422443422093152,0.0607122056703591,0.00222037480215009,0.00183095078125153
0.000888017545904646,0.093694979911157,0.00718052941697392,0.0030898718599078
-0.0306019949755051,0.0831952181720931,0.00635763599522566,0.0032650310233387
-0.0285909643548647,0.0440765793137943,-0.00335632210584258,0.00210535194352799
-0.00282717651387439,-0.0034031132201456,-0.0134434676900279,-0.00011153263576609
-0.0174374194838471,-0.0314386659290398,-0.0144446744424975,-0.00386286967765621
-0.074087891807698,-0.0272618820513725,-0.00859490656274768,-0.00849263954692901
-0.104759810026256,-0.0251996000196448,-0.00629083616168118,-0.0113796231771884
-0.0875698496903715,-0.0324249214064209,-0.00732572240985302,-0.0111929340053734
-0.0386388634363878,-0.0158322091546,-0.00832117449753125,-0.00899909929642579
0.0217139830362613,0.0163618523406075,-0.0144440732475694,-0.00595983921011737
0.0606308417524808,0.0333960904189032,-0.0233333284907526,-0.00299719975502748
0.0561671931029532,0.0461615583517428,-0.0225533723340972,-0.000742302267850891
0.0337703444392318,0.064650055269465,-0.0138756243741338,0.00200528665937426
0.0280232816851975,0.0590166401990292,-0.00443331923166175,0.00623746652499801
0.0307624245062122,0.0218027457582396,-0.00258308398114004,0.00979481685601208
0.0168764453545837,-0.0230468365756055,-0.0219970360248266,0.00999311040032302
-0.0238119307245379,-0.0492089162692246,-0.0416720545428737,0.00733679764485306
-0.0738006421862436,-0.0371916067394651,-0.0327912345227976,0.00404878826750416
-0.102055131777287,-0.00493538256546077,-0.018492474669431,0.00225055191891581
-0.0733466689254497,0.0123696557797588,-0.0283187031980486,0.00454227455266771
0.00705053661251984,0.0119274390008082,-0.0482197279778346,0.0109889179313724
0.0745338124364436,0.00396224245361463,-0.0589720037532071,0.0161727018928676
0.098409347422915,-0.0130902385736398,-0.057937841246298,0.0143072832520264
0.0929612988771605,-0.033266464654752,-0.0496618358618488,0.00635786446272856
0.0695568019828041,-0.0448175101824303,-0.0451670346153028,-0.00164800582509084
0.0561116768549872,-0.0437607139549425,-0.0438717110827489,-0.00610329492822444
0.0688767754406584,-0.0406133951083093,-0.0386110624941215,-0.00771384144082434
0.0721287608509304,-0.0505451086108714,-0.0284212924906248,-0.00775681246439855
0.0398780458254789,-0.0592269279018733,-0.0108293394191511,-0.00676297150617538
-0.0154493608309259,-0.0330983254724347,0.00671802068473572,-0.00506757647579863
-0.0697908521870412,0.0212993473655884,0.0123718928736172,-0.00255279686073274
-0.103692267878597,0.049460158079666,0.00909902196173151,0.000864488469423748
-0.110721754322269,0.0284878424545972,0.00367169278955593,0.00478364742937404
-0.0847998262807499,-0.00284969985972292,-0.00282957617637438,0.00847587754849312
-0.0272534293533147,-0.0120686231799777,-0.0117330221592574,0.0112661772209533
0.0187092527622224,-0.0144868031852839,-0.0193808666226091,0.0125948051501696
0.00719535576885941,-0.0324594272315957,-0.0200097144813873,0.0112025187776193
-0.0443976957108618,-0.0555724337799623,-0.0218970082574894,0.0052296934599551
-0.103386596947433,-0.0662292039710957,-0.0295062880626968,-0.0054249876946675
-0.136227091059555,-0.0655322687717425,-0.0295142933588644,-0.0166200298252217
-0.117485376046537,-0.0599162895573097,-0.0172514927834537,-0.0216528126011729
-0.0621011854761971,-0.0497652850962806,-0.00235768108171511,-0.0161871170686968
0.0272973406428853,-0.0382121330793357,0.00388180744570558,-0.00137326657545093
0.119776837445426,-0.024181520873553,0.0010370556442622,0.0156494441039076
0.144197029934102,-0.0106716639529659,-0.00263988565514462,0.0252705862909626
0.0955343290753754,-0.0154356658173787,-0.0077119524453705,0.023299357803874
0.0338037643320018,-0.032806945622298,-0.0127055386469364,0.013974192330375
0.014136469672773,-0.0459973421230958,-0.0119471503703091,0.00405458961689425
0.0414454601589932,-0.051521168783403,-0.00951308251275263,-0.00273031490080373
0.0715065763493593,-0.0408987601848467,-0.00622616583479381,-0.00590314279833609
0.0657416494158649,-0.0180139428965308,0.000946981571214643,-0.00632983960148701
0.0269415994919758,-0.00265817280609809,0.00844432919798912,-0.00520841591838075
-0.0107897281326728,-0.00181067024288262,0.0146427945439358,-0.00390909052590555
-0.0255932065828193,-0.00136177337933421,0.0196734529214572,-0.00316951422922259
-0.0237921330025085,0.0103939228661337,0.0229548232092811,-0.00280238538862244
-0.012556168675821,0.0201126676706349,0.0241875276953531,-0.00247268749959203
-0.009817054568516,0.0262551769185841,0.026545241456364,-0.00211899164266938
-0.0357433113544386,0.0342879216880393,0.036679870496737,-0.00188367071933437
-0.0791494127686297,0.0158834744920415,0.0508813600376121,-0.00184721162313127
-0.122998001622176,-0.0268777346531735,0.0611347486025593,-0.0016328576727615
-0.161467957662444,-0.0481521674967968,0.0683735951184224,-0.000686410082701381
-0.171854335774702,-0.0302345285402743,0.0726294502202441,0.000559275829710826
-0.148447836425843,-0.000257692195048798,0.0668368217137632,0.000802434325893047
-0.134560164147846,0.00268278512181133,0.049838935998828,-0.000639539969186572
-0.130656069264745,-0.0252517916422056,0.0314672110684956,-0.00294218501031559
-0.0772023806972545,-0.0594064008701526,0.0270094283855172,-0.00393063909133162
0.0369294835098721,-0.0818965377172728,0.0426963148102696,-0.00236318196725726
0.138246627874461,-0.0785850912134647,0.0560471362125641,0.00056809487764762
0.169656420648841,-0.0427279868661046,0.0385894962566339,0.00306564240002087
0.156253409600294,0.0133686657509146,0.00371483737056522,0.00434740098684402
0.112060996221177,0.0744037945956956,-0.00658112818010861,0.00505668981700343
0.0444996156211019,0.120883982379098,0.0120017886185865,0.00627153334635551
0.0128154398062959,0.127343519786526,0.0253696815473717,0.00777272564768698
0.0277362321220015,0.099526064604405,0.0205810756702285,0.00822296681177028
0.0239140695020936,0.0692983791831841,0.0113701411152402,0.00629262831188095
-0.0300609426288887,0.0499537644652455,0.0105690270517375,0.00131813812737174
-0.100810082755158,0.0366424145473567,0.0190908260212249,-0.0051728587105871
-0.145993122135806,0.0347285780524733,0.0249947050203625,-0.00962000330985948
-0.145935400628745,0.0566795979285721,0.0178057897454558,-0.00967968911952101
-0.0902582095044386,0.0941087182560251,0.00797057876844014,-0.00553427158325381
-0.0133587690159972,0.12137084463699,0.0175939692140376,0.00120077653570315
0.00793602980834952,0.110540989348294,0.039940839270716,0.00815371303417581
-0.0374942636370034,0.0477626329588199,0.0349874938349784,0.0124668431410712
-0.082234868582161,-0.0286174641270001,-0.00437611410570984,0.0119571832705308
-0.0652230244540704,-0.0641920211222909,-0.0245115135732958,0.00719072684862376
-0.00808875140143544,-0.0610188777201713,0.0024105091627552,0.00189470020214239
0.0147171717358125,-0.0487738045671832,0.0439930337404111,-0.000663416619497641
0.012546118742476,-0.0324894236331114,0.0713846434284362,-0.0016124298473171
0.0510274662575304,-0.00741966435565409,0.0740378975469322,-0.0042333449061801
0.11155461185224,0.0181042160737225,0.0550918698012691,-0.00848168834053968
0.135887899187001,0.0327199815580294,0.031253460304136,-0.0108954928457373
0.0999825761495208,0.0391587841896241,0.0142558003729601,-0.00932220823069484
0.0032848047064899,0.0459601663791938,0.00600141776886746,-0.00477785925901812
