-0.023075157824425,-0.00170414432455556,-0.0110136639770446,-0.00722151474786133
-0.0196567070385052,0.0176486003371058,-0.00871673214159748,-0.0432344619374649
-0.0256710152542429,0.0141439749510042,-0.00427001914720385,-0.0779321650504838
-0.0405636890358126,-0.0111661937675426,-0.00347486188412757,-0.0988712687498224
-0.0557984023239739,-0.0381122108246766,-0.00500599321439477,-0.0965906521041271
-0.0644875972076678,-0.0467793654802028,-0.00404715702290754,-0.0652521758892806
-0.0614113584891802,-0.0401032177029105,0.00204150549093269,-0.0109293935113006
-0.063689507262376,-0.0330258744083907,0.0106527242470316,0.0451757223444052
-0.0772436556960293,-0.0319793267438581,0.0168334955972887,0.0816948044013986
-0.0859454523239108,-0.0323879981495388,0.0213251224880497,0.0965179476554234
-0.0814752345966552,-0.0222728089268455,0.0241083614336105,0.104073506344488
-0.0498680219089105,-0.00522094636474969,0.0223085489612767,0.115582979802707
0.0087131701569131,-0.000601253794367422,0.020704709397941,0.133871573299729
0.0513650544903908,-0.000794774107596985,0.0244336801758765,0.155185911239376
0.0501521718968624,0.011281525234277,0.029738440441904,0.16052159545128
0.027997145198062,0.0218061114716816,0.0312346486278045,0.126108735683569
0.0187687707926278,0.0269481843135402,0.0281911904636705,0.0488721023902208
0.0251576911134197,0.030008322948534,0.023990302668576,-0.0479819192042751
0.00968701088726433,0.00826489630466548,0.0198913899830895,-0.127646712924453
-0.0465338241677991,-0.0294038639960502,0.0131166564111884,-0.160696550260173
-0.103741677192111,-0.0497018697028222,0.00199125752023298,-0.142380028446369
-0.127036059533854,-0.0468706911518137,-0.0103329184636093,-0.0928380064636044
-0.131250122771276,-0.0227972228434344,-0.0172917709886398,-0.0405974676956004
-0.134014288062579,0.0163831507371369,-0.0163827068846819,-0.00255299573501401
-0.129008630315501,0.0518027437308957,-0.0133783222083233,0.0209435458717433
-0.112823117584048,0.0580272696539427,-0.012203213409305,0.0359866119072709
-0.0942674684221506,0.0308354045622949,-0.010525461164473,0.047354699781026
-0.0732856546787856,0.000665820194407266,-0.00876043966378467,0.0565919947327176
-0.0439860172359316,-0.0197013797869475,-0.00549993307436299,0.0612886548903114
-0.0177077071410241,-0.0452885007170281,0.000689150080270599,0.058709213884923
-0.00593358715377977,-0.0630515583593062,0.00834834329530711,0.051045853784348
-0.00310036076576221,-0.0451085176990562,0.0174000017251741,0.0439032759811734
0.00729029747963752,-0.00260349768473853,0.0248384223518292,0.0396502344271315
0.0337757368066976,0.0342818082356469,0.0287529406265245,0.0363385073284929
0.0521609770912358,0.0473459941339654,0.0304049870457976,0.0318367027035824
0.0342275963371431,0.036360164053019,0.0279221159654561,0.0245489062538393
-0.00842899438117441,0.0139020105308483,0.0203520786542571,0.0138836129351151
-0.0385937937854773,-0.0175599119868414,0.0116010625576758,0.00184478610264425
-0.0465907635825642,-0.0472124019629363,0.00309924646384611,-0.00881983710449607
-0.0519194634850714,-0.0536819974172537,-0.00831028087269942,-0.0167772218464171
-0.0526143438534096,-0.0341112479682481,-0.0206294463209159,-0.0222084486717241
-0.0284361978279488,0.010220531773881,-0.0257414870607321,-0.0255482340821916
0.0207253411777453,0.0632917633284113,-0.02230158103674,-0.0262288295890718
0.0753147258376424,0.0935470531202765,-0.0193433866620805,-0.0237469470149614
0.109130414874838,0.0951229377312103,-0.0225772913571631,-0.0194897550970671
0.114584813743829,0.0815097585755987,-0.0263258557269998,-0.0161724745086004
0.111289185654761,0.0584959991776721,-0.025669123633428,-0.0159807837711537
0.094362206994347,0.0240707108796622,-0.0234617965315193,-0.0195499161351021
0.0448470160915916,-0.00707992231924605,-0.0201488458904852,-0.0259340579840247
-0.0259110317298998,-0.00164992181129996,-0.0112912136408993,-0.0332342546292931
-0.089196890747248,0.0500313266520189,0.000268461873189779,-0.0380805226444825
-0.121987055829026,0.102169553660164,0.00636178174762853,-0.0371324781298272
-0.125012071487946,0.104719237588027,0.00633926848263174,-0.0311234904404108
-0.101197030231839,0.0705600974817815,0.00437957804168021,-0.0251035572273289
-0.0584765086738041,0.0386179136079827,0.00153488742864701,-0.0242224164287947
-0.0310385896240939,0.0232502510314089,-0.00114431280811009,-0.0287074571428392
-0.027586969254545,0.0219548608160024,-0.0035249351933774,-0.0339739716592782
-0.0246853732095145,0.0310278579315843,-0.00620121421991729,-0.0359869494524872
-0.0184488768256105,0.0389538882887927,-0.00751442438427823,-0.0337630027407963
-0.0170518770552246,0.0318574846401061,-0.00893525512359486,-0.029064973936603
-0.00773944218712277,0.022389368042579,-0.0111824199573423,-0.0258194697871796
0.0211871859475056,0.0244380937814334,-0.0121750737425777,-0.0261055081586688
0.0604884702640603,0.0296539621175934,-0.0119276038003259,-0.0276923700244938
0.0995528796239896,0.0367035254159008,-0.0121637037740471,-0.0276014224627963
0.123722846772912,0.0494537538201201,-0.0136288601943504,-0.0245179155125566
0.131898669972947,0.0601034050081185,-0.0157644546133824,-0.0175374702815754
0.158536093606909,0.0405940809583138,-0.0223373611411538,-0.00799590452219473
0.216095007089346,-0.00578086725208121,-0.0313811118145748,-0.00237076901433171
0.242697883286625,-0.0133841847798318,-0.0277638564054271,-0.00551982377746228
0.184509422167622,0.0258313979162993,-0.01206468704473,-0.0126038885906427
0.0721815560063212,0.0560018076612404,-0.00225767333563749,-0.0158288762457856
-0.0304581357418862,0.0596689928958939,-5.71822383526321e-05,-0.0135238936799762
-0.0749353485504356,0.0393755366342251,0.000992631900279813,-0.00907218619102014
-0.0599714538866305,0.00653632166114554,-0.00244009457218165,-0.00744251165397733
-0.0299840878944224,0.000320553559350442,-0.00667681934036282,-0.0109071186683994
-0.0156005168052737,0.0392350120114755,-0.00296201744228538,-0.015676355384566
-0.0134683858995817,0.0818824276876132,0.0045722008283013,-0.0157354220239659
-0.011155216314394,0.0806635957809577,0.00774244211013697,-0.00986197622528183
-0.00555710557630048,0.042507309178634,0.0073678528630414,-0.00230930336884944
5.52513919869629e-05,0.00530665861849662,0.00874470799246915,0.00212825410114084
0.0131168039618222,-0.0111932830889098,0.011965680745203,0.00134319558373758
0.0415700500274516,-0.0153905545156752,0.013870914275043,-0.00325141971336403
0.0705648585775559,-0.0248913160894493,0.0153680565656977,-0.00777219910592837
0.0795343365918681,-0.0423818700618364,0.0178644693699732,-0.008885622791165
0.0697866274424691,-0.0597938093501774,0.018737684881829,-0.00593883667591825
0.0589071233603376,-0.0706162992459334,0.0173338997610928,-0.000881304618619107
0.0558915834955766,-0.0717362448231638,0.014989796909779,0.00428393646592074
0.0489348341610876,-0.0704054043077519,0.0118932956375842,0.0088165419356387
0.0275194324217362,-0.0648380423499988,0.00941877841945638,0.0120197181941142
0.00421905493719533,-0.034388323859416,0.00778258728007133,0.0144876907923588
-0.00423601779784779,0.017752097114205,0.00299462479664832,0.0186380723642648
0.00527466146394937,0.0444838707557776,-0.00428819261079575,0.0254051875642918
0.0269668376629514,0.0182898217193866,-0.00758699117652599,0.0328022299151365
0.0516797428478771,-0.0189535037275469,-0.00328518810560883,0.0384850581634443
0.072732709747705,-0.0223278927842204,0.00910575474737358,0.0410891397229143
0.0872349551181819,-0.0148321186853964,0.0196277886543892,0.0394624810588843
0.0954576162232368,-0.0386789425729606,0.0165671781959131,0.0325654268395406
0.0931107052278256,-0.0730837498266112,0.00917289850792866,0.0205234267574881
0.0739531916776015,-0.0730418472653982,0.0103455470026473,0.00770325581241449
0.0449978861397365,-0.0517968568770165,0.0137135916910068,0.00188615795300547
0.0190987944712938,-0.0421943513240552,0.0132211133170454,0.00714325080814256
0.00431993367944445,-0.043823760287588,0.0115090595166142,0.0185771027892051
-0.00211028200945653,-0.0455245122247287,0.008941045795836,0.025290549822189
-0.00787684834693957,-0.043975905716797,0.00572748779905342,0.0202897956139956
-0.0152020249271299,-0.0418758604332339,0.00227221794171072,0.00672319514641865
-0.0220307683031605,-0.0437329225466898,-0.00255481003939495,-0.00674413360773437
-0.0265896025401746,-0.0472074347010924,-0.00646380690766831,-0.0138801610406755
-0.0337675497097799,-0.0470948418979758,-0.00574296113556329,-0.0131935052518176
-0.0429362188511367,-0.04625753574276,-0.0012166511752602,-0.00658995341903168
-0.0445634970117833,-0.0568287924852454,0.00399317269413116,0.0021721478433024
-0.0457260135328214,-0.0735127692943493,0.0054362143837842,0.0098534612978545
-0.0614429896200199,-0.0781005726525378,0.00296643587948731,0.0155497510551609
-0.0816781074599733,-0.0768557253440154,0.000418236644438564,0.0196309898813659
-0.087752959365052,-0.0781353687487499,-0.000911280355533426,0.0218904569481488
-0.0812064664854593,-0.0741635768135123,-0.000605043290740716,0.0213399571684088
-0.0740606711210453,-0.061671695158881,0.000876165792374459,0.0169405543672156
-0.0750364524207501,-0.0540411215046467,0.00311378841376798,0.00937327647901636
-0.0857526181247532,-0.0560897703920101,0.00476951250882916,0.00186635087257665
-0.0956883746896432,-0.0545816558128536,0.00467296044494664,-0.00267548466514879
-0.0895522207746677,-0.0448452909617589,0.00638332335305457,-0.00378402396060166
-0.0771865930860676,-0.0367285839004976,0.010025572075512,-0.00194554464156989
-0.0830478014646851,-0.0351752243158852,0.00977386300317364,0.00169312630915679
-0.0957984096063145,-0.00705654225123277,0.00741789829690029,0.00493329058751242
-0.085587495109431,0.0716360246916876,0.0117056367710271,0.00632495861459687
-0.0470256556391658,0.133792918884356,0.0210843230274278,0.00562451341639966
-0.00398301567141898,0.116617152620531,0.0257164687892187,0.00298478529093829
0.0141488718401083,0.0571749831713146,0.0216299163487031,1.18040124464334e-05
0.0115055250438866,-0.00407765740741808,0.00821492617470491,-0.00119973367328106
0.00913736116385974,-0.0675582269601471,-0.00971226599875946,-0.000559222623426542
0.00476109755822172,-0.106981964012058,-0.015940501836329,0.000394617332722923
-0.0167001997257738,-0.0867526395553483,-0.00383894789542468,-0.000899650151183644
-0.0584602577715143,-0.0378491254550936,0.010205069032949,-0.0057291000227939
-0.102656301991575,-0.0173728545738388,0.0107262742643939,-0.0106891162994463
-0.12967032010592,-0.0290028753036353,-0.00312562771514565,-0.0109663392631057
-0.131620949267807,-0.0448115618864754,-0.026420483050669,-0.00726714747092856
-0.103019853994666,-0.0505254276335301,-0.0455910257405854,-0.00405690487641572
-0.0646029814786397,-0.0432276794904427,-0.0450357549635687,-0.000724349768199141
-0.0633489422699286,-0.029334373616648,-0.0281244668078169,0.00653895286965873
-0.10265645710859,-0.0256393737889063,-0.00993038741655416,0.01353976779618
-0.117938623519696,-0.0338016238298559,0.000126223631848513,0.0106603160205467
-0.0623530145287201,-0.0379710706603295,0.000695413341043366,-0.00407919461926773
0.0166595573969402,-0.0235968835218467,-0.00154455674035725,-0.0234032332958965
0.0505886524202759,0.0175195485216091,0.000366064163927753,-0.0387827720331635
0.0501792839012325,0.0596506839969831,0.0060836011155448,-0.0453496735342649
0.0474132033536931,0.0640948903470095,0.0114182852526875,-0.0418262692140141
0.037233243530034,0.0559728832695321,0.0132270035226302,-0.0295945666832404
0.0175336269311666,0.0702350090172068,0.0132881592898268,-0.0129464862977049
-0.00575462623072812,0.0805859977520881,0.0123251262994564,0.00302077490492777
-0.0265007449817937,0.0654434199319656,0.00882144451443597,0.0161312540971728
-0.0299621694367785,0.04326114389606,0.0041218777063581,0.0267096129137753
-0.00695272310298075,0.0331536071927214,-0.00593434798724874,0.0359743116524909
0.0317303987713721,0.0324698325196254,-0.0217417873482452,0.0450486087005383
0.0621966499581494,0.0360100957356105,-0.0310983683723035,0.0504147877649849
0.0758757189372282,0.0452997019914239,-0.0296347568650492,0.0427680785702255
0.0817246860073908,0.0514573776315517,-0.0271242441263291,0.0168583331473013
0.0887938274429926,0.0432904999194902,-0.0298355954691643,-0.0195449192577513
0.102816063299239,0.0233813721910724,-0.0318364693194111,-0.0507061409074337
0.116358746798106,0.00558289614291323,-0.0275929323864312,-0.0655459684821183
0.111673631787469,-0.00360711976544958,-0.0223523882139879,-0.0635236554511573
0.080917800671647,-0.0040587356200898,-0.0216472355012972,-0.0494451338694827
0.0422350175553343,0.00520985483202051,-0.0243628493274308,-0.027849202251369
0.0235095035962877,0.0164514904029817,-0.0279611579302715,-0.00357918208750314
0.0246125836886227,0.0206669881999907,-0.027533118412936,0.0172608740436606
0.02754493101503,0.014460396490862,-0.0213146965415424,0.0296855416218489
0.0294328975470737,-0.00430186151945627,-0.0168433263660386,0.0343305132967203
0.0342098627843086,-0.0281920048273548,-0.0183594409143486,0.0366232974846641
0.0407024391213953,-0.0374050082076167,-0.0217746452677238,0.0404826159802136
0.049327460895061,-0.0250226095854536,-0.0236166593286557,0.0429522965987894
0.0620545631152177,-0.00340463852705691,-0.0234559590607476,0.0352905764469074
0.0743551120618897,0.0155108897924257,-0.0231746222683595,0.0159510125159983
0.0824050647345723,0.0195315546965419,-0.026803213918121,-0.00382158385297615
0.0898899531623035,0.00681017275924813,-0.0329876165285171,-0.015115835931858
0.0924250339283525,-0.00930799045755226,-0.0312586850427493,-0.0206831121003395
0.0824512169805577,-0.026224353892342,-0.0191291172414981,-0.0261768583694244
0.0587636331736564,-0.0434384260493885,-0.00548996894876353,-0.0333919985951838
0.0239930062249027,-0.0520506858992051,0.00488079993057314,-0.0409938542263961
-0.00827962182362537,-0.0493878321459211,0.0122067536740208,-0.0451241864703875
-0.0189065022975062,-0.0382201517274965,0.0152737795968623,-0.0416038783171152
-0.00684210726059244,-0.017895939772412,0.0129476049884717,-0.0290750279650241
0.00991439086556926,0.00968198879726495,0.00863246430097848,-0.0105795203442572
0.0205534808174589,0.0293962598163669,0.00649195235078339,0.00798150000843889
0.0218998618258812,0.0188507525509908,0.00676865923959073,0.0231329605950676
0.0108242181421053,-0.0243421814473076,0.00694913901189357,0.0346146018247376
-0.0101621531225844,-0.0686356257519347,0.0043183652826761,0.041153059237402
-0.0336990649359948,-0.0795811858299834,-0.0016319830081874,0.0434460592132153
-0.0515181043379633,-0.0453924976942067,-0.00968615236455604,0.0470731423085749
-0.0565317948411177,0.00292058006975367,-0.0182618499081755,0.0538849958135533
-0.0442313074906216,0.0120023996868292,-0.0253771541020484,0.0576254301071876
-0.0219789833278324,-0.0168359737546121,-0.0303395892218878,0.0507090046312627
-0.00343404126544659,-0.0407931318757201,-0.0321507243166506,0.0287321920432961
-5.0651476625363e-05,-0.0450696395761174,-0.0292676676235002,-0.00724591426161721
-0.0134364501503697,-0.0371843144845534,-0.0201604993385697,-0.0460845677242502
-0.0285362137209082,-0.0173569038715325,-0.00555186184694653,-0.0715596999578003
-0.0324153319456537,0.0189993931620743,0.0087018920420411,-0.0762417981483466
-0.0209740600869876,0.0663290156494743,0.0169718487163753,-0.0645380597068415
0.00608692955651145,0.10006934119681,0.0151298986866074,-0.0436804554919487
0.0426364222818572,0.0844878192628584,0.00411058579166463,-0.0188030210449816
0.0692396446225367,0.0165017800903674,-0.00683453303406687,0.00441675857172483
0.0631788005680146,-0.0444955590864933,-0.0132713280789432,0.0216661494937616
0.0301131838310188,-0.0551120627766167,-0.0190339179658694,0.0348535371505423
0.000254583199641473,-0.0403898523749773,-0.0269353598468489,0.0470701379894867
-0.0136960933245598,-0.0269389473740715,-0.0325460864737865,0.0536358225537645
-0.0284538614329525,-0.021793339458079,-0.0260152012223146,0.0462735219330173
-0.0570282525640948,-0.0339635747997537,-0.00963767960032539,0.024943370539463
-0.0831725292544877,-0.054231512246092,0.00256730896199359,-0.000778516007129325
-0.0801099463411155,-0.0623532335950393,0.00576179204116101,-0.0201938950259745
-0.0546477682492062,-0.0520863690434708,0.00526611047700714,-0.0285735044110251
-0.0354040780319768,-0.0177294958682396,0.00332428831268943,-0.0271216880869837
-0.0240415337760998,0.0350054025640238,-0.00133200557349157,-0.0197172131428245
-0.00771774799369812,0.0687312743930202,-0.00651206198315815,-0.0106272760697461
0.00814257238058096,0.0621831673691716,-0.0097804335351785,-0.00274798725916455
0.0140049452122011,0.0349723724730994,-0.0121466530286361,0.00326873988341172
0.0176991226823581,0.00481920348916574,-0.0154053204857897,0.00836069312784901
0.0300283685946243,-0.0234203047837872,-0.0192486619743817,0.0127163440924558
0.0522514494091912,-0.0374586138450211,-0.0206639751668241,0.0137299276151101
0.0742388447302506,-0.0277107623444529,-0.0179734387826739,0.00853752270811328
0.0778770470501068,-0.00961159644365736,-0.0144630393589831,-0.00172440643144976
0.0632604043484475,0.00671805988153992,-0.0126713430719167,-0.0122179378823279
0.042761315323174,0.0285769177472913,-0.0133522491352985,-0.0174012477014485
0.0208941254361813,0.0442287308910939,-0.0161987166446658,-0.0154007299591135
0.00565619920341192,0.0392533587454538,-0.0174357237797818,-0.00969370653394654
-0.00593934794203176,0.0217620741679025,-0.0136074479403931,-0.00370026395784059
-0.0227641792008502,0.00601969843007513,-0.00311522258254998,0.00281858838542534
-0.0316078004505441,0.00440562744178201,0.00965329178852771,0.0105051915050292
-0.0210694629429313,0.0146126150987794,0.0180705152242121,0.0178382291284262
-0.00341746833870091,0.0116525874776406,0.0212244212795388,0.022604527577765
0.00703595430877819,-0.00995230278850856,0.0216807751361156,0.0240817483650448
0.0118972705313795,-0.0327000823039848,0.0226092635021309,0.0229211241326622
0.0141766705867927,-0.0505806386529776,0.0237099994769259,0.018010695696206
0.0144467379043799,-0.0624596892775361,0.0220937950681642,0.00640223781394632
0.0162208781354409,-0.063640786327553,0.0198676527947207,-0.0122953929274865
0.0166457138811753,-0.0488902818729297,0.0226765232210953,-0.0337590992342466
0.0126001944793384,-0.0252795627748394,0.0282121072687883,-0.0505433618421169
0.0128247393477515,-0.00820166787763646,0.0260886584322884,-0.057650607502749
0.0189298316964957,0.00101691342176449,0.0168857806927906,-0.0605104028358776
0.0209766563742748,0.00377598985507597,0.0106549491072353,-0.0679326850483667
0.0180624676768333,-0.00175691468428636,0.0077822566130601,-0.0758156136670004
0.0122914949168239,-0.00604921457117479,0.0072490909879246,-0.0723993532969423
0.00243460309187701,-0.00204273685158991,0.00972281113584052,-0.0523943895399526
-0.00942999507973182,-0.00209265462313805,0.0103264091427908,-0.019939160286739
-0.0226455505711562,-0.0120317610410317,0.00908169222535475,0.0156315527829527
-0.0402769783312636,-0.0142683189150498,0.00916488518716885,0.0468899582406919
-0.0572120536504744,-0.00279865300070296,0.00745217578037798,0.0700381071525404
-0.0637978576009655,0.00644638745107144,-0.000176696248722859,0.0812728619519382
-0.065010453108625,0.0110056290495102,-0.00878033321804341,0.0771512810843148
-0.0658967666539443,0.0247333098308587,-0.00709083877308943,0.061072187070847
-0.0623889024883654,0.0461996691386539,0.00522191702027657,0.0454603262334936
-0.0590584115097269,0.0508551891753693,0.0136053535513153,0.0409684428621934
-0.0610430402632282,0.032551414145011,0.0116948225272674,0.0420629136836829
-0.0636114939894442,0.0224217716198293,0.00989479300516248,0.0304826498073901
-0.063302750410216,0.0271555291295743,0.0116692980338812,-0.0024068807404846
-0.0684301474193891,0.0203212618910672,0.0113303971804038,-0.0441599217454713
-0.0786908136713952,0.00610181656497909,0.0096368323893415,-0.0742575968872713
-0.0755773716365717,0.010506372749717,0.00780715185596449,-0.0813462435251999
-0.0589837754190603,0.0263439722229638,0.00272501872733373,-0.0686960186260394
-0.0523430940987067,0.0280728407331893,-0.0029790654509439,-0.0479263436665652
-0.0612808287130911,0.00633118952695961,-0.00378564066080825,-0.028388955177866
-0.0644137504292545,-0.0252793006873959,-0.00149628139096185,-0.0130518156352893
-0.0512538330712385,-0.0214987378060492,0.000736565581550188,-0.00151519238263885
-0.0384912325319223,0.0297135195984113,0.00203424688733008,0.0081756995667776
-0.0366148490360277,0.0690968265121794,0.000964091754254073,0.018456349086473
-0.0310942374705688,0.0604036153825741,-0.00290443374510358,0.0290932984259831
-0.00485674217286172,0.0486476226335582,-0.00719497754717356,0.0378473793996954
0.0409870467708545,0.0658500726319661,-0.00769752223882174,0.0444496071766609
0.0717706499857879,0.0629524104344881,-0.00680582235547551,0.0495786430567372
0.049518109525129,0.0181987643661711,-0.00954586562310043,0.051857897322257
-0.0117102561069483,-0.0182098562496528,-0.0147694255271302,0.0496178732581678
-0.069533085583725,-0.0211179380474871,-0.0189684731616122,0.0431420903798387
-0.0927583635064731,-0.0138579769293497,-0.0181919409494205,0.0341636600177269
-0.0786734942518744,-0.0112236493525692,-0.0113309044165949,0.0249815373317947
-0.0602733414103132,-0.00641019147338648,-0.00150668227110161,0.0175599741181883
-0.0563686054921841,0.00440658539112425,0.00700536661137817,0.0123721262248798
-0.0496653462352162,0.0128794127983952,0.0124205299070147,0.00829184083106483
-0.0312652968063444,0.00707598683312561,0.0163539841485367,0.00397270936242437
-0.0191794543209321,-0.00740582499674141,0.0192182080208343,-0.000819425201010391
-0.0282190931972647,-0.0135445048859272,0.017400914584016,-0.00533327501347299
-0.0393114071077557,-0.00334688523722463,0.0109303867186783,-0.00887313353525264
-0.01995948187983,0.0107473490713495,0.00559199315065645,-0.0112903027698604
0.0267518495239839,0.00468237844369854,0.00542857233823759,-0.0126562694372906
0.0652345489402657,-0.00188981556870181,0.0105876517988663,-0.0125607229972006
0.07197285532765,0.0173422165999576,0.0163110275468018,-0.0106350037719864
0.0508561467116123,0.0243943846104255,0.0178729754187004,-0.00796322131254183
0.0244892424519726,0.000169344378312159,0.0165278839747369,-0.00618269491434419
0.0199057707822123,-0.0229871320560981,0.0160059203608634,-0.00574798052061954
0.0365888525601082,-0.0299458527413106,0.0168908464419332,-0.00607320507150498
0.0464077690764931,-0.0289004805275784,0.0156002032680999,-0.0065619130325023
0.0428025310493224,-0.0257796257833969,0.0109715419181275,-0.00744045526102259
0.0406602019316455,-0.0196090873198109,0.00584542317135244,-0.00923035678224889
0.0520574960566429,-0.00940654983638772,0.00316916356392069,-0.0110825139498475
0.0775951801603292,-0.00355107566600314,0.00596066714893282,-0.0113197234320537
0.0935089997517849,-0.0157553733301808,0.0126897114944679,-0.00982053860999616
0.0766621368395791,-0.0372450960092735,0.0188682430243426,-0.00778746589127503
0.0345316442285536,-0.0467663283208766,0.0255625357909388,-0.00607177512598675
-0.00377104258286697,-0.035026520489337,0.0344859235147944,-0.00514190895845825
-0.0165935467614897,8.59468324460322e-05,0.0406163764020719,-0.0051508117755364
-0.00313281665188287,0.0598932869140959,0.0427723531479693,-0.0059248337557971
0.0184471736449071,0.120149524906723,0.0434019814045672,-0.00718637621695375
0.0334781747954438,0.130294619939384,0.0372465798797184,-0.00834187552918517
0.0467838596175164,0.0782879349825821,0.0181875326941777,-0.00933028962170076
0.060092985897412,0.0122960093256536,-0.00608374276804233,-0.0113977363283797
0.0679040321670794,-0.00755929210891884,-0.0160350000865854,-0.0151893124717321
0.0701159702727381,0.0214658574768839,-0.0034704404791663,-0.0189011856170192
0.0751963600522811,0.0430353741577409,0.017270224937413,-0.0208684898537715
0.0856299200754691,0.0178065365587748,0.0267456027637019,-0.0225040948018306
0.0877092661941297,-0.0242620810924205,0.0219214167991357,-0.0252817869248537
0.0747552031859265,-0.0267433629701112,0.0128315669735718,-0.0272643665731529
0.0530253988790002,0.00603902969332423,0.00773559774958527,-0.0254108571426391
0.0290363134683308,0.025299015718388,0.00881379266328336,-0.0188934618977862
0.00899703916100486,0.0164498887511019,0.0134557747670059,-0.00948881523842443
-0.00239595946395515,0.0186556274111625,0.0178235883798618,-0.000265175936146873
-0.00424698293750793,0.0595542975277991,0.0194841630231745,0.00674441328100508
-0.00228505662174613,0.0964262886458906,0.0168752339014207,0.0114567321065369
-0.00139376202154175,0.0891573675173816,0.0118577343919591,0.0134931937601324
0.0101199658041395,0.0684843261057303,0.00861566619179606,0.0113785283312505
0.031207884285682,0.0595718284065589,0.00722213069579807,0.0033689515045051
0.0411818051602479,0.0416367455521287,0.0029331216971984,-0.0112250372949985
0.0369923121328889,0.0106555462613629,-0.00557845249860434,-0.0287378149862333
0.027263351674912,-0.0103564849828926,-0.0128634507310467,-0.0426054493820269
0.0251418875139723,-0.00227755390496031,-0.0136132258957206,-0.0492149248903701
0.0365600372178472,0.0274601996948402,-0.00831408941545527,-0.0476986257721942
0.0500252040854954,0.0476441058781833,0.000359119067330587,-0.0356686970334147
0.0551940781649504,0.0458223384347179,0.00980393693351245,-0.0111086762413521
0.0451570481724148,0.0376447213602291,0.0143391429416571,0.0235516091950683
0.0177628013697267,0.0384176057435842,0.0131879633077988,0.0614381907646577
-0.0113695266562302,0.0472915341252309,0.0118383110459153,0.0909228577826634
-0.0193106236757718,0.0536849978983763,0.0143761859399189,0.0996807809592466
-0.00985154496100692,0.0565584957808713,0.0201346839712133,0.0873563115078381
-0.00809046595460263,0.0640040653919501,0.0244712812711267,0.0656697343731887
-0.0147310604766655,0.0725466254255101,0.0228356987719214,0.040654302604195
-0.0124795883083621,0.0808276095814072,0.0156755829804095,0.00997126380311063
-0.00561906083516497,0.0906626979562497,0.00930474440814517,-0.0233696455453832
-0.00700734052862288,0.082605526900034,0.00685059650262442,-0.0502381890574234
-0.0165063824476694,0.045947617810308,0.00683805530590966,-0.0638605189267864
-0.0347578142062093,0.00469773668976904,0.00632387966108557,-0.0627393591602009
-0.0557944915725109,-0.0215713501542525,0.00221886297880512,-0.0498551951221416
-0.0651053121527581,-0.0379086613353017,-0.00204131530521303,-0.0306420935200263
-0.0657632650583583,-0.0435990643399532,-0.00227638306545108,-0.0103750407758075
-0.0660177496931413,-0.04105280077532,-0.000650854482655647,0.00710854006986807
-0.0649818625065269,-0.0431168532444395,0.000779784074189754,0.0200503997069505
-0.0703440627096865,-0.0380499029576646,0.00109209936824723,0.0292768751249305
-0.0892429513327991,-0.0181367358466355,-0.00200747736719629,0.0360550563672527
-0.104598876945539,-0.00906142305615312,-0.00655875802730849,0.0397288954250402
-0.100317126128199,-0.0159358891122252,-0.00715259649389438,0.0388102081435403
-0.0892352538373869,-0.0121154289984249,-0.0020083743895178,0.033708402935894
-0.0844940361378813,0.000717475462287107,0.00724041224797277,0.0273309289163613
-0.0787186657607284,-0.00649258302404994,0.0176560211163467,0.0227288172954165
-0.0627277851789365,-0.0287462446262535,0.0267751523171629,0.0209331032160156
-0.0275114842043582,-0.0406988162311513,0.0317057863925434,0.0216170614793736
0.0300787217863563,-0.0464857463208373,0.0294256050005963,0.0235273392012288
0.0854339229423777,-0.0375608720526979,0.0247245515377902,0.0213904445562824
0.10150475022702,0.00663291055784954,0.0260641055013911,0.0100727417603468
0.0581736243421286,0.042277654830969,0.0270321494378339,-0.00579316208803433
-0.0189421082427564,0.0052980495885599,0.0129851222033466,-0.0165911925245598
-0.0748733018995493,-0.0758277619209809,-0.0141771072588407,-0.019737648201569
-0.102258489892164,-0.10758092573344,-0.0374456684279974,-0.0192063600209213
-0.129472054126376,-0.0757483202924236,-0.0453673290029001,-0.0170117182017354
-0.155808352538976,-0.0476743972873313,-0.0402199811076977,-0.0125731049544286
-0.168905014167533,-0.0541158617950681,-0.030790703761219,-0.00809239750206705
-0.165852258800048,-0.0698492064662148,-0.0208323020002378,-0.00660558889386109
-0.145405484001028,-0.0632185694368373,-0.00783523018895247,-0.0066436136961218
-0.113782958330894,-0.0366288150521692,0.00686579994282047,-0.00536710712723179
-0.0787630753818786,-0.0171832451823955,0.0169136481980228,-0.00419962973911012
-0.0290465888526595,-0.0008489724099702,0.0187370293019012,-0.00599042725430185
0.0474864740598111,0.0188995156826099,0.010903169612626,-0.00934067563657903
0.121831320971447,0.00399096862408034,-0.00294814635726959,-0.00984104362541083
0.143340650128956,-0.0382173861548012,-0.0151126666480086,-0.00437855506855133
0.104136127385946,-0.0417369817482313,-0.0267344816454573,0.00728671325183653
0.0466445323797924,-0.023910274128918,-0.040015775788842,0.0195667136155865
0.0014289564730553,-0.052287725513841,-0.0492236227594672,0.0218476427454869
-0.031307788425716,-0.0990290651983486,-0.0499793224089463,0.00926904694803367
-0.052839126050884,-0.109408617665202,-0.043164616851973,-0.0124783050189976
-0.0586179371210684,-0.0983563110099536,-0.0333160770731207,-0.0354049927311016
-0.0460758059120856,-0.0882097600023649,-0.027117816990828,-0.0539981026483147
-0.0208532910265063,-0.0789002805021874,-0.0289684599904491,-0.06183610006785
0.0062176725873432,-0.0794133418466005,-0.0358549696866187,-0.055494383868049
0.0254323678299202,-0.0883813021489786,-0.0422492129229884,-0.0439596716870128
0.0367207951725688,-0.073911550303897,-0.0484611473432376,-0.0408812548149991
0.0502352402112421,-0.0242835599816278,-0.0541368555655696,-0.046727488152203
0.0761789315945819,0.0237972938625465,-0.054059749346701,-0.0483334470792529
0.110149927686273,0.0380388383685725,-0.0467094149845964,-0.034929169703484
0.135969462207084,0.0308912493305783,-0.0348685988023461,-0.00820236619444227
0.140504576029608,0.0280898231492491,-0.0201962773554946,0.0245344722968649
0.12038697567841,0.0199724419080941,-0.00760908006016335,0.0577088526075413
0.0895286293307656,0.00289819313006028,-0.00258366567781993,0.0864195726657625
0.0592735795277752,0.00480588013518475,-0.00296444023376351,0.108679528411167
0.0283245959177666,0.0194183487253222,-0.00610864508172214,0.123663003816821
0.0026327580631486,0.0122863836562122,-0.0118585742169755,0.122390412162846
-0.010245174381818,-0.0159920692187577,-0.0186838331169704,0.0951581426395648
-0.00601476476078434,-0.0355763603521482,-0.0272831410722414,0.0509504319153362
0.0139250701231852,-0.030863780106225,-0.0354899093084291,0.0109122213090854
0.0308320065715372,-0.00045065199928555,-0.0344057447360698,-0.0185461759978891
0.0335513896232394,0.0420559609772975,-0.0231999849581947,-0.0486655220663578
0.0355254276105296,0.0569901422168736,-0.0152233123905496,-0.0851518750193614
0.0475766488999741,0.0275826454178066,-0.0198335920045021,-0.117010016636247
0.0594535891978206,-0.0188175397824923,-0.0320906914707399,-0.129916314080675
0.0542738573840747,-0.0490222350567216,-0.0404827184649291,-0.119977344576371
0.031977775208777,-0.0464238254212302,-0.0366485789149642,-0.0917653518790819
0.00627751397913634,-0.0232047199294205,-0.0241923654257087,-0.0515242469504676
-0.00782501627271139,0.000234433700556348,-0.0118337418339327,-0.0060131582706931
-0.00170423656233033,0.0124173648735949,-0.00370622752935387,0.0377229165516004
0.021997557524465,-0.00457001015351796,-0.00256804072449589,0.0732093967791169
0.0509296073067119,-0.0430268714646733,-0.00523505863312288,0.095104097932135
0.0727831585782812,-0.0654934342119112,-0.00242197631107742,0.102961852220028
0.0812901382724068,-0.0680375722657514,0.00579830444886433,0.101502591221868
0.0745699873697735,-0.0649241877770725,0.0124152269629406,0.0950050639416405
0.0535847126811215,-0.0425822943815203,0.0146660106609712,0.0851723398906754
0.0177049736765765,0.00382930343549846,0.0128620964163142,0.072986265658668
-0.0160972763554,0.0429932055099404,0.0098724972484395,0.0597477174243093
-0.023337989195478,0.0504695657512031,0.00666741484587191,0.0467547750440236
-0.00720537064604742,0.0359089795743814,0.00253994185563915,0.0346357929513778
0.00926120749074992,0.0311577208217696,0.000414217408215659,0.0228394592089005
0.00449481015774312,0.0516214151112327,0.000271391174645323,0.00879109301834671
-0.0166912502474975,0.0781321891568705,-0.00122464267836093,-0.0125711828172261
-0.0119801326597361,0.102235971236712,-0.00152330820162032,-0.0413274067189201
0.0319567601648442,0.109590671495032,0.000346786288502936,-0.065740377112979
0.0587404349604433,0.0674375809479018,-0.00178865149922666,-0.0738100201489748
0.0359969282388942,-0.00287138842639803,-0.00607657896747345,-0.0660293036598373
0.00136043517969159,-0.0422412430681449,-0.00378950489832625,-0.05195843180806
-0.00832083247045821,-0.0357661454665473,0.00401124285177826,-0.039839323847213
0.000449317600530581,-0.0198182983668959,0.00987768909321058,-0.0301895224340384
0.00564126274897864,-0.0206258485927191,0.0121585340966584,-0.018416538262792
0.0070297576267542,-0.0264135135348413,0.0148886930912636,-0.00261552489177108
0.0168581178067925,-0.0262066682124092,0.0150955709128227,0.0125193869423392
0.0299247223437746,-0.0219141882203534,0.00536572099576221,0.0219270003492671
0.0254990457123383,-0.0147122976560418,-0.00775372300158128,0.0279610845372747
-0.00375362517914919,-0.00969416975229569,-0.0134644402270558,0.0341711272771051
-0.0310593348036656,-0.0133189242541839,-0.0121976960146469,0.0339244702988168
-0.0310228936933871,-0.0173966254433802,-0.00698956693909252,0.0167886120753306
-0.0152622963641698,-0.0120160162959525,0.000490787139787906,-0.0147607959499688
-0.0035748651374356,-0.00838440596615062,0.00619897023437901,-0.0448069359006565
-0.00307818135953064,-0.0103102098913443,0.00860044380169741,-0.0588745593662916
-0.010562716978771,-0.00900154316157425,0.00968232019155391,-0.055576166954961
-0.0153430657712813,-0.00215385108675697,0.0108876815046398,-0.0447938835717896
-0.0114631304320845,0.0175037995519371,0.0112311874645622,-0.0360949185591143
-0.000661126055942214,0.0470238608086297,0.00698264767370478,-0.0318691036327442
0.0131816884579721,0.0653185863137607,0.000244500824506257,-0.0295073586829191
0.0276097098178866,0.0594930641881273,-0.00124569069815226,-0.0257136794728783
0.0358102156445131,0.0416154940201868,0.00141307995099036,-0.0188352630646806
0.0279430593549835,0.0365062772474283,0.0033913102728788,-0.00914297412060039
0.00184806957458027,0.0478395928031532,0.00580543816509821,0.00105331889556759
-0.0336996058755727,0.0615417313033458,0.00968899564271565,0.00817425015381956
-0.0556473438784361,0.0609392860932938,0.0119142553073938,0.0100380463961852
-0.0479785554215718,0.0294474798877107,0.00511117483886107,0.00612304398579083
-0.0290584173824656,-0.0177018140329706,-0.00797690600572348,-0.00371983018241038
-0.0237652326916438,-0.0430497618630377,-0.0114639542048147,-0.0159125699096471
-0.0260502150514972,-0.0449822865951457,-0.00316338869794323,-0.0225543892908845
-0.0275269009108767,-0.0526134430688195,0.00236909275647874,-0.0196294550492892
-0.0358415999367157,-0.0726907397372688,0.000628770699411326,-0.0110787879550704
-0.0561203887155867,-0.081235977602733,0.000606699710965904,-0.00273035647337752
-0.0814349173942192,-0.0611442042214194,0.00284915830408296,0.00352295846100875
-0.0886256139728263,-0.0231868416519047,-0.000272414039057794,0.00818930569730808
-0.073714414177321,0.00827025360662925,-0.00949496594419438,0.0102129602345969
-0.061899923325913,0.0116491558246853,-0.0179792540345822,0.00852752493469483
-0.0635176352727708,-0.00654531261604311,-0.0193614948414948,0.00421876208679429
-0.0586290174710656,-0.0172075990184769,-0.0156208523281285,-0.00145971134435317
-0.0318113016197295,-0.00958517426021101,-0.0111592073006667,-0.00733291961356082
-0.0134205924826602,0.0146548090637974,-0.00388376609256121,-0.0110364768681276
-0.0280869380401018,0.0568614166548574,0.00770651916447861,-0.00991654784507316
-0.0491752664538663,0.0942264276924943,0.0167750230980617,-0.00350124414387808
-0.0597205842287226,0.0781922769290589,0.0139340819166259,0.00511112498893535
-0.0657562400647431,0.00938722035804088,0.000491840978339349,0.0115924776609581
-0.0649945975983527,-0.0513849835090838,-0.0136906376739019,0.0139401805907999
-0.0595704743988516,-0.0700206438559316,-0.0202507531480923,0.0129452178543028
-0.0500896924075872,-0.0593084101215349,-0.0169567981483821,0.0104920155120757
-0.0301401755575986,-0.0396366449853041,-0.00799414583418949,0.00790768748685281
-0.00636783140396409,-0.027169009675047,0.00181467971278568,0.00519171725818986
0.0206803182136875,-0.0297822783575395,0.00613820911549394,0.0020577167402962
0.0658638305490414,-0.032515972001437,0.00561030561153493,-0.000724504651524268
0.11694128094814,-0.0190003849989818,0.00675743248463356,-0.0015631870903079
0.131256741771186,0.015556382413254,0.0107410337707166,0.000778457090288912
0.093239949085401,0.0620421862267043,0.0161909437337562,0.00610863548762226
0.0333286531222022,0.0801061660215249,0.0177837426982449,0.0125762547031334
-0.0116018421466325,0.046994905293167,0.0126343790341652,0.0169879730668233
-0.0316691753571918,0.013071591059435,0.0086462675464121,0.0166766086162864
-0.0388320960703862,0.0295377525262043,0.00967063097020909,0.0123568704855969
-0.0413608030770453,0.0553784347139386,0.00818799186682116,0.00718836816803058
-0.041133549394905,0.0469564074394999,0.00271661954694821,0.00314292592340183
-0.0420076670197506,0.0314414323338413,-0.000339714312437248,0.000187444576916088
-0.0427274050606373,0.0250045852664459,0.000640734049532091,-0.00160503568067082
-0.0432980841025034,0.0149336247455143,-0.000478991460512026,-0.0017344271507393
-0.0497739255814976,0.000531732941148243,-0.00820229193349784,-0.00120442583244623
-0.0519603726575313,-0.0109873043112897,-0.0160832232270517,-0.00175337243409822
-0.0341762624471102,-0.0143088005102356,-0.0175649623813735,-0.00368858024735487
-0.00685127890303351,-0.0110744908920505,-0.0148639829559376,-0.00588569350613683
0.0144066639561105,-0.0104468096783798,-0.0122678941338325,-0.00687281464083069
0.0313937850035141,0.00145429920425634,-0.0117098516786559,-0.00608021708934306
0.0523587448399828,0.0400948383538413,-0.0118320372236252,-0.00428296454435795
0.0773706578339057,0.0701268088197082,-0.00971912460436163,-0.00284132661533579
0.0954886329869832,0.0638744526601923,-0.00728566968646591,-0.00300548003363059
0.0948247914610042,0.0390440781097144,-0.00592208531989326,-0.00504024408862287
0.0691474957216818,0.0051712283490897,-0.00224461879956654,-0.0079198109960116
0.0379423613396942,-0.0359013413167861,0.001562881141889,-0.0117500688503104
0.0324350815956843,-0.0642757287467085,0.00326023595098952,-0.0175027195684015
0.0462005788518363,-0.0678353280591527,0.00695761100136527,-0.0227258300449353
0.0572610995986211,-0.0535901972480511,0.0142235500868386,-0.0223749010362491
0.0683713833578981,-0.0228977674273945,0.0227525967426353,-0.0142170826688722
0.0785856066054739,0.02698327809041,0.027948756663274,-0.0010950909672646
0.0741217867836441,0.082026989235325,0.0245123526507161,0.012021707858369
0.0560480105242194,0.111368196047016,0.0145041457919347,0.0222446305111464
0.0369119794889538,0.0851615232796483,0.00384496024026271,0.0291385279268218
0.0274258377124404,0.0135586312443391,-0.00808087413978044,0.0319308533966677
0.0266383623349317,-0.060763420130638,-0.0179553469874377,0.0288593001313224
0.0260681772290422,-0.105720380215865,-0.0148111794226868,0.0211708785044016
0.0174642875888604,-0.0992657410362475,0.00257871552848845,0.0148537576564462
-0.0107117656312713,-0.0384559615004907,0.0224094858592459,0.0152359153893165
-0.0563273691645552,0.0442942234258086,0.0314545440960399,0.0189952445691837
-0.0930782329562576,0.0810706225614165,0.0249450562949823,0.0140975373524608
-0.0963882974830574,0.0480790566455034,0.0120638479423914,-0.00579825880055363
-0.0753298113692348,0.00591166593038341,0.0047221050894212,-0.031624202759974
-0.0561689237075903,-0.00678165158919536,0.00268303801895938,-0.049619667954028
-0.0453532446497277,0.00014089537518279,0.00348536862300911,-0.0537282503151582
-0.034921168756244,0.0206258204229548,0.00939621842276916,-0.0452985645573553
-0.0252436668081871,0.0456364895469109,0.0193014688081692,-0.029417370410777
-0.0214717094864278,0.0539001072233281,0.0257775429814771,-0.012429700573882
-0.0209681372053304,0.034705871781684,0.0240524582545496,0.00224377791385487
-0.0202216203820857,-0.0011235787797987,0.018645339787991,0.016200683570203
-0.0079200405759078,-0.0268807396715765,0.0147150994912958,0.0314366053395298
0.0236549786429379,-0.0268388369175757,0.0138522757298902,0.045163297711279
0.0536865997045052,-0.0169713468537949,0.0179342404774575,0.050595066783346
0.069421793293481,-0.0191791503352608,0.0278213089396402,0.0435665205439006
0.0743302866797389,-0.0262926421827954,0.0405230676586653,0.0292917699574327
0.0652530934573481,-0.0189179422142937,0.0497473454032686,0.0166324585350093
0.0504326992355719,-0.00486700654403998,0.0515727880615418,0.00588804959912049
0.0395467529629168,0.00284801260929536,0.0501415282220217,-0.00777878410769891
0.0246089684072888,0.0099726614408618,0.0493630079239337,-0.0208475979895329
0.00827666564802494,0.0161410432379032,0.0500053114155202,-0.0226823533872682
0.00817508986722693,0.00979661536275739,0.0538612941445505,-0.00871862984190809
0.0221745489208372,-0.00260988229098543,0.057363187897536,0.0150469818400793
0.035227514727391,-0.00595653233082954,0.0543120134407756,0.0399307756339553
0.0367553819067545,-0.00531122644963519,0.0432869891347925,0.0587858933542099
0.0218580642419056,-0.00460466488630712,0.0278386894835506,0.062510325741748
-0.00242459738174931,0.00553067403832485,0.0155106359618151,0.0461126059101769
-0.0248048914247759,0.0239598898082679,0.0110018644813947,0.0174008947346097
-0.040428814007255,0.0348381601801205,0.00903609623787256,-0.0104528130847293
-0.0500831004395287,0.027966231261271,0.00217373851365809,-0.0307381335243834
-0.0545895062491151,0.00453412124865726,-0.0105372664647209,-0.043387531336022
-0.0544816233727786,-0.0211586161122289,-0.0219187354575318,-0.0484685102981095
-0.0512344857206931,-0.0300834117887217,-0.0213277829633381,-0.0448530475219128
-0.0462316139180408,-0.0212413151802627,-0.00848836952303892,-0.0327005431111459
-0.0446496918364553,-0.0083362328761728,0.0063611336613861,-0.0130998129536327
-0.0484831525806381,-0.00236907709657085,0.0157921346042762,0.0114541332150793
-0.0463149785319088,-0.00554576330642319,0.021220587469438,0.0350950600203979
-0.0303201254770781,-0.0150538838448378,0.0227362310729023,0.0509237472037483
-0.0105387689447959,-0.0344692895890485,0.0145875465082726,0.0550134087637902
0.00361113407255892,-0.0578237382817733,0.00057717402375803,0.0466658922202904
0.015819964442983,-0.0539159057881698,-0.00641047155024194,0.0288231519363928
0.0255994014328278,-0.0155361900642279,-0.00334027095520103,0.00925456032196062
0.0285312560483425,0.0254309326058126,0.000720381721587553,-0.00414192225962113
0.028109766371088,0.033786524546583,0.00199509730443601,-0.00927210720327303
0.0235013089742822,0.0047434858449197,0.00295202624440884,-0.00846169929934726
0.0164342865354432,-0.0302744070763146,0.00166021304395631,-0.00414752601602575
0.0190225017469407,-0.0474096629266135,-0.00230999228595594,0.000767153180958807
0.0262094713086535,-0.0450847962004882,-0.00813715571852682,0.00157808008463431
0.0191693530737309,-0.0278518019441185,-0.015759255578779,-0.00448512283373791
-0.00353707441742855,0.00134809709248694,-0.0221540355890457,-0.0144880168029858
-0.0264186232352441,0.0245810243627961,-0.0258765779332324,-0.0213441182962605
-0.0337999099813442,0.00932394224336384,-0.029879110356692,-0.0194870634825902
-0.0184182373690376,-0.0404745959683125,-0.034592654304854,-0.00935528598251659
0.00516091941050371,-0.0734277504661684,-0.0363378117495545,0.00332813479966718
0.00642577871506087,-0.057942829845276,-0.0339864704300206,0.0118143917222866
-0.0186284731791236,-0.0171495398714236,-0.028714064031276,0.0123389323741431
-0.046311742057833,0.0199565447356821,-0.0247923586035599,0.00575276177411006
-0.0608338861469506,0.0430551188309633,-0.025425291888331,-0.00310130531550268
-0.0561402372070271,0.0438411982987651,-0.027635571272269,-0.0084932816075847
-0.0333206387795025,0.0222986383359209,-0.0316271542554051,-0.00768835970937508
-0.00654135335460142,-0.00658340598424459,-0.0385510200414011,-0.00462659428186655
0.010255750390603,-0.0156929846658464,-0.0409720952382202,-0.00996762321913723
0.0146701211366726,0.00230237101386176,-0.0326249952493469,-0.0293289083965393
0.0128425579303329,0.0151937850602903,-0.0198241363276896,-0.0536858191238036
0.00564921468938459,0.0126611402405223,-0.0112820866009719,-0.0687425234022149
-0.00609475980258352,0.0273026667114414,-0.00618307605187691,-0.0670552737415483
-0.00796942866130037,0.0690749146973417,-0.00115985559698626,-0.0511939970154754
0.00207740738931426,0.0940858921402683,0.00311781104817246,-0.0301091478346531
0.0111480198209033,0.0777136268201351,0.00500722771134593,-0.0112109714282427
0.0194528668160836,0.0493958547336819,0.00499230410146362,0.00375556878680242
0.0273149398676206,0.0269123392963862,0.0040928074384183,0.0161206603532402
0.029784279176597,0.0152328201120394,0.0013765869745127,0.0245980014207673
0.0279764120690489,0.0254754712044569,-0.00436506856743636,0.0259072590073654
0.0193035882148096,0.0492638334831446,-0.0089218868840719,0.0222885645201757
0.0094735458721305,0.0645351287204721,-0.0079039120963287,0.0216775045445903
0.0146467758900796,0.0606243426344377,-0.00561527212146128,0.0277138724566717
0.0375708369890744,0.0384110136903876,-0.00761383557612431,0.0327126906696632
0.0616772329375855,0.0137997688828081,-0.0115165124439262,0.0247882034101118
0.0662482783351101,0.010309228413202,-0.0113148862380864,0.00275058678509872
0.0499300845525023,0.0223304435537388,-0.00755966505591492,-0.0217563635000513
0.0295475165280514,0.0286068903216832,-0.00526498609399336,-0.0370638206211122
0.0185198957370497,0.0287616088123608,-0.00569363584255881,-0.0394834577641003
0.017518944725651,0.0297725851129283,-0.00550757475197233,-0.0328543188914754
0.0200090463080504,0.0297461893009173,-0.00324360525557802,-0.0255594498288378
0.0194307285293776,0.0299624272910462,-0.000651539800072063,-0.0209723780461244
0.0143824907818413,0.0297074501395558,0.00103486455763725,-0.0139657457447238
0.00879801385197443,0.0275760053378811,-0.000586621009277078,-0.00267428595721463
0.00377436620369274,0.0296790993960425,-0.00280153410858221,0.00647465724083538
0.00515588678979028,0.0174059306211353,-0.00360499630690604,0.00741760662667449
0.0112114784441584,-0.021255641872789,-0.00624265960022705,0.000192892006983319
-0.00371160191700034,-0.0435752720114007,-0.00412436210149754,-0.00920189484885945
-0.0430565762113183,-0.0276121531539282,0.00654024880484685,-0.0116373185937076
-0.0758702592990504,-0.00977639148033102,0.0135429767947098,-0.00340838787681397
-0.0883323163320824,-0.0189188441603467,0.00971542507492597,0.00818152791872382
-0.0934231302707899,-0.045887220383921,0.00141471742694075,0.0144466428376456
-0.0898089155363703,-0.0566215846520478,-0.00500763030380193,0.0171799935504469
-0.0673430384011676,-0.0376015239946579,-0.00786174824849358,0.0227131745643141
-0.0437069599918213,-0.0198117708088405,-0.00733743143739197,0.0298130254571268
-0.0282944111074143,-0.0163399161932124,-0.00463418081039123,0.0335381621060277
0.00151370286061622,-0.00731573558584239,-0.00556909259643747,0.0347708726191221
0.0407845279178253,0.00492868609975476,-0.0130093782234177,0.0365045115133758
0.0538642822428765,0.00504359533928746,-0.0216303815490726,0.0367055962433006
0.0392203017533637,-0.00383039506720252,-0.0262741013035741,0.030347418839802
0.0217978218815713,-0.019177479433397,-0.0248838290168495,0.0159805718464012
0.0123812781029629,-0.0447346446017686,-0.0185069517310655,-0.000493887435881649
0.0230789626151908,-0.0623111658326895,-0.0109927680681413,-0.0113918842042512
0.0589547515009503,-0.0382491959907598,-0.00579415878303295,-0.0195431813384253
0.0843412627076491,0.0180304845163471,-0.00344030623116393,-0.0353930266362549
0.059576289869614,0.0573826918240843,-0.00248789553506865,-0.0579308963548446
-0.0141416952917466,0.0612638350664078,0.000438028028656206,-0.0736763463288993
-0.094233316007617,0.0441484439069931,0.0102318775061197,-0.0759986215232648
-0.132340544748637,0.0240946696889194,0.0229220298802162,-0.0712800752641362
-0.124857585621543,0.00879210587559773,0.0264292774306803,-0.0635155214813025
-0.0944886289986833,0.000910675344103953,0.0189908566289309,-0.0468532671286983
-0.0545375163328105,-0.00880086474132243,0.00510119159734546,-0.0179904709142983
-0.0323828078097542,-0.0479441814089549,-0.0117703798244151,0.0163786787351266
-0.0420185373546448,-0.102192635086105,-0.0253646809956729,0.0438477929326055
-0.0473301581407841,-0.122895433678197,-0.0302303151632137,0.055352238981446
-0.0328936153212826,-0.105935701580274,-0.0247625635132194,0.0553968934760058
-0.0299769482689909,-0.0758462675742814,-0.0129614899214508,0.0557544077930208
-0.0498516646027493,-0.042075972813895,-0.000629832929030688,0.0578461280170253
-0.0609762051459436,-0.0126752761887337,0.00873113808505584,0.0531482467833238
-0.0428030447414174,0.00360429810985935,0.0113442099802114,0.0401810985605451
-0.0169787169702961,0.015765041698921,0.00738615805152628,0.0328891437793093
-0.00170048762499934,0.037186972369627,0.000693473460784248,0.0415657090851017
0.0131185876079743,0.0609935508220699,-0.00447204776725739,0.0506559005503495
0.0380716797501012,0.0711879098393556,-0.00341150311114389,0.0363890127534257
0.0657136705464575,0.0600839617980921,0.00110380418317894,-0.000468574503968144
0.0817895609463609,0.0313132399971785,0.00219825269874442,-0.0361712554700192
0.0793004760083317,-0.000414671137357339,0.00117984813126208,-0.0512162132138362
0.0646418771621863,-0.0171380426479807,0.001642432703756,-0.046591994131696
0.0566348547213664,-0.0137574864147768,0.00291004349320644,-0.0369142066574808
0.0643723334735401,-0.00839424523850674,0.00406475373062884,-0.0315004589868322
0.0655537728252527,-0.0176175522295326,0.00365637485256556,-0.0276691753011008
0.036302101036385,-0.0269717101956163,0.00233882003373454,-0.0226128174945154
-0.00317982921148281,-0.0162716931605432,0.0005282181931525,-0.0177449714612786
-0.0211831327655374,0.00670722380811031,-0.00404664047240298,-0.0117881221772266
-0.0134398908661998,0.0156623987455009,-0.0121976645457341,-0.00112402035684231
0.00715746830389855,-0.00148095301535484,-0.019489963731511,0.014254569183527
0.023839388776205,-0.032386297184338,-0.017098894817687,0.0306880120820291
0.0316757888941825,-0.0578644962106811,-0.00208400009029371,0.044811685380946
0.0340197178933924,-0.0735119159002794,0.0190130644862696,0.0550289354031057
0.0313262714103896,-0.0963654017725854,0.033335519267377,0.0606455545010452
0.0242612656313,-0.107895019263002,0.0352194419637935,0.0612039527075365
0.0145886305136659,-0.0648028033740895,0.0326852825249091,0.0567705507052172
0.00394364414534469,-0.00294007624255962,0.0284942100737805,0.0484067961307326
-0.00787544783002445,0.0134078098174324,0.0199965817226851,0.0375955206216612
-0.0230043928539266,-0.0129062649362553,0.00934425006290247,0.0245762466363129
-0.0438324429145741,-0.0419514833890492,-0.00214899925030945,0.00974973899590112
-0.0688785938341214,-0.0532566474954173,-0.0111377065718128,-0.00363098240285685
-0.0853137163632281,-0.063451113931058,-0.0129070249344659,-0.0115442335162034
-0.0828621610871467,-0.081397186186604,-0.00985538329686708,-0.0133217438113769
-0.0695105398701386,-0.0852248642862659,-0.00639133598676693,-0.013019837782874
-0.0509521301858063,-0.0641571365586432,-0.00199808524004646,-0.0153900259575207
-0.028626506589406,-0.0295049353199363,0.00310961878671728,-0.020333736604769
-0.00871232572045336,0.0105228399554248,0.00558716200357399,-0.0236031523665473
0.0156675712377124,0.0438840699896675,0.00277243011531492,-0.0212121589983756
0.0441244780799805,0.0479962328741473,-0.00519512923320799,-0.0130994388856168
0.0672148916748014,0.029800892894728,-0.0114168584405634,-0.00289233794111331
0.0972989581906689,0.0312461909905384,-0.0121178929414596,0.00647599821082449
0.129363753111501,0.0625476210260574,-0.0105850873318811,0.0135589875104499
0.129923383298072,0.0876862939218828,-0.00727021425466152,0.0157871993789155
0.0917715060915599,0.0674983008850907,-0.00153123177606018,0.0100677242679353
0.0358887247692287,0.00205844119225887,0.00260128555828354,-0.00354167406433842
-0.0112115376415462,-0.0518151288770072,0.00185321233756707,-0.0194187475245885
-0.0361576866887501,-0.0453348220452709,0.00396969755049975,-0.030487565736544
-0.0483463765771757,-0.0044643910903852,0.0120475644049134,-0.036200021996782
-0.056373727444369,0.0078007430686753,0.0177818551482691,-0.0411544745415792
-0.0627280252454008,-0.0196918064454327,0.0154141306262603,-0.0459325044324227
-0.0638130476092184,-0.0433236525099004,0.00350680065286673,-0.0485404445938821
-0.0475200804337276,-0.0305126879027059,-0.0117101657630119,-0.0510088913648332
-0.0153603504018282,0.010661999898383,-0.0219520883807451,-0.0534198727617754
0.0122817403144714,0.0495463936213031,-0.0271242047179415,-0.0490645913197004
0.0226510178055108,0.0676553487963051,-0.029369354799486,-0.0352450269778857
0.0164970946216271,0.0723222633177239,-0.0275403797688433,-0.0191357116924321
0.00508247166796982,0.0770104994003167,-0.0217952026296841,-0.00658822467469776
0.00183543391378305,0.0810890764854856,-0.0130171434012057,0.0043671156013175
0.00215900628156257,0.0782278701662929,-0.0018168273412746,0.0164896982566169
0.00132008468376461,0.0646448673053039,0.00850784854351643,0.0275295181528804
-0.00251825673830257,0.0423025408964696,0.0145749328168991,0.0326914091652597
-0.0140277599659112,0.0262664461792643,0.0149946769459491,0.0288088616515874
-0.0227252558683924,0.0269617506144449,0.00998884736199235,0.0154961044513555
-0.019267597370678,0.0363132799967137,0.00288257466209537,-0.0022188148618
-0.00909109154354549,0.0487674512554514,-0.00214576476830218,-0.0149941544818672
0.00431740492448053,0.0631857158288931,-0.00437876993677168,-0.0179136963507986
0.0210158450412335,0.0661937671086943,-0.00512042531678219,-0.0129242841631577
0.0390572072530215,0.053257308958054,-0.0057390944616038,-0.0048275654263503
0.0537758474899117,0.0388692138792103,-0.00886480978337162,-0.000315048837245226
0.0554943013154331,0.0290144999726929,-0.0146023232906463,-0.00443538432348064
0.0454494446777927,0.0176758710805682,-0.0201719549179513,-0.0143885251330256
0.0372938447332952,0.00234275300014535,-0.0257643579400761,-0.0222154049994117
0.0244477843917344,-0.0149116000058301,-0.0287761333222703,-0.0221978622922406
-0.0106691530918519,-0.0268301372649355,-0.0231866444486013,-0.010994203937128
-0.0492554010785594,-0.0294214719206642,-0.0107777982052566,0.0124187569449878
-0.0571514852290705,-0.0362401273798243,-0.00320353254908106,0.0411054863637487
-0.0398388755955347,-0.0484144268960071,-0.00562833095024211,0.059464163301399
-0.0216204157366522,-0.0509555179358451,-0.00934840234799392,0.0538491889702724
-0.00791997810967821,-0.0527070177257913,-0.00811206770036101,0.0261184730135203
-0.00178324580092225,-0.0696844089488927,-0.00442908468606885,-0.00687747827439893
-0.0151109260043296,-0.0996897643962142,-0.000302254907776271,-0.0293077032860527
-0.0422064550671984,-0.123433822301833,0.00466935366516455,-0.0370128011890469
-0.0668670750339303,-0.109183576229657,0.00696648985514364,-0.0347279790581653
-0.0869175742224929,-0.0534428372991072,0.00634872018730576,-0.0283673090432288
-0.104641210166394,0.00164842185175901,0.00722562722129633,-0.018526815075898
-0.126473591024326,0.016736835556123,0.00904659765281591,-0.00337955111733314
-0.144691312291533,-0.0185493746365403,0.00719911355401884,0.0137220997089406
-0.122299004581414,-0.077380224747499,0.00126445325476267,0.0265408689019686
-0.0456487971729737,-0.105956848076463,-0.00102435422663184,0.0335064741451518
0.0357765335907049,-0.0873337251737757,0.000846424046147994,0.0376801272393621
0.0563827576052269,-0.0390627188856412,-0.00271255212153193,0.0406593963681404
0.0135104751143624,0.0237153611862568,-0.0145988975975166,0.0409545427494063
-0.0279414257005032,0.0740560574287522,-0.0257735019844366,0.0371213119210335
-0.0205943379792376,0.0951591130535367,-0.0273937252868707,0.0289608461243342
0.00321228201414649,0.0662344307713705,-0.0238508354015605,0.0175008882969982
-0.00175659434751627,-0.0341132207035691,-0.0207041135530832,0.00554753030067151
-0.012532703745752,-0.128745050178436,-0.0146773030608946,-0.0036458987162728
0.00695470013538591,-0.12565964311349,-0.00983480967009348,-0.00913722633677628
0.0483106607842446,-0.0757125406463755,-0.0144297058343451,-0.0119004924877213
0.0795678158866365,-0.0603643467189109,-0.0197271614496074,-0.0122368625737562
0.0716152537362915,-0.0582600812476515,-0.0112812482141059,-0.0111892875229691
0.0319012286755277,-0.0362508662331115,0.0104424518001287,-0.0116189282951924
-0.00105863168719733,0.000129943975630862,0.0307308314922027,-0.0136556167689902
-0.0107079923661085,0.039230524470229,0.0359937638371559,-0.014943417805632
-0.00897466201748408,0.0665191944586923,0.0312901889492537,-0.0154740451110865
-0.00634256854088325,0.0820071426083289,0.0277705778673414,-0.016004987706478
-0.00152163762714913,0.0891741995530718,0.0231748068902993,-0.014466677518788
0.00903477476162795,0.0975995966697301,0.0143419522093783,-0.00933835872795463
0.0152758753490449,0.103723630751998,0.00584783552346056,-0.0044090143454985
0.00639165692286509,0.083105975893733,0.00218885234358149,-0.00460084566135913
-0.00844211127169596,0.0459381866686542,0.00231297509727791,-0.00985966928645211
-0.0120156988042208,0.0184430665484122,0.00100910417623112,-0.0161417906814873
-4.45927484672842e-05,0.00752511122514292,-0.000187912151295131,-0.0190739515598176
0.0228797707939008,0.00738894090128654,0.00294069011705519,-0.016122530194153
0.0533454090737931,0.00737141269465447,0.00944495374111389,-0.00798519424658127
0.08283810291389,0.00730001056901177,0.0163796184329809,0.00191326490319108
0.112741487059246,0.0207949013779345,0.0185330100877771,0.00990672024239805
0.153196036487023,0.0483754199300448,0.0127576791976839,0.0129685511854178
0.18963756709331,0.0616707100728558,0.000595165623144045,0.00998130590508883
0.197891941996489,0.0517493430436443,-0.0112328272481447,0.00388863801929875
0.173724554174711,0.055305234847279,-0.014266261019775,-0.000873445783972015
0.128818409753245,0.0865437122927867,-0.00620233728469747,-0.00250950134916254
0.0880650566414452,0.112160127734967,0.00549971639437198,-0.00192934936770076
0.0636152271452323,0.111465277214698,0.0119870894035199,-0.000973485250652131
0.0428478691112693,0.0936064164986334,0.0131683230815125,-0.000197084308760759
0.0205836837646971,0.073451542726227,0.0101093726213793,0.00233469285083729
0.00678390207745975,0.0603700675799373,0.00575097779165066,0.00839698493698666
0.00628259451833445,0.0524643721960242,0.00539176254665532,0.0160308669705194
0.00673317600030573,0.0447792919979958,0.00621124696322102,0.0194885634468463
-0.00356825051642044,0.0412131619445503,0.00479385871479897,0.0145035504161044
-0.0215739622483263,0.040822859382579,0.00183506060569846,0.00381230014469511
-0.0374509362406892,0.0329895181015999,-0.00394411225011641,-0.0058078962413932
-0.0404577712853106,0.0209683401241613,-0.0106900635607598,-0.0103885604474284
-0.0270049204188731,0.0104656211449812,-0.0155569313786748,-0.0105492148578956
-0.00698640008109278,-0.00488040611225489,-0.0183206067191961,-0.0109821811320052
0.00790179463807292,-0.0206787639427214,-0.01722174161336,-0.0164256658064651
0.0125222520678277,-0.0241888295451173,-0.0129657505631642,-0.0244716158265972
0.00855524430431821,-0.0184654163713912,-0.00795711319344523,-0.0275744526000568
0.00418075259838085,-0.0190403006200471,-0.00724661415511677,-0.021619397668338
0.000686357295076837,-0.0289772836647689,-0.0126532072378152,-0.00914148806675137
-0.00188154430489923,-0.0339968070415119,-0.0159612899088528,0.00238742908487709
-0.00585284663044966,-0.0281450896380642,-0.0149777103238912,0.00656549550589918
-0.0214840122200805,-0.0249226049026768,-0.0160154465264714,0.00484447262332224
-0.0393548521607302,-0.0258623677754394,-0.0189427252348901,0.00342822590299241
-0.0397696120803038,-0.0212540786504749,-0.0183901385226459,0.0056960313054301
-0.0294119814485424,-0.0193922383192957,-0.0160466622070325,0.0112450688798439
-0.0275449210894997,-0.0343779835649901,-0.0170878987011676,0.0180933677653256
-0.0355151483635145,-0.0555383697172262,-0.0186974283502703,0.02303103504227
-0.0456817324306734,-0.059211425801827,-0.0168077895821294,0.0197568007750806
-0.0541207155613119,-0.0416752373641565,-0.0135134015158967,0.00338927823857621
-0.0605722324500926,-0.0122179151071308,-0.0137252282118695,-0.0195967375714731
-0.0658407621756358,0.0122252660039362,-0.0182173995048833,-0.0356173091893953
-0.0643105719359252,0.0147438939191189,-0.0219294499212088,-0.0362037532092079
-0.0636300980423669,-0.00314627942748563,-0.0224539667726948,-0.0204439519896251
-0.0848225635718919,-0.025615708896862,-0.0200965626520833,0.00410016349604267
-0.116126638797222,-0.0268975831120528,-0.0151497662946333,0.0232540397795087
-0.124463161153463,0.00809054083972498,-0.00952253550431248,0.0293080747618416
-0.100902302194721,0.0418509487981159,-0.00611536552525919,0.0272609297675231
-0.052574395570009,0.0344750934260675,-0.00648498544673393,0.0248943892939055
0.00637341108393756,-0.00184750357125792,-0.00875299662873065,0.0250346730690285
0.0362453440038071,-0.0445388095604759,-0.010033192682382,0.0293304224536148
0.0146071071987921,-0.071424321181968,-0.0100394262123792,0.0381327626262434
-0.023292106761134,-0.0681875415873904,-0.00984792334386515,0.0421754904122131
-0.0413215214443947,-0.0415841667054957,-0.00886551033935642,0.0275952777583238
-0.0299215843283026,0.00615188827196929,-0.00417554779691994,-0.00463070748082142
-0.000177444838672558,0.0543121306677143,0.00441909582415608,-0.0352961836136671
0.0222180080170124,0.0502072325992028,0.010516022831466,-0.0486642124682194
0.0305215781172565,0.0026863560991001,0.0112178797508595,-0.0457987469018764
0.0281388061123509,-0.0202926842721927,0.0122180370804014,-0.0345345831632622
0.012068239129828,-0.012165254419856,0.0156404216797429,-0.0206637361573464
-0.0102714675484434,-0.00773912732625589,0.0179298835688169,-0.00700087534504264
-0.0231365796651927,-0.00744164616137673,0.0167361991057193,0.00771037549266353
-0.0236343187174932,-6.82636513436152e-05,0.0138023090824378,0.025545748290312
-0.0196124165446224,0.011514675272052,0.0130146624058324,0.0441657895074339
-0.0148573489029142,0.0255636649613449,0.0152481393619692,0.0569345975701503
-0.0100558934174801,0.0390603881134885,0.0194934597529661,0.0586944542108827
-0.00117531344164638,0.0384377627392768,0.0232635548252041,0.0506993237194016
0.0116196483420229,0.0211441560620452,0.0230685981737721,0.0379970935885603
0.0208678530578024,0.000342088831020423,0.019243735539612,0.0247559779606198
0.0276329483752541,-0.0101620329022024,0.0142867948003055,0.014478639117372
0.0365673513941963,-0.0021805971227116,0.009721037527446,0.00996775095607402
0.0464125863128096,0.0147651917723367,0.00585037069528497,0.0114605808211682
0.0492066725782098,0.022811217517015,0.00341925038443961,0.0172553206763529
0.0395655193163255,0.0199948773764953,0.00631675705793222,0.0219336174987988
0.0267625166129164,0.0159553411238337,0.0128595808784004,0.0151581298914771
0.0211919692261585,0.0142614014207763,0.016826693591552,-0.00820955356713601
0.018974287428355,0.0122883212079488,0.0179960505219603,-0.0390053095906227
0.0111444772155775,0.0106790723627571,0.0189233805460702,-0.0620381030242981
-0.00124315722131632,0.0100449079302305,0.0208302905978337,-0.0689241677851482
-0.00732413134686347,0.0096054245693981,0.024858071599622,-0.0601306375443633
0.000720525411535715,0.00830350499140522,0.0294274283366507,-0.0414384535004726
0.0147260916966543,0.00533137832777092,0.0311712027236805,-0.0196678690258071
0.0208903967989324,0.00231189888994631,0.0294596343064874,0.000312532027704773
0.0174773245678834,0.000511658527741321,0.0265967372613879,0.0147999053721134
0.0110088374080329,-0.00325803890393229,0.0248748492553575,0.0214129981877873
0.00945473426819573,-0.0156600881949505,0.0231747057083319,0.0221408296905926
0.0145737693469177,-0.0340713937925223,0.0219647274282557,0.0231896226112393
0.0185441456806015,-0.0469537537620609,0.022144282667453,0.0291032935096197
0.0144613163769655,-0.0494158814810374,0.0215874739515783,0.03456068963265
0.00293261918079781,-0.0465794712270582,0.0195702348460328,0.0259950787741512
-0.0107102553308466,-0.0466935554863171,0.0127735193458945,-0.00181559327716388
-0.0210836575777128,-0.0513782607571856,-0.00701460833736856,-0.037322870674498
-0.0267795469799728,-0.0557233972148092,-0.037355193526263,-0.0633984083155281
-0.0326499440874706,-0.0578472704984133,-0.0575510226204964,-0.0717183963343559
-0.0456922316347828,-0.0529148988805127,-0.0527645250905002,-0.0645429311476272
-0.0614735687730313,-0.0391368921693737,-0.0310503794709995,-0.0450387192331325
-0.0760697419480427,-0.0237622510082019,-0.0062937302536472,-0.0141337658693507
-0.0939996853878751,-0.00781822677794328,0.0130551445065332,0.0204359890007197
-0.105430675085715,0.0122731844088785,0.0221674405092209,0.0416795914746858
-0.0954604755441125,0.0284629142737284,0.024285397037221,0.0389485721618983
-0.0682881253889842,0.0121232188119595,0.0255870601661195,0.0209304944790673
-0.0398589498154037,-0.0338262903550318,0.0257689916750778,0.00513197420252118
-0.019054723163031,-0.063100510350022,0.0240138310173957,-0.000576932241360212
-0.00363580103481378,-0.0654781435951292,0.0233011915035804,-0.00293807950904235
0.0129762609206261,-0.0585412812189443,0.0235183445914456,-0.0131270607897226
0.0330958697381102,-0.0405373616257346,0.0233736743409228,-0.0304462459619796
0.0569682592197623,-0.00661877085265584,0.0245339249015583,-0.0408715420737668
0.0897073961607751,0.0255301904116291,0.0266284231211872,-0.0344929212503202
0.129660552193962,0.0254081665456379,0.0273190923870269,-0.0165661454026552
0.150291056197549,-0.00515248813910722,0.0274983896967455,0.00109657077871243
0.116907830105852,-0.0364556783264306,0.0280088546730346,0.0131163675923303
0.0338213044439971,-0.0546882357589748,0.0233172011816464,0.0205988485660183
-0.057948662417464,-0.0513920013801713,0.00852955006440993,0.0240847378813265
-0.124651279878078,-0.0190587027678061,-0.0121806609589113,0.0233570917724898
-0.15248406963159,0.0201837905203178,-0.0274695367351826,0.0203788806290693
-0.147465288372984,0.0329081147543225,-0.0315045641305194,0.0178159556531408
-0.128027916976326,0.0138245245334307,-0.0291356431717041,0.0164568975012792
-0.103255432509816,-0.00792207430544044,-0.0249124064072075,0.0152176836767093
-0.0683777495680477,0.00392669964563403,-0.0209891627351176,0.0130229238117922
-0.0194700670365427,0.0456807483977186,-0.019158803875671,0.0101704625664352
0.0321819735373138,0.0690614292025563,-0.0202014066943235,0.00791579666833019
0.0702839006016482,0.0475447462658316,-0.0195869326445694,0.00684763692330628
0.0900095534134455,0.0041446293487185,-0.0133164785059399,0.00703099645543999
0.0912520229330457,-0.035280083868387,-0.00532021633130226,0.00998844127205896
0.077894882678553,-0.0547985516951663,0.000460546707735342,0.016327043791992
0.0593058082287956,-0.0465233136167038,0.00367003112253171,0.022622509240202
0.0418056050717861,-0.0229623031781043,0.00827412053536921,0.0245958119989821
0.0301471439236075,0.00968555991341441,0.0172061351328854,0.0200352592271212
0.0279147024936139,0.0478410673524568,0.0250935516837752,0.00941059750427123
0.0328826876721213,0.068795354523854,0.0223215888549281,-0.00342777836227237
0.0365036194904129,0.0662626743569518,0.0111967232224849,-0.0142106101579359
0.0354888964261551,0.04990923116905,0.00398039201538176,-0.0209106164132459
0.0374359286795009,0.0248735285820342,0.00117325270671067,-0.0224707148563918
0.0443431637787899,0.0023056031094784,-0.00434032828793021,-0.0187627090935188
0.0488969261409038,-0.0122317078701161,-0.012091385619221,-0.012372803048445
0.0409204292564115,-0.0222444550448717,-0.015333016156469,-0.00761707866322793
0.0202051118531466,-0.0322201018188834,-0.0128410508040394,-0.0062146184016093
0.000469119980136379,-0.0442275614947724,-0.0128248430538267,-0.00649130764060851
-0.0182301275798765,-0.0481196522046128,-0.0182739563370789,-0.00660769453148059
-0.0441212860726709,-0.0333695433505118,-0.0212518846818032,-0.00595256750181684
-0.067928856805947,-0.0102110877864535,-0.0179473572647159,-0.005470402713061
-0.0753332118414076,0.00922436661276323,-0.0137133787226872,-0.00651412008132921
-0.0656028891835982,0.0252190665742262,-0.0118059006794221,-0.0094572297474977
-0.0525835709067999,0.0283240869953449,-0.0151156506807089,-0.0142586617566621
-0.0454752517669725,0.0176651581778206,-0.0274900510930574,-0.0192077061760529
-0.0357981726901554,0.0162172395837427,-0.0398225956087175,-0.020074362300417
-0.0137658089973424,0.0313118611151171,-0.0389748210110261,-0.0133005019480826
0.0161031062897717,0.0504944935856479,-0.0270500695857102,-0.000257508710802642
0.0355070110984201,0.0610115413984208,-0.0139143920179026,0.0119335341205154
0.0337132014534442,0.0403846006410851,-0.00669319531077946,0.0152423034126758
0.0283400200350897,-0.0174711626370765,-0.0102277046627729,0.00789262272908669
0.0311840090649108,-0.0755390993344239,-0.0193608281171705,-0.00497967604913947
0.0197750437895382,-0.105831649570697,-0.022093144275559,-0.0170720185153853
-0.0199346852935747,-0.108022581144906,-0.0140197695543179,-0.0241388184497691
-0.0775736040683001,-0.0826910568190024,0.00121493702702226,-0.0256655493617288
-0.128908666222982,-0.0296753815932155,0.0162142312396796,-0.0244646095740547
-0.138261707713303,0.031556802122578,0.0182347181143153,-0.0233023965964743
-0.103015155097006,0.0498573442376108,0.00449919577402903,-0.0237056348123885
-0.067962066974178,0.0198944860267328,-0.00663368037126102,-0.0245101577144474
-0.0578571034527166,-0.0144961327531438,-0.0039103427139955,-0.0209536750689551
-0.0460888168082447,-0.0592863194427846,0.000191542837423434,-0.0111306584723797
-0.0276104940874206,-0.11209772008706,-0.00422807569400398,-0.00148079782211521
-0.0251089721948091,-0.110269727015079,-0.00651431844649557,0.00160218204705736
-0.0216306587435656,-0.0408489781630468,0.000159020780417634,0.000750152083686115
-0.000424674222130664,0.0229261768710933,0.0080627268450713,0.00130887454090438
0.0133091523451707,0.0196679017496938,0.0116766180206552,0.00359278559473488
-0.000388221344120161,-0.0239945921366098,0.00904127426323212,0.00576787679028811
-0.0223870518223828,-0.0504038641143152,0.000588899732884122,0.00734665643937745
-0.0447965789511465,-0.0527866108890879,-0.00582557083315977,0.00812382059467941
-0.0811894275563802,-0.036251403692971,-0.00443874260157573,0.00775463913287557
-0.110632685576779,0.0116516813484723,0.000613333877101697,0.00641192210153268
-0.119485628374239,0.0645659434498506,0.00484604098006649,0.00459666645675263
-0.10992984123558,0.0655378163994358,0.00744351986683821,0.00297057636979948
-0.0519236177178465,0.0142002162230726,0.00553212977734821,0.00218003876011913
0.0487750957337691,-0.0489657246207363,-0.00197723931564379,0.00205727369721581
0.114862396772391,-0.117600548552081,-0.00996326044877841,0.00235632159987587
0.105272619509587,-0.170802332870127,-0.01456104945327,0.00430010178970276
0.0615227046671291,-0.157013760462308,-0.0171356964156479,0.00867939263844373
0.0334685531639496,-0.081642500359637,-0.0197663367331386,0.0128788668281066
0.0348919696061002,-0.0162277721509845,-0.0239085361965208,0.0128810739955376
0.0562653339405252,-0.00324962963595045,-0.027755055339,0.00779642838372437
0.0914454485237482,0.0101638934343772,-0.0215724030992118,0.00105890635057542
0.141437206808565,0.0651180237945462,-0.0022696294841722,-0.00268242881100035
0.178458064635034,0.11332676446043,0.0188793311537586,-0.00200636928996071
0.158466208773713,0.117801140600308,0.0331457412974249,0.00140581480230015
0.0825268271029646,0.0919567965693724,0.0388287860491869,0.00566313691745061
-0.00826262504359371,0.0720198998185462,0.03915398902892,0.00911165717372018
-0.0681973036977514,0.0905942087868883,0.0408365865323451,0.0110441888031124
-0.0714015951627586,0.117122670324649,0.0424853882063517,0.0121312715919786
-0.0283605582097458,0.088342802138271,0.0347232760559746,0.0125860038011253
0.0303764366048257,0.0107255148514464,0.0173275426018242,0.0114787430717897
0.0776800424656577,-0.055979506418662,0.00273623975775877,0.00875562829554443
0.099714915519945,-0.088570530593234,-0.00191545496448978,0.00661239056872304
0.099185584255199,-0.100958000142071,-0.00151848608523316,0.00691597787141266
0.0934757792269818,-0.0893951396947567,0.00124699237177078,0.00870027927856553
0.0953861112136582,-0.0392522278368047,0.00777433531615048,0.00975542477244931
0.105326920644793,0.018552452161743,0.010279460578016,0.00900028971580102
0.118054983882673,0.0410669928000542,0.000167650642833139,0.00667904832958822
0.12280607827401,0.0486364941462627,-0.0149999589897335,0.00409426866821991
0.116625564072742,0.0646971319915413,-0.0201377148242898,0.00262199234917399
0.105257872116117,0.0653225952795294,-0.0140125177972356,0.00181808426859278
0.0952007896010198,0.0486210613614001,-0.00731495183954981,0.000514842828747231
0.0944869387925014,0.039299982776736,-0.00268655143746187,-0.000930238619951312
0.0950047524842678,0.0435640017475683,0.00239626950285335,-0.00110446007106371
0.0845383822753668,0.0581335870517417,0.00791666437984742,0.000444675352443207
0.0774216173372952,0.0721041848757123,0.0137295507910624,0.00201494632565907
0.0843359759795619,0.0709185362879813,0.0167444597068528,0.00132943348498828
0.0830884379323321,0.0524397582415528,0.0169767300289002,-0.00175492193968705
0.0588380705613691,0.0282610800411198,0.0170250264594493,-0.00532122563756814
0.0359528183291718,0.0212652138949131,0.0176472831286384,-0.00832054501828614
0.0290197179314075,0.0311608258378206,0.0164216138235158,-0.0110550395709037
0.011621217784373,0.0317192628137839,0.00649756324755302,-0.0122976291772325
-0.0340695359309262,0.0165357258548356,-0.00665291101376777,-0.0096000044602567
-0.0865972476516215,0.000828161447281102,-0.00904000923372341,-0.00166749392759068
-0.116182155594351,-0.00675133260074665,0.00151604866944655,0.0105409801503456
-0.120105054056671,-0.0189298873748428,0.0126540027329225,0.021953107567209
-0.11031594272748,-0.0449154009696062,0.00717941030965808,0.0256157498774163
-0.0919688480522621,-0.0590682087594342,-0.011614414388218,0.0202828886740644
-0.0684400578394545,-0.0323336594911526,-0.0233016746402959,0.01164903386602
-0.0456414014578053,0.0149937238899912,-0.0195490277395091,0.00475604833845096
-0.033265340956884,0.0242935469799984,-0.00418359474747767,0.00017568245695803
-0.0228739656514266,-0.00662214242099685,0.0130503200559778,-0.00177775049928365
0.00379554535676008,-0.0152457637464383,0.0224632722986321,0.000162161052640171
0.0291985043447616,0.00756637688448833,0.0252748034958421,0.00402496388726222
0.0303650512383203,0.0291100698610607,0.024962008974561,0.00519726092739171
0.0143272068233427,0.0420471025892574,0.0208994344885203,0.00108782700738827
0.000376196201270142,0.0274044594156225,0.0146163821679741,-0.00872550203689582
0.0120270843299617,-0.021138999823276,0.00790484023196582,-0.0245767211304313
0.0617377977238933,-0.06099630607788,0.00262189761886259,-0.0450251893388202
0.109359995057302,-0.0653540208037528,-0.000133363559904485,-0.0631875474215137
0.0978702833680559,-0.0485912110976104,-0.00232965034860781,-0.0684420396918944
0.0380064881354688,-0.0233801477994975,-0.00474458243643138,-0.0553536259705541
-0.0240958907391019,0.00352166848300522,-0.0064935612992732,-0.028057536635131
-0.0649556992293891,0.013678241693429,-0.00783218791070894,0.00395920812621779
-0.0830491391790065,0.000471345711766075,-0.00811243480419313,0.0298422908731011
-0.0827874139525339,-0.0211732560935588,-0.00516790504606978,0.04202745743393
-0.068195290671608,-0.0308921667908581,-0.0012075863237943,0.0417297891797395
-0.0567410503518023,-0.0238019475141326,-0.000491132402255117,0.0361240190789462
-0.0581104444598884,-0.0091504891108577,-0.00137177896478349,0.0329105494478686
-0.055797304209536,0.00787825449840809,0.000318930094190183,0.0385344667298586
-0.04110381934767,0.0182043632642208,0.00347567398890088,0.0515955862904982
-0.0252270452343363,0.0181191844024859,0.00579577030618012,0.0580524145722411
-0.0132974823197436,0.0153029633014356,0.00852934461883999,0.0429458009512232
-2.18276604187859e-05,0.00944837063301446,0.0128034755061949,0.00585688603830684
0.0156170817242381,-0.00360806129778372,0.0146830348430937,-0.0403359428111576
0.0288492612025884,-0.0180151207251135,0.0122814940618616,-0.0785471241690885
0.0417453141890309,-0.0235102835363223,0.00971409857439964,-0.0942657446898933
0.0589483112688817,-0.0155648394871937,0.008869133589799,-0.0826493997499374
0.0732006913811872,-0.00103869873042577,0.00919682717445489,-0.047713162486833
0.078031296538354,0.0110185484955263,0.010748520911533,0.00208191734830786
0.0716791536427451,0.0196764903706045,0.0145905082146167,0.0504641909178996
0.0546207923513184,0.024869967168783,0.0188278066133367,0.0774265816931373
0.0405197953090396,0.0252201511859927,0.0186854967072096,0.0760019744040766
0.0433066353134573,0.024174387714046,0.0147754673599835,0.0560726302558562
0.0535324727211144,0.0269165873567913,0.0119395415358688,0.0302774871092548
0.0519810360652581,0.0309348398402699,0.0115420600346054,0.00637128948043653
0.0393930245124683,0.0308864568547014,0.0115924615341595,-0.0101722793685696
0.0300120847767495,0.025394899349364,0.00989895024683993,-0.0157217990857448
0.0300663933201359,0.0163443734347845,0.00787189053861216,-0.0120887273124396
0.0289628537424842,0.00748271691478879,0.00718437103474037,-0.00724305123756326
0.0180997226930793,0.00115098054362377,0.00670149400498695,-0.00940174400551709
0.00671250097225923,-0.00241277279222015,0.00825348618745341,-0.0225851102769113
8.63767960009015e-05,-0.00397027779691278,0.0111732578294812,-0.0454469017615077
-0.00430232917341298,-0.00462237368323035,0.0108200248790004,-0.067205226224469
-0.00553802988810481,-0.0062830226604078,0.00911358734531102,-0.0711981581733476
-0.00503765626719855,-0.0100651100201666,0.00975210456841189,-0.0498379310835818
-0.00597631166956182,-0.0133694119187185,0.012609640457918,-0.0108469339180799
-0.00815944374519692,-0.0110029540711888,0.0171358517009868,0.0307077040698575
-0.00984195647995702,-0.0038382032845081,0.0217036078799872,0.0640618654037003
-0.0133279354750082,-0.00320376145733874,0.0234017258323627,0.087063120138301
-0.0222013126698564,-0.0102619121598296,0.0217363580214307,0.101152513904857
-0.0330706557709727,-0.016276308422385,0.0173083222426465,0.107087831618698
-0.0404598463568116,-0.0188254806284293,0.0114319405133595,0.104233357795717
-0.0419900049201967,-0.0154370559283744,0.00657253043209845,0.0933411000104673
-0.0453414579728912,-0.00822428447158146,0.00281942114847876,0.0788718134476409
-0.0608256688952523,-0.00451556144544263,6.73038137748872e-05,0.0602707127703864
-0.0784279972894237,-0.00419336231284933,-0.00170392206610106,0.0255996509442287
-0.0845614095644311,-0.00281742942959489,-0.00364663478468595,-0.0317732390620449
-0.0789203523982315,-0.00314522791783808,-0.00682881585690441,-0.0958967982500542
-0.0642310766958065,-0.0132111483795645,-0.00679089923244483,-0.139754653712066
-0.0491505333751231,-0.0301604512596292,-0.00275272682497224,-0.148464654560109
-0.0418182857648086,-0.0343300622999435,-0.00252439759640856,-0.12517600823997
-0.0322824687079904,-0.00509496447336684,-0.00562897146248057,-0.0825925775422157
-0.0121790034899295,0.0423247577253229,-0.00561063052900518,-0.0370247893546525
-0.00037664452805309,0.0556079322546691,-0.000979474415098085,-0.00328088483568274
-0.0070609754639162,0.0217109214159272,0.00290379486653771,0.0142468160239972
-0.0226169510224043,-0.0194872231670205,0.00225678664426385,0.0217989234321975
-0.0449528961682477,-0.0408046686560939,0.000905999602428501,0.0268965680867385
-0.0650501282423979,-0.0416737364751393,0.00186660675096485,0.0338163399747169
-0.0757502403427604,-0.0328381066419823,0.00147087068106059,0.0442527134042237
-0.0819289663889309,-0.0311029232960528,-0.00657529408792695,0.0568358318862139
-0.0788978836565511,-0.0412862898320917,-0.0184159148890912,0.0661445600835973
-0.0710221919580824,-0.0475336951128089,-0.0241340390179455,0.0642757080756127
-0.0719973307443355,-0.0365728775881942,-0.0223694024288822,0.0483895119879141
-0.0698568750183335,-0.0140446750008098,-0.0179953607638282,0.0268162610868326
-0.0493636007503125,0.010017945852685,-0.0137308790207722,0.00986276418127269
-0.0225557286520423,0.0238589945192038,-0.0107165982069972,-0.00216432537125796
-0.00263563402953145,0.0112962579475846,-0.0120794444203704,-0.0139278156812593
0.015592198306833,-0.0168994586226392,-0.0174842558534762,-0.0252655211135294
0.0356124096874829,-0.0297233310456836,-0.0233975324038162,-0.0327266876842566
0.0476235356634317,-0.0211823076165245,-0.0279551495612766,-0.0351776830154578
0.0330845213011634,-0.011351659758993,-0.0302583846148521,-0.0336104617714743
-0.00764285674330729,-0.0104734810640673,-0.0281606290109621,-0.0287576714978336
-0.0461078076207126,-0.00883277222572845,-0.0202645515149982,-0.0210831778682918
-0.06501897678673,0.00181227871033982,-0.0144183473984426,-0.012058707947054
-0.0700400215144635,0.020385278940479,-0.0165959595707123,-0.00554737328110703
-0.0722432334319554,0.0295988662700868,-0.0184910226572654,-0.00652888320634042
-0.0718659252914834,0.00726541809477744,-0.0149044963521617,-0.0176145102694345
-0.0619276874714654,-0.0358707234495905,-0.00985131462924939,-0.0354248160684754
-0.0410473356075377,-0.0620717583416476,-0.00573020414165869,-0.0501286267553535
-0.0124133423610349,-0.0549009774385657,-0.00146372080989576,-0.0528048710264968
0.00278058896926275,-0.0303030254423316,0.00377391393180664,-0.0424350725211622
-0.0128030629395988,-0.00512263193456911,0.00990469946872509,-0.0243906712615717
-0.041994936269621,0.0196591912429008,0.0132762213787371,-0.00564249348515584
-0.0599297412220038,0.0375217674184487,0.00704530223512456,0.00854729115618995
-0.053223125229457,0.0249789187662068,-0.00633887280329449,0.0161040345205349
-0.0274167152071952,-0.0128889834781454,-0.0169075237682741,0.0170905821177597
0.00165938015968624,-0.0182299414007243,-0.0185327988874412,0.0130324033925561
0.027259784242786,0.0363550576920065,-0.0117056334200308,0.00813121416630649
0.0448193940549525,0.0973156632493487,-0.00445871152112024,0.00778372757084964
0.0417700288959501,0.115910083630617,-0.00287687024828254,0.0146730957596152
0.0136281271272012,0.0895093030327881,-0.00498590020089814,0.0243132057569543
-0.0169440986118949,0.0360969256618243,-0.00956855220253609,0.0245919539343929
-0.0258651110826873,-0.0133109635926093,-0.0168260768937283,0.00748044258829623
-0.0222528645863673,-0.0507952397704464,-0.0235909781471907,-0.0198981651501072
-0.0254971548892091,-0.0912454812694311,-0.0262178914276847,-0.0424876020295577
-0.0355615162354107,-0.128319426116334,-0.0265277152888824,-0.0514189710743555
-0.0531946922442395,-0.131025287932574,-0.0252446008850731,-0.0477707083052587
-0.0801911747644558,-0.0775620677091158,-0.0141060867835459,-0.0372231967485314
-0.0937023566170001,0.0110797312165551,0.00767380235198516,-0.0247392189291707
-0.0695473449848999,0.0829111605752159,0.0254974426595771,-0.0134697607860817
-0.0175432485308462,0.0988306235886001,0.0284754952741403,-0.00507072325124063
0.0381701066558624,0.0639305199138324,0.0205618875842572,0.000589325824332264
0.0764959982646246,0.0118726443143099,0.0132627168865197,0.00447770736812495
0.0802261906737838,-0.0241270940298855,0.0117503199076767,0.0072563947574648
0.053308664743525,-0.0352756276848436,0.0101567754751161,0.00902637831567117
0.0191518890369531,-0.0355044539379415,0.00442343418455163,0.00950366205885612
-0.00186666212134715,-0.0177048160987389,-0.00307284844341398,0.00927755406458953
-0.00935079247702957,0.0203022993947848,-0.0107467273335468,0.00997398489866877
-0.00825367543403169,0.0488027151127037,-0.0141842830380065,0.0119885008736695
0.00339461249747823,0.0779546208023581,-0.00875823891845077,0.0137342734309347
0.0262736336156547,0.121791007718723,-0.00361960091111957,0.0136437159561284
0.0488939704868552,0.126815585026933,-0.00927115208118552,0.011231734464698
0.0488198833239235,0.0802249884340239,-0.0175562742052365,0.00703518189435496
0.0242801543478425,0.0348381118876942,-0.0183104451354003,0.00323645405458279
-0.00661278864714478,0.00436025522827768,-0.0179467818425054,0.00254240410415522
-0.0373820083627413,-0.0270693958913375,-0.0262644736837064,0.0049246481044068
-0.0620161606383451,-0.0465082403988186,-0.038483145527065,0.00756758465970564
-0.0639232533398352,-0.0346337322307168,-0.0433955701559057,0.00834445997899259
-0.0444239263700766,-0.00529219398124245,-0.0376822976995074,0.00735497699351976
-0.0191457453971783,0.0205674295969124,-0.0288619270888398,0.00562938525802769
0.00566589842108876,0.048095640721319,-0.026029293093259,0.00337481076534861
0.0324548119444465,0.0772060122103139,-0.0267868161102975,0.000102565274256219
0.0620453554091978,0.0712390866244533,-0.023295621727746,-0.00342706793257269
0.0879613433220716,0.013977347487897,-0.0150576649751448,-0.00492045418571271
0.106138552995652,-0.0472098467186883,-0.00772510896792289,-0.00193898122184444
0.123087007054186,-0.074154805978104,-0.00412872477198164,0.00578407975545986
0.14651209771737,-0.0592878353397005,-0.00358688219024832,0.0146156910686275
0.166001894864487,-0.00624901701497317,-0.00541559485620534,0.020129996302444
0.163317077494083,0.0393841504751232,-0.00766468141341942,0.0212997452629194
0.134907920770268,0.0451618482682085,-0.00815000040421533,0.0191004195505572
0.0944032741089329,0.0362481579455164,-0.00627567308328278,0.0138303402430262
0.0610288496764925,0.0341248604532533,-0.00484471908105734,0.00690789333209587
0.0416837596216743,0.0287853115618227,-0.0077104498300757,0.00123788537037775
0.0295314768727924,0.02083457192411,-0.00932603212435911,-0.00253223812518338
0.014376253424407,0.0216446546711811,-0.00637162874106749,-0.00614620634429286
-0.00270920633352831,0.0248215193705598,-0.00144943259842551,-0.00970592557281054
-0.01541009908072,0.0280962863069603,0.00676385918952369,-0.0107868078785538
-0.0185623872145726,0.0335583313803039,0.0142280593388339,-0.00842899723700937
-0.00124998952988536,0.0335240060091959,0.0146877635793161,-0.00472655603826308
0.0287950395713783,0.0366787454364342,0.008493434693707,-0.00123818126505594
0.0508016941478987,0.0532306019861127,0.0007778938739922,0.00239588607525227
0.0596748023323451,0.0588028654630708,-0.00466325929847113,0.00679173847055357
0.0555316833392926,0.0342370379142971,-0.00676400671011874,0.0122003408803027
0.0389188361012392,-0.000351651048578074,-0.00402119286289313,0.0170784099133144
0.0143446801054448,-0.0226709132573377,0.00170164326936013,0.0176669042723504
-0.00819471259864069,-0.0310699636668203,0.00684035135149026,0.0118095761498965
-0.0143724151321276,-0.0267852685337103,0.0129717143396957,0.00207925757219395
-0.00524354762810311,-0.0108882611917148,0.0216820712396985,-0.00594656670837708
0.00554096632091594,0.002538804799564,0.0271336924232525,-0.00839368864948764
0.0149266386876143,-0.000273161943576124,0.0208239074241914,-0.00691877102699962
0.0228789500067048,-0.0105501255583658,0.00223595576646359,-0.00640640877455513
0.0266366407006678,-0.0117486146131358,-0.0163097581383077,-0.0101889816945642
0.0293763162824964,-0.0135580161151779,-0.0238207290811033,-0.0188127911941349
0.0321657480638261,-0.0362380623472145,-0.0252664513352603,-0.0289384122784595
0.0295300781927508,-0.0670163165308844,-0.0249672344653639,-0.0345001457241767
0.0210833355070575,-0.0796684804603109,-0.0193683032599996,-0.0312890002784214
0.0148493372341109,-0.0779888668906734,-0.0105541086768329,-0.0196663152506841
0.0224754124851818,-0.0601002240783085,0.000418921767903521,-0.00422107310032557
0.0405242885062803,-0.0204623003802953,0.0149763004290584,0.00945003081080243
0.0350444594312993,-0.000688676189051413,0.0258089814598764,0.0186150994984622
-0.0079391794353891,-0.0108097741758026,0.0257613947521481,0.0230837542061971
-0.0459624828083262,-0.0198129702142931,0.0188413786226778,0.0231589029074454
-0.0498350360992398,-0.0253421006657514,0.0155117741315115,0.0205773167793491
-0.0481695191945553,-0.0284868445201221,0.0193660350334704,0.0183667162985063
-0.0656010247432759,-0.0330906088918916,0.0243164665307132,0.0189629414998453
-0.085534776724979,-0.0450342200207091,0.0270808911207135,0.0206750730411881
-0.080203347997577,-0.0529823522067121,0.0265029212507423,0.0152944928881296
-0.0421582829396635,-0.0393286554699253,0.0217398371205228,-0.00232995655786136
0.00533122918978003,-0.0021096377352573,0.0171537731031336,-0.0262500499396765
0.031583208327816,0.031964403581538,0.0134017910825374,-0.0477488597842834
0.0304553545428928,0.0469827509308093,0.00702425620594549,-0.0612346781154484
0.0161849436968351,0.0474517609148619,-0.000448066962209288,-0.0629482232790025
-0.00246479985196111,0.0326107485708675,-0.00512006309828526,-0.0537264872461506
-0.0277545918748861,0.0100406595483114,-0.00429892787340044,-0.0379247107722497
-0.0570082239785162,-0.00958619085619131,-0.00114981022654106,-0.0174210949484745
-0.0715349925085297,-0.0196068283790339,-0.00202054868081459,0.00665024448433947
-0.0596809393652802,-0.0150803563363378,-0.00670618376135311,0.0291906115186787
-0.0360456229517548,-0.00562561468469421,-0.0112202399469396,0.0456497674990515
-0.0245431456856128,-0.00341220248106458,-0.0149290454954071,0.0548599125506687
-0.036483167512592,-0.00356327950052935,-0.0162691977891892,0.053947617966899
-0.0479950385012604,0.00424682701382961,-0.00997967394191645,0.0432513432357864
-0.0280853698350584,0.0262640806064928,0.00476879805981835,0.0343965163011014
0.00623992103927652,0.0461887213479596,0.0205297598259579,0.0377486315534152
0.0246590564773936,0.0259993838091681,0.025912968296906,0.044807283308691
0.0265454013567638,-0.020578492065023,0.0200787819580775,0.0358797466634875
0.0119605210374111,-0.0288318011332917,0.0159650093166613,0.00624086201348932
-0.0127152625375208,0.00524724766872084,0.0196118596653588,-0.026164411843898
-0.0274970393307988,0.0205750145652887,0.0235466277756322,-0.0438731355263872
-0.0316861928925185,1.13384671017701e-05,0.0208762802978805,-0.0482574702857
-0.0338373239638936,-0.0146338175077945,0.0159606251434616,-0.0460983301408521
-0.0310079563381095,-0.00469391840542033,0.0164087337158825,-0.0373657796466582
-0.0178792413280593,-0.00451098834191353,0.0205981061822046,-0.0241359548070295
0.000966525419401107,-0.0181503774102525,0.0255071328198558,-0.00944034037554406
0.0148560707405765,0.0109833426774918,0.0333533970614303,0.0079496621861491
0.0209220872935812,0.0725337627977834,0.0376850499476189,0.0263880539943237
0.0210478627293051,0.0883711152803131,0.029628481344058,0.0397486336334538
0.0116344799401972,0.0591199187227118,0.0162640236468924,0.0464125115520819
-0.00603670360768372,0.0361733768372185,0.00598100712259397,0.053874080911865
-0.0228152991695933,0.0250163057050241,-0.000428505977526972,0.0668618669768743
-0.0357131514717849,0.0113014876466527,-0.00277313922347234,0.0761260081937916
-0.04566983768784,0.00157120972752254,0.000708835208620186,0.0706510774391355
-0.0496346894751348,0.00351553118160954,0.00843103938838201,0.0514225485363876
-0.0432285068314579,-0.00530692755057272,0.0105967300793052,0.0211467510188684
-0.029158126966857,-0.0361297896083353,0.00572467520206562,-0.0215976706496665
-0.0177968962770949,-0.041563522866445,0.0067606867922759,-0.0663716770188886
-0.013651191527145,0.0028283014267072,0.0162309392884091,-0.090543408074246
-0.0138838334633169,0.0441286043027633,0.0236487584679423,-0.0825701433129345
-0.0102499977100873,0.0422499559051436,0.0229374639304524,-0.0522446257941346
0.00333995827753782,0.0140214844441966,0.0153199659983442,-0.0167761870411382
0.0142471191634019,-0.0110496885782247,0.00941156935847739,0.0144260882756386
0.00774857542749268,-0.0181329102906421,0.0100858960522009,0.040114113501071
-0.00806061381424531,-0.0118494177881141,0.0112344329442086,0.0595386560048488
-0.00725362382467818,-0.00198564739799744,0.0106068919170085,0.0686330898440605
0.023929326659484,0.00716806330010827,0.0143013185311456,0.0612126492799376
0.0616025299849755,0.00518859122279174,0.021999248444929,0.0352565452871805
0.0633790200272632,-0.0157084000139269,0.0266629488090442,0.000902415965143899
0.0216276273962717,-0.0384652773541318,0.0249243979657092,-0.0262651772644813
-0.0228166906431792,-0.0420113955646236,0.0191717786572263,-0.0397173729334068
-0.0373431027267464,-0.0300344188203141,0.0152353510576636,-0.042970037473988
-0.0374240555620265,-0.0127601403107673,0.0168270830730529,-0.039575238166406
-0.0454425156883176,0.00909037817163205,0.0239037676416112,-0.0260052251587942
-0.0522440479696003,0.0246912432466506,0.0313666304673429,0.00143770395591699
-0.0438523673478966,0.0211835755055144,0.033864382170939,0.0336085937677344
-0.0234950103537531,0.0147340799771833,0.0347017791493497,0.0514332616222992
-0.00724389179031879,0.0207329129729993,0.0403590672716707,0.0454730287752408
-0.00360438207575758,0.0268898123454475,0.0484333954010884,0.0271321352661921
0.00114503666033324,0.0176886493648875,0.0498069306983742,0.0169008588431252
0.0184112299563757,-0.00649224694270515,0.0404351827499908,0.0214826428928268
0.0380378931812678,-0.0253616744462398,0.0239035020715102,0.0231320988698055
0.0345715096954809,-0.0273009880507307,0.00674474051206955,-6.42200854398534e-05
0.00293910327353435,-0.0216289923940295,-0.00414022803977186,-0.0442923093749966
-0.0288665197289014,-0.0132197233434206,-0.00654916395757931,-0.0835754743459138
-0.0412036200735183,-0.00428594729736967,-0.00634273035686139,-0.0971388914273768
-0.0373265591765618,-0.00551564021043621,-0.0104681686482022,-0.0822254902826629
-0.0275091159424551,-0.0196328416089632,-0.0177630623454109,-0.0485574945784033
-0.0130444032695219,-0.0264636283998439,-0.0199470328530116,-0.0116100922722489
0.00835611888221433,-0.0164756594957369,-0.0137774959127849,0.0135794325244526
0.0266667914121787,-0.01082916755267,-0.00338088627916581,0.0217672684957308
0.0299080223586884,-0.021394879055795,0.00607535881214446,0.0191668969908919
0.0188236840462965,-0.0419700615008961,0.00970016505445761,0.0148096024539393
0.00273981193715941,-0.061217842635224,0.0082013080159203,0.0130684002401846
-0.0165888062214731,-0.0610638803072568,0.00929779025249875,0.0137502344328645
-0.042518696315707,-0.0343221010772226,0.0150465492072006,0.0162589049664802
-0.0694330820279382,0.0109012623130623,0.0232749698988492,0.0206009364142577
-0.0833119883183455,0.0617366663790255,0.0326419765667837,0.0252310940821615
-0.0809842885065974,0.0995398074743278,0.039228259346282,0.0271532250415838
-0.0782212641515326,0.0977247903142139,0.0404832769219748,0.02415378891744
-0.0840538145126682,0.0470691593563021,0.0364556273988986,0.0163311942354369
-0.0963013276723004,-0.0233630117083995,0.0270998310942516,0.00617367795534944
-0.103851403102287,-0.069800967080259,0.0143930609434821,-0.00370045729930434
-0.0884556762626399,-0.0670738097363622,0.00391752063612816,-0.0123830526850944
-0.0537905426554694,-0.0222723852390202,-0.00210617229739698,-0.0192621286651989
-0.0201625754859996,0.0247634598290539,-0.00566737040926007,-0.023251494641092
-0.00181070528628985,0.0280983312682486,-0.00985944431808164,-0.0246157064308322
0.000862897259314321,-0.0147295449384893,-0.0165621653396967,-0.024613925637406
0.000235877357220339,-0.0631895931458981,-0.0249217049383234,-0.0233012161811506
0.000248159663828136,-0.0802612065335603,-0.0349616634529451,-0.020477070405828
0.00401944439376395,-0.0629483919772283,-0.04495285418637,-0.0173785283791985
0.024289855082877,-0.035362448116261,-0.0503480024632712,-0.015566359873636
0.0552596949829555,-0.0282208477667184,-0.0491029394321113,-0.0151056972960468
0.0704755749711687,-0.0518968375944937,-0.0434509028394748,-0.0146340823776207
0.0516667351868094,-0.0958080370840756,-0.0370259772456404,-0.0131318519440987
0.00834647580355949,-0.138935864728625,-0.0302130015859884,-0.010798235596267
-0.0372258325098665,-0.149781892590788,-0.0225157111110371,-0.00833746512391922
-0.0773438768970768,-0.124397318403906,-0.0136964473298635,-0.00671076469209255
-0.105706692214085,-0.0887083403042484,-0.00439569914132271,-0.00644083955834013
-0.10632239062282,-0.0577862578009074,0.00164899487160946,-0.00681121470861479
-0.08963793152744,-0.0220140655591889,0.00208699671446089,-0.00684289128347226
-0.0801909026320796,0.0335471836621287,0.00243845084360243,-0.00590167153600428
-0.0775205806931168,0.0803652780688679,0.00368290739773001,-0.00375669906214351
-0.0799164354124265,0.0759751897326664,-0.00380881180453654,-0.00172807706845581
-0.084535315313966,0.0491961341990095,-0.0162039672459959,-0.00249007066315634
-0.078331118463517,0.0666793006840149,-0.0178592764555499,-0.00685121154195788
-0.0499307358412798,0.134409147064976,-0.00442576088043691,-0.0114366559271746
0.00957079886321202,0.178352674204547,0.0123716502779152,-0.0120394579695586
0.0905523440736819,0.154730879969627,0.0199167125158985,-0.010120900166172
0.156909888578931,0.121647127840291,0.0179903668228035,-0.0115771301286675
0.179930126548647,0.124428658835055,0.0121050878549626,-0.0187570913397005
0.159390196440434,0.114361694314235,0.00453240781250839,-0.028889566667891
0.108189864741398,0.0505514542507958,-0.00915342666662681,-0.038731019152617
0.0533141741879525,-0.0310019890793025,-0.0289202142741404,-0.0460143537345312
0.0248342098635175,-0.084242382321932,-0.0405145662134653,-0.0474130298992538
0.0275435692143512,-0.0874884929899382,-0.0376806938377544,-0.0390514203403645
0.0422964519510283,-0.0520008833528019,-0.0318156685454434,-0.0200976597821427
0.0514769549535829,-0.0227459813287488,-0.0305991865389372,0.00463208678476285
0.0556280577352628,-0.015716176287473,-0.03144561026223,0.0258402554896691
0.054979203613096,-0.00943051338993535,-0.0289836794976578,0.0363036269076025
0.041022408519262,0.00676386603195684,-0.0204382632343414,0.0372206429884917
0.0241236769753922,0.025798897568649,-0.0102701436986566,0.035550120884326
0.0223902359749113,0.0447062116935518,-0.0031155730498149,0.0357220680394242
0.0325106802161782,0.0693951356391403,0.00352272319238708,0.0367181668128349
0.0446167066878475,0.0897178463111385,0.00995874829423556,0.0369248877938913
0.0537739795039985,0.0906459486995328,0.0103178652384473,0.0347188106233339
0.060948809510695,0.0750675628076709,0.00298835331166967,0.0242609909134063
0.0720637125283805,0.0416997122299542,-0.00598812071149234,0.00159506438092692
0.0850684728473704,-0.00477086346616698,-0.0110730486101984,-0.0263574338898882
0.0920839180775906,-0.0335902958406593,-0.0104928748117654,-0.0467761720323771
0.0859001785977573,-0.0318082543445549,-0.00664813164800094,-0.0525646082049715
0.0668531293371022,-0.0178928180523878,-0.00130971120716975,-0.0456908407779262
0.0577297160634139,0.00231056180456857,0.0047980608525353,-0.031769955250905
0.0757725609738759,0.0414134074235918,0.00842441431896641,-0.0148959235373845
0.0974565538754447,0.0892579982201177,0.0106851083436172,0.0025511272906857
0.0964351146816892,0.114239493218726,0.0130664921431894,0.0187907372187434
0.0832149965885656,0.0945201178377021,0.0128849000133799,0.0326497200215267
0.0764659732158977,0.0363123437863468,0.00920639486513754,0.0429552104955294
0.0724313515089346,-0.00579705413149617,0.00618665244964037,0.0488419424995232
0.0665996784769017,0.00127819637251454,0.00746537662236061,0.0507622036033219
0.0662270103246052,0.0243091968658736,0.00922782092740548,0.0495432085480295
0.063256039988741,0.0346084659428312,0.00767219526512175,0.0455505250336909
0.03940697295329,0.0380496630079136,0.00661277227115861,0.0394445870850123
0.00497496194087666,0.0344956453501502,0.00358666521638165,0.032330107796662
-0.020153687444142,0.0174240480167665,-0.00934926644457344,0.0244037274149255
-0.0371323626946346,0.00609199738918711,-0.024923176118369,0.0156334418273899
-0.0471482277090817,0.008411728245438,-0.0330666027104328,0.00756561684967982
-0.0519025359353757,0.00804012031555518,-0.0343826190286342,0.00149111168500831
-0.0605152432842748,-0.00570160493188607,-0.0287205376074067,-0.00255585437540614
-0.0703090189013502,-0.0290054250658599,-0.0213241142857022,-0.00425058631434215
-0.0657470355456528,-0.031999436392586,-0.0214324760932042,-0.00382364866519016
-0.0360237301943414,0.00472957373328356,-0.0235100894145082,-0.00309112807916506
0.00801708911191654,0.0494842339167782,-0.0178157052758332,-0.00340573532154284
0.0314200499063751,0.0658457701744184,-0.0068385985805057,-0.00414089451376702
0.0116496380487453,0.0537686578522358,0.0040343407251213,-0.00430751582620698
-0.0239870399151665,0.0291662509924797,0.0120157352885267,-0.00387166684956784
-0.0281860751854066,0.00558060248595456,0.0146720593747767,-0.00337426573479441
0.00385738688943268,-0.00950807308424416,0.0158069402385922,-0.00337174040908288
0.0277306748831379,-0.0197084377322487,0.0180848862346619,-0.00381377131061694
0.0124638547317915,-0.0201172278724471,0.0185784090052231,-0.00414120579804875
-0.0248652187717835,-0.00331960417041454,0.0168416476445175,-0.00396944833257058
-0.0561044728130383,0.0151386264219087,0.0133205832649117,-0.00355223876135276
-0.0690610759145854,0.0310817302133534,0.0104272317997585,-0.00439203428250198
-0.0687866619647347,0.0500697549456837,0.00937135584654378,-0.0080458957898882
-0.0625118804597857,0.049253223190018,0.00743724962606351,-0.014110137729661
-0.045121166550951,0.0177101391792369,0.00280931866424686,-0.020967671239229
-0.00694132647123079,0.0034224191540088,-0.00425857276182039,-0.0260148427293793
0.0444221860413619,0.0492081295686182,-0.00898569978632207,-0.025840946800063
0.0743831038355347,0.106627283519558,-0.00911764722853524,-0.0192256397126228
0.0641112150376348,0.109147610394298,-0.00826984190274454,-0.00848243349947955
0.0329349891234052,0.0693629450663622,-0.011569139603599,0.00278709626516834
0.00256128909886946,0.0307086412386951,-0.0187645251980068,0.0126794935385028
-0.0207607103233249,0.0166109490868423,-0.0185694250812925,0.0194505808626838
-0.0329479458685537,0.0196601389981314,-0.00713225688633245,0.0201114232814859
-0.0307888087300518,0.015967761755257,0.000766707923934081,0.0151851493059911
-0.0186931673151782,0.00603774530827283,-0.00181800255902978,0.0102265412232575
-0.00106136416286295,0.00211260013619673,-0.00503106240123946,0.00885379234860513
0.021330076199564,-0.00286908217844272,-0.00427330451611893,0.00638014697775393
0.0402524347080126,-0.0186305572908856,-0.000696455280334681,-0.00407056039649435
0.0432958659283941,-0.037369066132564,0.00461636880826423,-0.0216112581652576
0.0331777624295735,-0.0476779184492825,0.00875284968804595,-0.0389698625800888
0.0232242481414293,-0.0521629203606846,0.00874597513800297,-0.0488249521159294
0.0203263174074387,-0.05683292272186,0.00289473342609809,-0.0478285488385742
0.0238705929994751,-0.0567761147720928,-0.00593401051247025,-0.0373259839822553
0.0277305898808938,-0.0562658147837592,-0.0128609663846134,-0.0198058632964441
0.0264927132789772,-0.067455446792778,-0.0185039182897778,0.00279855145060701
0.0218721374824794,-0.0787086849238354,-0.02366319797282,0.0269416987339284
0.0132464680641811,-0.0681115428825308,-0.0219892996236739,0.0466029714566659
0.000277715828117364,-0.0422885878002132,-0.010278259970706,0.0564477533319192
-0.0055561216038078,-0.0359834211728129,0.00187838067313247,0.0549379212083208
0.000949207681142636,-0.0574467320861995,0.00818623574060864,0.0421390431557038
0.00917972691074131,-0.0707748659990607,0.0145738833321843,0.0195967851835692
0.0172281304349811,-0.0535075372399186,0.0212415586540623,-0.00624604136060246
0.0324611195296719,-0.0215826982599802,0.0224690621651577,-0.0268994936979259
0.0521384224877309,0.00848870433690372,0.0194235062829654,-0.0379075165428121
0.0635294214560611,0.0303521234946811,0.0146911620273732,-0.0399636463473957
0.0537284512913367,0.0256758533703752,0.0060580613469069,-0.0363922341249449
0.0224820103857753,-0.00118940822842638,-0.00541111590037347,-0.0299914069278213
-0.0141493545154531,-0.0179521185701265,-0.0140867386164835,-0.0217305984285072
-0.0317237390059528,-0.0297970625877342,-0.0201578659783092,-0.0120676309144666
-0.0204323536776126,-0.0653369502166595,-0.0280025893384213,-0.000433918083741033
-0.00874342245647686,-0.115247264644226,-0.0371149673371098,0.015192277747194
-0.030412003878165,-0.144688427913309,-0.0443386318220944,0.0345101502771765
-0.0777688343370332,-0.133600352774559,-0.0478770360575148,0.0521588002662429
-0.119595315756713,-0.095814443999831,-0.0457548671872802,0.0604052597193572
-0.134788524591885,-0.0733790643409649,-0.0403059749997956,0.0532722249858661
-0.127286890647064,-0.0799387144098092,-0.0347958287049758,0.030170345950798
-0.113005736371484,-0.0852352558055053,-0.0254317781688261,0.000382165448100963
-0.0956571150906104,-0.0791292662741672,-0.0116664344166263,-0.0205397536559265
-0.0697419188730453,-0.0833288168879589,0.000384842773995191,-0.0245072935741567
-0.0311739016500869,-0.0842292725045651,0.00964815378686807,-0.0167904029827244
0.00552776619517349,-0.0437196277707118,0.0182186310865388,-0.00912956093097026
0.021674743240896,0.0184321137832542,0.0249118590620915,-0.00829025119420088
0.0328643197197798,0.0594462515383987,0.0273704231006206,-0.00905196905309048
0.0627045327825566,0.084579221753361,0.0231001705930555,-0.00256535709480732
0.0926596779513016,0.100001896096267,0.0133068063944555,0.0129217722552926
0.0851909528952727,0.0804032871599977,0.00145763320000085,0.0336040286458803
0.044144422813862,0.0462800294625619,-0.00843104862436605,0.0537035976672952
0.00889961989751092,0.0496426914396402,-0.0104519070939832,0.0661700760177975
-0.00556945318974678,0.0802535885547074,-0.00435617505064365,0.0642478610338291
-0.0131751229087136,0.0916109240231273,0.00343032322734325,0.0437256178316636
-0.0208381983661363,0.0586226269185216,0.0080837342626761,0.00715737561118709
-0.0272460955199575,-0.00476569846958819,0.0090132321917816,-0.0330457399539332
-0.033218058236642,-0.059525794890309,0.00637483286802946,-0.0609682116538344
-0.0370773910972883,-0.0872593888358163,0.000933821070782243,-0.0688663306626274
-0.0340837265763487,-0.0894899646048517,-0.00598129567836429,-0.0610626795044405
-0.0245458856390805,-0.0699765361241007,-0.0112703555610789,-0.0467077521134019
-0.0114872184481611,-0.0432921300136483,-0.0110279764898812,-0.0310381591659248
0.00581744469350253,-0.0231789673501889,-0.00565350409665247,-0.0150620318965595
0.0255866182202057,-0.0100865336894368,0.00156616636221367,-4.77361512042501e-05
0.0348301338107612,0.0070966144524533,0.00613887956039972,0.0128623645889691
0.0290024858881022,0.0465548030165846,0.00910431202391774,0.0245164875160431
0.0254456495036564,0.101230617422767,0.0139491030979184,0.0365430584723637
0.035856017099736,0.129397219529853,0.0192577514445543,0.0506469386449919
0.056542433677421,0.106551506297854,0.0207188083001598,0.0662848881600724
0.0733000272321713,0.0509499093899141,0.0150950427144243,0.0756439824075397
0.0727328208813358,-0.000534480030774387,0.00901712477397019,0.0679476200741365
0.0632182579169878,-0.0170757292438607,0.00927310925912422,0.0437261344005977
0.0611860587589902,0.00479348498050751,0.0139345062470229,0.0154783580685529
0.064644913739815,0.0427400727701656,0.0215870989729265,-0.00641580359266084
0.0585324561625318,0.0693984434136511,0.0291733910349356,-0.0198129339535649
0.0436661564670842,0.0641541723524434,0.0298782138509016,-0.0265562682380897
0.0332991281086127,0.0339034954819847,0.0236230066655813,-0.0291302653342243
0.028811217501653,0.0122153652961765,0.019052838656564,-0.0297918958397983
0.0229518113449968,0.0167969030770106,0.0201261429362532,-0.0292398433525635
0.010587637853635,0.0356199776145057,0.0206071239841403,-0.0274768933336723
-0.00989532762033992,0.0517898800077098,0.02019132064441,-0.02562299034944
-0.0282107819157897,0.0496242278877446,0.0215730647340819,-0.0246327714558953
-0.0259444373697478,0.0184381970058392,0.0172233200579741,-0.0247785867114856
-0.00641999625136052,-0.0220815940641046,0.00699376007655279,-0.0262763152926165
0.00818090259743836,-0.0337395409420758,0.00521578597991905,-0.0279118293361176
0.0107203685826733,-0.00910796144674809,0.0177637765137121,-0.0289943235247403
0.0107803183009031,0.0239413319414149,0.03432599407563,-0.0348351449628657
0.0144616076750819,0.0405419112403872,0.045874637887162,-0.0502919710455344
0.0200399422080801,0.0381049939596055,0.0514612979247417,-0.0670900143715467
0.0234736949603865,0.0269844671641767,0.0523782124813386,-0.0706444878530654
0.021599175017976,0.0135774011589329,0.0508147587277975,-0.0557694812455883
0.00904343913320197,-0.00360054512731295,0.0474254404217864,-0.0282374922820867
-0.0186309713630773,-0.0228997203119101,0.0437812265310973,0.00337816298735077
-0.0529703410788468,-0.0400304240779393,0.0425958590273224,0.0331893078918113
-0.0801302899265543,-0.0534600544717289,0.0421513585423998,0.0575648803209087
-0.0902844762017762,-0.0628148952342933,0.0397556148442921,0.0734135066774496
-0.0825202036433541,-0.0676632893011854,0.0339792702309153,0.0769282440830795
-0.0712886044702588,-0.0675399947250042,0.0258635533025093,0.0667697647447512
-0.0676734378443109,-0.0625979509201547,0.0165901521217061,0.0520031241761359
-0.0632907508596262,-0.0533151937841144,0.000320360468768724,0.0441288450246604
-0.0493957821105881,-0.0462895964239591,-0.0258741290535686,0.0365059438563518
-0.0355387452053245,-0.0477424147794517,-0.0507879184871997,0.010460658043702
-0.0333786707756365,-0.0526487856591204,-0.0610662041793251,-0.0369678340993547
-0.0387817521819907,-0.0509974037641367,-0.0552170954842509,-0.0876768592838403
-0.0399062470870938,-0.026984247170512,-0.0409424614672854,-0.121462463054242
-0.0287330882111832,0.0294740008535338,-0.0258811558627892,-0.129009465240189
-0.000650871839447842,0.0968135840550617,-0.0130900502485495,-0.111759711562438
0.0373156325756352,0.126919872547157,0.00067722092756195,-0.0784557485940675
0.0638459234386671,0.0926556375704359,0.0153745635717057,-0.0405854907395386
0.0695439953902352,0.0242890498975349,0.0254118698651742,-0.00744268385830966
0.0663227498091686,-0.0279231961991173,0.0306525460435824,0.0166071099079148
0.0528364331797715,-0.0434333402618743,0.0309817410293673,0.0311366686363852
0.0182701962854449,-0.0296370604070083,0.0271780435613458,0.0360844789009491
-0.0199194273514699,-0.00316576648340609,0.0228301416384431,0.0327599691563322
-0.0439879348969288,0.0119643842038507,0.0159077202410123,0.0273593571315989
-0.0612284418122045,0.00292335013369296,0.00472907487271073,0.0265748983402301
-0.0753285881600698,-0.0195559896433819,-0.00492754044696601,0.0315992011315412
-0.0771917169106759,-0.0402385656993155,-0.0094872135955524,0.0393198790719384
-0.0693467495697293,-0.0473103319688506,-0.0126377652613514,0.046191177677765
-0.0682821819594313,-0.0417000145128362,-0.0184990677059573,0.0501553854288943
-0.0747339076898704,-0.031256674541193,-0.0266832071827007,0.0502672252710003
-0.0707079814273144,-0.0181021602608698,-0.0348330540492289,0.0464297593125013
-0.0539322278509856,-0.0041891622943963,-0.0411076091267221,0.0398334788721988
-0.0366855449214712,0.00935129516324399,-0.0431423716811227,0.0326547930182434
-0.0195204389430626,0.0267365824828437,-0.0441614095442784,0.0285125830041524
0.00223676860778886,0.0426037881058838,-0.0491745139985293,0.0289532725574052
0.0273935063938599,0.0432187881405859,-0.0551140342613757,0.0264730307379835
0.0476273679422805,0.0339694197697091,-0.0564405146561513,0.0113428838492161
0.0475667295542203,0.028530757974452,-0.0533469703860633,-0.0137314278204048
0.0250282010578855,0.0257580414756102,-0.0494139199585215,-0.0361983473185865
0.000450849932226252,0.0183598784676308,-0.0457593363224001,-0.0472891594006577
-0.0113520171531439,0.00732130009428585,-0.0402784305736647,-0.0466426739943437
-0.0132938974527459,-0.00234149714747429,-0.0312903260738921,-0.0380112428074926
-0.0132186889191613,-0.0110352740752255,-0.021103048754668,-0.0251733046232159
-0.0161471539365442,-0.0165613645780083,-0.0125926469104554,-0.0109857407432218
-0.0151831930484265,-0.0142659809294659,-0.00503109023981061,0.00240764629347857
-0.00705253694151174,-0.00808757171594868,0.00173120716548637,0.013154859961919
-0.0105186319992846,-0.00284710731844175,0.00518429107783712,0.0199946506623355
-0.0330919356609868,4.21089845934475e-05,0.00662171647601368,0.0231112698830899
-0.0560349515235763,-0.00282956375701042,0.0102199474630884,0.0238255826950162
-0.0612241440086949,-0.0120861147845592,0.0122541634126103,0.0232451655806713
-0.0482386531900856,-0.0173418674748189,0.00999648446989006,0.0211497504573393
-0.031397022942928,-0.00981287343846201,0.00995666397284834,0.0168910385023896
-0.0220121956281463,-0.000600181019046006,0.0118408019641504,0.0112084609339466
-0.0193399723006591,-0.00560357244549294,0.00855973823723245,0.00521585089441322
-0.0131457022274157,-0.0184889844878693,-0.0003155552069018,-0.000626383693367301
-0.00758996261235814,-0.0237919031889736,-0.0130797883770778,-0.00545655808966581
-0.0278540504392497,-0.0249370053955481,-0.0287077188771244,-0.00881884582851351
-0.0707796002710693,-0.0251557846343067,-0.0418271594523937,-0.0114155183781115
-0.105115547959137,-0.0198465843025096,-0.0504902077267542,-0.01372060145175
-0.119618824558048,-0.0121606680876221,-0.0585806844427806,-0.0159570028534627
-0.122172053271574,-0.0170390553470691,-0.0649348642066813,-0.0182602258326405
-0.11403966184635,-0.0435178879506265,-0.0663582106085853,-0.0198836947203679
-0.0936844740390159,-0.0630069115762943,-0.062764252195951,-0.0198165901848322
-0.0726871747518764,-0.0572196832850306,-0.0551179284036538,-0.0178677218013504
-0.0681313301566241,-0.0574362868758773,-0.0470361186582012,-0.0149370744188485
-0.073102158623316,-0.0856493662802481,-0.0381127361466886,-0.0123227114800627
-0.0496427652484042,-0.112075023687445,-0.024182874274367,-0.0105139162812002
0.00345164218053357,-0.103119924758115,-0.00695802734567044,-0.00842744298333983
0.0414162036884003,-0.073700833910059,0.00664533297434151,-0.00460291699059335
0.0516442839556494,-0.0651796649472172,0.00971447110378097,0.000776142586901149
0.0478939149054367,-0.0895604948818422,0.00448835026740185,0.00549785233974617
0.0353139406074503,-0.107724150512553,0.000396316776341225,0.00690036887380994
0.0299023209489194,-0.0832665579393675,-0.000382440999861761,0.00460138431562133
0.047381725974373,-0.0153478366953365,-0.000764335478497191,0.000638031641321209
0.0815973707697729,0.0768585351851286,-0.00237191064766638,-0.00369771887736052
0.112478271438036,0.135956486756621,-0.00607941684515064,-0.00881956167106498
0.122192788490058,0.13966235452586,-0.00916098027004206,-0.0139649645175943
0.111347927205506,0.137700496161921,-0.0105149208667054,-0.0170433505061808
0.0739200298344002,0.109450041091704,-0.0128822410302685,-0.01727003337331
0.0043608875770203,0.0171613465964906,-0.0168288396287532,-0.0151680373237561
-0.0601980389477453,-0.0681945041875258,-0.0218312974530925,-0.0119265150577208
-0.076366579627218,-0.0861985132583203,-0.0258306049452933,-0.00866658348040953
-0.0526849743158389,-0.0790812023094939,-0.0275006423591813,-0.00512138467749468
-0.0239349898525659,-0.0877367502328942,-0.0270562442765796,-0.000622394773111606
-0.00190948810128753,-0.0906963372806315,-0.0240898586088042,0.00454410644182403
0.0163211866041224,-0.0735950987054846,-0.0194735142444,0.0100032715896405
0.0292964484549259,-0.047987477032981,-0.0141509632366375,0.0155319444584051
0.0382432619077676,-0.0236539284216991,-0.00864151955189087,0.0200131450194779
0.0508836576331953,-0.00647309475692354,-0.00310798873471641,0.0221203133976126
0.0722155794348816,0.00727873679096305,0.00185222708631989,0.0220822980953853
0.0977694533143053,0.0387622784277568,0.00561179096795027,0.0211624638018036
0.11635814786639,0.087586559947575,0.0108445044876642,0.0196229265560425
0.121309080562671,0.112147889062054,0.0184139745692953,0.0163531768851941
0.115995606950034,0.0959084610555236,0.0230085047249092,0.0108864496029145
0.106146931706291,0.063203045321812,0.0224982243548105,0.00444371123921019
0.0939140520712094,0.0418348768829487,0.0235387579888954,-0.00148159990365106
0.0815145223427912,0.0438061282154048,0.0302332971596133,-0.0051275680972882
0.0695305183373597,0.0489742997521658,0.0387458030500081,-0.00497171687731305
0.0571399749503341,0.0405941905794106,0.0453240375928172,-0.00280928465753157
0.0476390030489082,0.0368246190835675,0.0494271652213766,-0.00262116197581978
0.0432583957934141,0.0577881846229126,0.0520463399185383,-0.0066321844268707
0.0411595961189059,0.0912121714109424,0.0532673422465499,-0.013977625038515
0.0407998850692192,0.106189759199426,0.0542493485956307,-0.0199513311402558
0.0431358967917522,0.092167436970741,0.0547089608446524,-0.0198832404943319
0.0454946985786084,0.0674092639301407,0.0478392059525106,-0.0145176553506858
0.0426650112145332,0.0532355217355582,0.0335093003694846,-0.00764552451172862
0.0323388058223993,0.0491149770540805,0.0228096905056626,-0.00211335526950426
0.0245362040817613,0.04519604136164,0.0208896364287108,0.00142386333377561
0.0274463509719556,0.0398641055548582,0.024093804052669,0.00535040263484938
0.0355244468755063,0.0243254692033921,0.0294736122682034,0.0125392687250728
0.0434505628801823,-0.0111564596929843,0.0380596812656968,0.0221261532099891
0.0483706450234741,-0.0435583798112718,0.046363314297276,0.030238284733458
0.0456051080825813,-0.0414705435345151,0.0442625306609504,0.0339984593330304
0.0315031581121563,-0.0193172828569814,0.0258954464849207,0.0341283804043224
0.00440435987612051,-0.00111792439422173,-0.0046706454259317,0.0321815733928255
-0.0325646072497976,0.0234650210485039,-0.0316459843733323,0.0258139704065493
-0.0628566258272002,0.0696360211193055,-0.0368355350834945,0.0116707339192369
-0.0723469988194989,0.123028061339973,-0.020730759757231,-0.00875872074366162
-0.0699084702986699,0.143903046573767,6.03148459484698e-06,-0.0292066162344368
