-0.0095886232917438,0.00622122014758077,0.00107852331184245,-0.00302263972082077
-0.00915152620267173,0.00652797922807333,0.00307374227378801,-0.00317950688048637
-0.00919428192413473,0.0108677979374465,0.00721345203002452,-0.00266424647037731
-0.0110187432441443,0.0186163304553121,0.0111598014791132,-0.00216725343403495
-0.0151762373689202,0.0208517004866336,0.00937895315816966,-0.00194240968171675
-0.0212409256756379,0.019910290388826,0.00580845964147766,-0.00136853628333177
-0.0281392851718749,0.0218395398303715,0.00526019255430489,0.000101123838429354
-0.031785226790083,0.0229793516532015,0.00429454160522442,0.0019625781477579
-0.0276058518648205,0.0246755818980755,0.00305537430348403,0.00330335096750823
-0.0200599876629476,0.0321059512349063,0.0019555371998611,0.00369786937642128
-0.0156929439320747,0.0386898249588483,-0.000984312737604513,0.00321052125522826
-0.012626024281397,0.0372038884017442,-0.00550207629530291,0.00249803351839491
-0.00862089122641694,0.0308206260944567,-0.00861050945496397,0.00211962695716934
-0.0049366011120435,0.0238946841744395,-0.00742096220118846,0.00186317986265783
-0.00149283222473942,0.0133091845133992,-0.00312709599714857,0.0013017043576214
-0.00111463859140175,-0.00131195839186503,0.000661355979789294,0.000193376195823552
-0.00527552763356001,-0.0105552325340014,0.000985396175034422,-0.00113132299792488
-0.00962209589503077,-0.00929746240703415,-0.00276715986341818,-0.00192838814236849
-0.0105204900390531,-0.00556055411074374,-0.00717144893778282,-0.00191961661247426
-0.00780315798805944,-0.00953156037751459,-0.00682188572971241,-0.00128603993033531
-0.00594030699413989,-0.0207188037002555,-0.00117437835110785,-0.000368496834957916
-0.00555611092943427,-0.0295938538786678,0.00510840323603693,0.000619731147686098
-0.00244935782794649,-0.0300211672033115,0.00431666066983526,0.00169967814094644
0.00224823805792309,-0.0238896680773777,-0.00547786791119698,0.00271647090745905
0.00235293882013447,-0.0170711976614945,-0.0150529629438144,0.00326519205021244
-0.00256118789768916,-0.0154647325024871,-0.016272576313778,0.00304202913296825
-0.00424687914195333,-0.0172406824262414,-0.0116985667747507,0.00225408302160292
0.00113493918139958,-0.0211635533907832,-0.00668139336578427,0.00115133876186122
0.00725794565422321,-0.0287358741849159,-0.000883765317644289,-0.000220272014745898
0.00895076363092671,-0.0343489957697886,0.00350882506100272,-0.00142954482257669
0.0102639549376522,-0.0362528093737907,0.00231370476735524,-0.0020940425071577
0.0126796609234237,-0.033104389816035,-0.000709554551410069,-0.00221358519642365
0.0119017367576957,-0.0211456279337711,3.99239419775778e-05,-0.00204217237040806
0.0102466194360126,-0.0103169071374835,0.000200514166180719,-0.00214909891690716
0.0111663754416564,-0.0130072549686736,-0.00511267017174484,-0.00263806512018567
0.0120109267242455,-0.0253635825921881,-0.00768777472672506,-0.00287800299354488
0.00981008998647522,-0.0367092860268092,-0.00399547009605924,-0.00232411653837531
0.00516276403502005,-0.0445080567593564,-0.00059114394694379,-0.000726770622806842
0.00197120043471344,-0.0488504535899764,-0.000654231989794859,0.00146550114189153
0.00155579836159952,-0.0434987405612395,-0.00405228936421202,0.00326335380503626
0.00105847898889901,-0.029199260462385,-0.00622672748063198,0.00420870488549377
-0.00322070598829426,-0.0169964814164629,-0.00549715443110526,0.00419835969920488
-0.0108220041052066,-0.00832346475639222,-0.00484204032313447,0.00350060129032417
-0.0154846467929702,-0.000158357274404646,-0.00409245111138178,0.00270519792495914
-0.0142464758887958,0.00250028013237968,-0.00366858232066019,0.00175165158866102
-0.00860773074342424,-0.00176359107913709,-0.00437544951625763,0.000360313585902291
-0.00131404398185474,-0.01249707769134,-0.00440970418346128,-0.00111946517271671
0.00637718297816699,-0.0272656915208897,-0.0018615447151907,-0.00228056015424048
0.0169919252487443,-0.0338683016396464,0.00140374838507458,-0.00297208595015638
0.0289833628779615,-0.025661040558517,0.00122340146256702,-0.00309474437710998
0.0342727833090508,-0.0154713705809247,-0.00240362433470538,-0.00286668221090449
0.0291030630758543,-0.0167067044065155,-0.00517233091151484,-0.00238677469506164
0.0199148939612236,-0.0226498583293892,-0.00532103259510982,-0.00144125112401796
0.015604423749284,-0.02462159936148,-0.0050798357059412,-0.000275501205002508
0.0172655956943184,-0.0238965511536449,-0.00501803141864263,0.00044721891390084
0.0154304293368558,-0.0216940522766898,-0.00423960746977276,0.000249916104137882
0.00507716048535924,-0.0185023792303965,-0.00287374888315132,-0.000609293470888703
-0.00719646544076334,-0.00873780837538177,-0.00224438373252435,-0.0013528302745485
-0.0147702059578917,0.012239755223974,-0.000267306858850561,-0.00160969372492294
-0.0180373861879148,0.0264602144958976,0.00345300679893538,-0.00157923696458715
-0.0201084304346007,0.0169253719601888,0.00329618794355942,-0.00146403481309004
-0.0209611620886656,5.72097237096919e-05,0.00161918930379764,-0.00118243879008914
-0.0206991006823778,-0.00173127956847826,0.00190891145174664,-0.000577684539389418
-0.018234664199883,0.00520981560083565,0.00078262444544175,0.000111413126291682
-0.0111726172994551,-0.0044781373261357,-0.00254917037496624,0.000590778132011741
-0.00230619669876447,-0.0349569456410569,-0.00602953008403468,0.00109151280884573
0.00685967499862289,-0.059057598373897,-0.00739865468303891,0.00157988094352573
0.0173958678881099,-0.0598001767549195,-0.00877539901264461,0.00170288481789203
0.0253356065309237,-0.0449214380300705,-0.0121141129408868,0.00161732138074865
0.0281585788084251,-0.0278942150048154,-0.0132840760275513,0.00167532663616364
0.0279947052196946,-0.014041532277231,-0.0113580691737514,0.00176579124093844
0.0253614695174849,-0.00324487598215184,-0.0109034302589444,0.0016759610121423
0.019971224478166,0.00285223277555033,-0.0109528146569452,0.00137947490884624
0.0165468948625067,0.00316981522009874,-0.00961391746278169,0.000792126191680665
0.0165899782570764,-0.00240810457039038,-0.00825443374519629,-0.000101999651978218
0.0153937561003813,-0.00766082520823561,-0.00425966101168479,-0.0010624155260215
0.0132012955648529,-0.0093875842912803,0.00211589433808511,-0.00165596816112417
0.010155762075994,-0.00729783251557807,0.00757140036330076,-0.00165165112945377
0.000888131468001995,0.00724119558173883,0.0124997488057145,-0.00114695367952367
-0.0140098681791433,0.0303054730269983,0.0171292408016147,-0.000449420238164817
-0.0246932027734488,0.0433767225418356,0.0176098098843155,-1.21824217823648e-05
-0.0228860613993394,0.0339768076393179,0.0112588894135351,-9.20112827324865e-06
-0.00998056467251948,0.0110244467416437,0.00359116104080898,-0.000140240735783812
0.00577821016189193,-0.00549992833504379,0.000170792038206285,-0.000270796555770615
0.0160870092573259,-0.0155784262335653,-0.00153918972347073,-0.000446863651941839
0.0179933379466441,-0.030042044202563,-0.00319415433735264,-0.000277168827438937
0.0142567884269337,-0.0467926833022327,-0.00283475737365855,0.000345780603595689
0.00653943156063488,-0.0558283484671946,-0.0026127207436862,0.00102860250490783
-0.00227408760888548,-0.0559717991030023,-0.00433547916485883,0.00164661355117882
-0.00532678793120174,-0.0538871498645522,-0.00411591347329589,0.00209977231456279
0.000123561646488534,-0.0528112921094353,-0.00331046321501191,0.00227306695027398
0.00813121395451646,-0.0462926050955262,-0.00660916742429838,0.00223685581212078
0.0100786433455997,-0.03288833113589,-0.0120588761180481,0.00213937004322178
0.00473043343487844,-0.0282128792454485,-0.0150522616314851,0.00207680644446213
-0.00279329415616902,-0.0357401444346822,-0.0117037204684918,0.0017863991444944
-0.00873963832414063,-0.0373404114425084,-0.00249533591028357,0.000889471198224654
-0.0107128201682608,-0.0276426198092311,0.00732665826933623,-0.000462068167771072
-0.0100823736002069,-0.0149619605920515,0.0163424068002314,-0.00178872412220991
-0.00910288430720408,-0.000855493897792006,0.0237451019235636,-0.00285715087099267
-0.0052225526719547,0.00537017146790855,0.02347857889447,-0.00345666200009176
-0.000211769088041363,-0.00442178757008276,0.0156292304779025,-0.00322405958548337
0.00100207269276808,-0.017723972078011,0.00736257220915968,-0.00210866110524904
-0.000575172286710962,-0.0212379542319587,0.00319512748075926,-0.000511145540370543
-0.00300469451384749,-0.0124480471559062,0.0043423530145501,0.000870206413758693
-0.00496908886135024,0.00334786576929419,0.00794669449553661,0.00128847305133187
-0.00474384479493376,0.0250178598032241,0.0103303206987875,0.0005994741074397
-0.00666955755910946,0.0594937007390739,0.0142576752926413,-0.000546109460777528
-0.0138285170887094,0.0959234387582084,0.0181677055678299,-0.00135826508381733
-0.0199426353968922,0.1079465147072,0.0145225794086166,-0.00131189850910727
-0.0202183839085115,0.0886878420055869,0.00672706687964111,-0.000341900363373485
-0.0156489531118683,0.0521915465717351,0.0022154971451718,0.000972116490912851
-0.00881219622698825,0.0169126256939223,0.000670062751859039,0.00196651556539104
-0.00666321183090452,-0.00378444032277261,2.83281883891456e-05,0.00244662651711224
-0.0113334995384111,-0.0104837117463422,-2.5080736755544e-06,0.00244960678709928
-0.015242347013768,-0.00823687936258641,0.000630383606161025,0.00186625642911287
-0.0166371999874455,-0.000752968365589239,0.00262221321557632,0.000736402182054428
-0.0183849475469036,0.0061477161664889,0.00305771068009675,-0.000638068609532155
-0.0183382382176558,0.0115930326555456,0.000297999273888217,-0.00203169083038529
-0.015696861085694,0.0158884793583752,-0.00215782686229503,-0.00314438549714808
-0.0126283846499224,0.0179475028631921,-0.00316837084263428,-0.00348212225971681
-0.00986693884792583,0.0206208413075627,-0.00270451061486286,-0.00282233534946903
-0.00990629146926213,0.0251219705670289,0.000952779271987763,-0.00176336994753777
-0.0132774068462577,0.0293598944522965,0.00693855221485218,-0.00110084334256296
-0.0120579245245639,0.0299948853236551,0.0104810204045848,-0.00111615001932185
-0.00203519083987731,0.0264278166497541,0.0112127184603078,-0.00166252080655225
0.00919993504153202,0.0249227356757852,0.0140542727393169,-0.00218966922552282
0.0146016536870928,0.0285332208724291,0.0176710514312455,-0.00214029451789333
0.0159760770763901,0.032258111330703,0.0164600847438442,-0.00137004692005035
0.0157268801915259,0.0342841144224297,0.0128438203364617,-0.000185611988538858
0.0107913501435219,0.0380313630860451,0.0100306125904613,0.000886140770257453
0.00354970144885754,0.0423756332119705,0.0052933145638063,0.00148310654982793
-0.00184074570854309,0.0460620675590087,-0.00238328427993868,0.00160075456957665
-0.00524239744358057,0.0528666905523704,-0.0102313864035578,0.00147236941217421
-0.0054666852064468,0.0595603346951854,-0.0152828286941684,0.00140819190604825
-0.00409118920024309,0.0580766132125066,-0.0169431306302961,0.00154546377341567
-0.00304297303334277,0.0493857622034591,-0.0151855923464876,0.0016511355089975
-0.00284058635901073,0.0414798958235047,-0.0102559732352509,0.00146978813035304
-0.00471675487064148,0.03667481694647,-0.00474054838045632,0.000929999973024705
-0.00759485235624658,0.0318836297024918,-8.27142734215192e-05,0.00022791599150097
-0.00749569146434452,0.0232097967083753,0.00368211619397963,-0.000417104247379713
-0.0012264576230838,0.00988452415297874,0.00577113156840607,-0.00111499470270853
0.00735587561226537,-0.000745738458596101,0.00551800755728006,-0.00172476981935066
0.0118658131460139,-0.00498666544968158,0.00300621401404785,-0.00200040464616907
0.0118887425481916,-0.00953490940735921,0.00192474827703105,-0.00210815389941565
0.00961317935644977,-0.0210702462457535,0.00442273574586904,-0.00221156839949223
0.00832908088055653,-0.0340034124511503,0.0058493785625714,-0.00213916160279153
0.0097715342301398,-0.0322026518440383,0.00502823291856152,-0.00166260383420252
0.0121794833990925,-0.0122794618232364,0.0039748414321373,-0.000890339005810134
0.0128608391789545,0.0102971356316756,0.00153092267193085,-0.000172246726365503
0.0107789208960125,0.0239796906655235,-0.00345982774383831,0.000335671867586687
0.00962605177038819,0.027519875583809,-0.00968041337107659,0.00104306791703714
0.0112057760919689,0.022923027567116,-0.0132293569795699,0.00227177878638331
0.0140203780726707,0.0155606560702645,-0.0131525710865128,0.00338143867963034
0.0164628596930328,0.00695012910067681,-0.0127643159071181,0.00359977618152387
0.0172192333780066,-0.00335305411727743,-0.0141194876966981,0.00309912993244769
0.0175559839682438,-0.00925298525848899,-0.011427412926693,0.00231317397844983
0.0174630752476944,-0.0112266846910373,-0.00285047056906347,0.00113584919448354
0.016198774730586,-0.0149960717222237,0.00210582587192169,-0.000327492438325476
0.0138163130562977,-0.0194017485643022,0.000471791661434658,-0.00142117640242354
0.0100695682833152,-0.0214322006996659,-0.00306461508026422,-0.00171931853270047
0.00552885399911465,-0.0246927917703836,-0.00551357134107249,-0.00137985471643175
0.000458475372498855,-0.0308343932177422,-0.00561253338035308,-0.000927731253710163
-0.00556526402517902,-0.0306050850655187,-0.00264953799372693,-0.000878232829037212
-0.00984776775983888,-0.0206328439897282,0.000159754520157132,-0.00134744711768558
-0.010462898447981,-0.00813199716062699,-0.00103383025613806,-0.00159859925604002
-0.0101166667231826,0.00254693542182912,-0.00295743610593939,-0.000989329342945999
-0.00978979209730023,0.011752379644638,-0.00365919874171838,-2.92694376025442e-05
-0.0089837047314365,0.0180646178616274,-0.00451106649855609,0.000524670136192421
-0.00978751135752949,0.0172874109854496,-0.00603607529417308,0.000551325797280926
-0.0116969975920742,0.0104315967679774,-0.00897946840253865,0.000583812161860092
-0.00950270468716677,0.00666114660378583,-0.0106318214209415,0.00106367298010643
-0.00201874954012763,0.00964017008172576,-0.00778615092287654,0.00167808515198487
0.00577701711379909,0.0144185888245923,-0.00170744817904212,0.00184052321223768
0.0108001468518579,0.0156519883762304,0.00261701421874308,0.00109902071440843
0.0135955088996184,0.0116476698173212,0.00286447391845711,-0.000373909719065533
0.0142315042091552,0.00742872873711439,0.000823265382439058,-0.00162145112696708
0.0142316906695575,0.00374261036551127,-0.00379497432388504,-0.00194308601425624
0.0139724036823991,-0.00590505405537804,-0.00973972332383538,-0.00122651354733819
0.0116434724339957,-0.0202276855983402,-0.0123133034631849,0.000225590047609536
0.00720572653262124,-0.0310736995831591,-0.0118897274955406,0.00191389344274165
0.00139789720313814,-0.0359689205917775,-0.0107381017626407,0.00316550535140726
-0.00379052578019382,-0.0410121479313937,-0.00813806649879068,0.00322127352662002
-0.00685605958676916,-0.050596066029628,-0.00561254844788379,0.00190746231593747
-0.00967837498965289,-0.0609510465071179,-0.00364474074475755,-0.000310214151379764
-0.0139087883654874,-0.0670326616468884,-0.00201749982618507,-0.00246818175645186
-0.0165600610170856,-0.0644628505762564,-0.00206838656775688,-0.00370993711451129
-0.0153986140913035,-0.0496870750220419,-0.00099415313412038,-0.00424822122281603
-0.015401869695626,-0.0245942561800097,0.000858469632575175,-0.00452333004567331
-0.0174980739175141,0.00316443648663176,0.000154189574493419,-0.00384680854375479
-0.0153972723293539,0.0268314568081693,0.000314865162044678,-0.0016836475095309
-0.00982852781416078,0.0452268128660797,0.00160495501655328,0.00108442578768628
-0.00802985308277676,0.0582271162734399,0.0014586705665593,0.00316024948604756
-0.0116482000404865,0.0657456692769413,0.0017880112253891,0.00345318071056009
-0.0149288941467646,0.066513930176627,0.00245278516416487,0.00181565873744027
-0.0131724886586164,0.0577352099577063,0.00239337813638931,-0.000556028948496032
-0.00549569186852472,0.0374774700935099,0.00249802277639094,-0.00230313163201355
0.00409834027416829,0.00818646055224681,0.00276543453434342,-0.00285227801239009
0.0101016275818675,-0.0166699840452284,0.000345756087033017,-0.00253224117974364
0.0117973443369571,-0.0292859628995869,-0.00570355100184278,-0.00169029983874094
0.0103862918947903,-0.0337660229991653,-0.0114261575654616,-0.000561133298637157
0.007866421098338,-0.0336324348107783,-0.0144424246469787,0.00026383554821296
0.0048660029902351,-0.0359020503061405,-0.014261338318627,0.000531495541158495
0.00042369968187451,-0.0453154788868228,-0.0100078607052574,0.000430656000373175
-0.00338814846589984,-0.0545919922578744,-0.00250852351113982,0.000244470312071767
-0.00623925634035897,-0.0524846291655943,0.003210426801933,0.000141706475819586
-0.00926489028831844,-0.0368361278040529,0.00349002341547698,-4.40403849578073e-06
-0.0113006755906558,-0.0160264670409734,0.00178684516226196,-0.000124671288635016
-0.0124568151243652,0.00101313976641411,0.000910627237173072,0.000129674862057368
-0.013196719295906,0.0124078190010225,4.48569944591416e-05,0.000690795546170008
-0.0115948671085321,0.0207711574105647,-0.00115044958959384,0.000959979051183153
-0.00876913253769993,0.0265738043365648,-0.00290900461505442,0.000663879194868524
-0.00981421567472302,0.026183278224723,-0.00605952170604333,0.00015994931712065
-0.013582277411918,0.0155896040306889,-0.0103211188171309,-0.000211125330091555
-0.0138833462627177,0.00109258315714739,-0.010684351285495,-0.000349684297313672
-0.00934768917448183,-0.00566509232757385,-0.00478619395223854,-0.000346452140894135
-0.00538495342148165,-0.00354898388563965,0.0011426680097814,-0.000575622291668592
-0.00559802872039022,0.00118832774425864,0.00427640488619585,-0.00132118231362606
-0.00701117394973991,0.00216592024299567,0.00721269278449234,-0.00236058848684602
-0.00646268648309714,0.00120650876114796,0.00853647750957199,-0.00294180571402705
-0.00348161891933116,0.00463476543002102,0.0041029197277214,-0.00243802508879595
-0.00114700272438141,0.00847606121037829,-0.00342799486308509,-0.00116459936860189
-0.00262966957784832,0.00688035158819968,-0.00723351136333678,0.00036896415515084
-0.00750852139489161,0.00173564690383666,-0.00638016647670903,0.00196640093019618
-0.012947956422482,-0.00321745751049463,-0.00393454520046808,0.00310197097685944
-0.0143307436354605,-0.00495872626837018,-0.00181427196265803,0.00330464292222668
-0.00816779754221417,-0.00110683108163203,-0.00161601334132162,0.00249583171611095
0.00313140664760505,0.00254461183724172,-0.00363015053123429,0.000865311287468971
0.0116370362386497,-0.00217163000684919,-0.00596643939342367,-0.000744640842597136
0.0138831804779114,-0.00957294938539547,-0.00665790714001938,-0.00135089900243836
0.010564873761587,-0.0100002961340004,-0.00476744335256055,-0.000830125146554996
0.00411508428346105,-0.00493204902347509,-0.0025402948014417,0.000376114938743197
-0.00241825793040327,-0.000637332229415503,-0.00279701511552959,0.00185403148178994
-0.00855792384045273,0.000935399158846563,-0.00392530998929414,0.00310846272461798
-0.0133797633778825,0.000352072638642694,-0.00490804321540748,0.00357504650244392
-0.0166180569388281,-0.00287442279063153,-0.00533410461654423,0.00314196053368054
-0.0182607503056038,-0.00796330963433172,-0.00275960385332223,0.00207345173878383
-0.0174223441365908,-0.0105783523646307,0.00181056017942628,0.000610845730002532
-0.0128589797543717,-0.00904119177496329,0.00496691402176264,-0.000780761720576014
-0.00607239162737687,-0.00677929981504177,0.00456260254451746,-0.00172224348276336
-0.000613078933603039,-0.00386536491294659,0.00147462183019365,-0.00227685608817645
0.00469772565223478,-0.000265882549181483,-0.00154703229464366,-0.00241963459324642
0.0119158472383802,-0.000193534258000503,-0.00348961991248522,-0.00198684503804152
0.0180529857100637,-0.00101947535851742,-0.00435667056164944,-0.00118540583409595
0.0193119845180868,-6.22726242780537e-05,-0.00426945453099734,-0.000376381494371893
0.0160654360755553,-0.00081221036082306,-0.00532194423403248,0.000364109264261277
0.0114077368441779,-0.00101991167289169,-0.00760407373523539,0.000926399986976778
0.00616764460936491,0.00118707303927221,-0.00830956911519552,0.00126622780478845
0.00185994493764059,0.00164408085769278,-0.00735313333205011,0.00144020732628634
0.000851446326149185,0.000811394958003936,-0.0057347437380529,0.0012444874175382
0.00159624931624123,0.00103889895443719,-0.00365328150066759,0.00082296619154199
0.00301411123945521,-0.00180295042003456,-0.00206721121782172,0.000667643476410167
0.00529793359726761,-0.00814136872214474,-0.00121849759754972,0.000970941558797991
0.00677406104179665,-0.0137735206510417,-0.000505504439408439,0.00150125104262224
0.00652376876483846,-0.0176992146379492,-0.000167762597963851,0.00169335451693814
0.00705703834996944,-0.0202198492947672,-0.000862725080310482,0.00130842979353659
0.00940948247486175,-0.0233928852976701,-0.0012019266370282,0.000622289563673721
0.0110194781864732,-0.0260509866543222,0.000218663834457388,-9.30717471442409e-05
0.0116617016662972,-0.0229871005111394,0.000386551943893149,-0.00077610111739062
0.0118277405625273,-0.0149498569900863,-0.00259455604901499,-0.0013855393135453
0.0107053197311543,-0.00713669321695932,-0.00614302301328821,-0.00161589168699123
0.00930778303188134,-0.0021638073231855,-0.00911704574964869,-0.00129560059679834
0.00975567087323626,-0.0039322615904763,-0.0124374115558809,-0.000822058644425514
0.0126223125424826,-0.0184962800002586,-0.0164663659240844,-0.000512937896379413
0.0152955039499839,-0.0404264642364748,-0.018002061829488,-0.000211573329495433
0.0160501817169861,-0.0555456121258031,-0.0151960878735602,-3.40724455004969e-05
0.0145576953435413,-0.0582187040721809,-0.0117095474938895,-0.000230143305664899
0.0115348727673837,-0.0522591872594323,-0.00930757431438738,-0.000472673107041288
0.0091064269202464,-0.0405503732257719,-0.00831384173812402,-0.000380160171997091
0.00820687204075545,-0.0207443704228386,-0.00797729057557143,2.7591089994684e-05
0.0096661397359228,-0.00424749453895597,-0.0044971709788548,0.000551516659743493
0.011683754466038,-0.00590335710316248,0.00176820798034296,0.000838637366447698
0.0102825851775592,-0.0153019626257931,0.00596879414137138,0.000709584581290165
0.00363618922339826,-0.0189363701402145,0.0058300686351816,0.000540384726416953
-0.00608096895088544,-0.0185380194685934,0.00410779238381428,0.000707688529169481
-0.0129846454217378,-0.0190078860708096,0.00493814177308541,0.00102547329953738
-0.0143901593666518,-0.00810602435610201,0.00908657051502492,0.000917813808952001
-0.0127244970711313,0.0285815902356423,0.0161352923517941,7.24783143868642e-05
-0.0086667605517799,0.0740687499449324,0.0207892630288763,-0.00112508226105089
-0.00100080586269292,0.0944424779301943,0.016283010965911,-0.0019742623726459
0.00951359481134586,0.0660259985206495,0.00611249173645673,-0.00216927003068253
0.0205728452148016,0.00559147371672203,-0.00304945658023602,-0.00185218005130936
0.0275704633683547,-0.0414686228726415,-0.00723801599077363,-0.00126040420199934
0.0251163021179115,-0.0586465083220087,-0.00391853043313957,-0.000524384099697874
0.013975208475485,-0.0605029618985793,0.00302764755158138,0.000186865857117545
0.00236923407828821,-0.0575173382232785,0.00695034185918708,0.000477448814267729
-0.00293598439630535,-0.050163006760275,0.00546368867615732,0.000276469869432371
-0.00476132592512907,-0.0397546077596441,0.00118799881092696,0.000144868797988403
-0.00891671430407981,-0.0242387170284066,-0.000463043513892683,0.000425186712113174
-0.0123372224723085,-0.00436210011402653,0.00200969886857082,0.000641145838358343
-0.0118843384103716,0.0122662730508949,0.00387836045465596,0.000581408206134325
-0.0120456141640607,0.0264980156222868,0.00318774945016709,0.000529225267894864
-0.0128959916149344,0.0371930463224772,0.0040090672181223,0.000771452804548974
-0.0112258486240548,0.035014473541962,0.00669586625207001,0.00146862527438206
-0.00555639227704666,0.0193483184095583,0.00745426941937132,0.00209055845925019
0.00446597062360853,-0.00131222942889181,0.00570091845545925,0.0020458850406131
0.0164929974360467,-0.0158043584120292,0.00412139987133163,0.00136696707933153
0.0280956654267606,-0.017070840926806,0.00386415874084802,0.000434969811810018
0.0352061634732741,-0.0105561125606551,0.00419906475459416,-0.000277979238019537
0.0339045426785829,-0.00634408795090144,0.00405408746429364,-0.00060622224437016
0.027785030046306,-0.00433110966298637,0.00135777692647328,-0.000769957933353786
0.0238017589626535,0.000407939709816389,-0.00290542622056637,-0.000753076985648925
0.0224639433588935,0.00752609992721534,-0.00418143023206404,-0.000400894934506198
0.0181599337808207,0.016930612080867,-0.00110392646773135,-0.000111735433433047
0.00872569568544682,0.0305081475984499,0.00568055133709097,-0.000324174806056018
-0.003773539268537,0.0550247940919583,0.0156533045109391,-0.000985093425809164
-0.0162093918431913,0.0897141968089548,0.0240429717947611,-0.00194996255740563
-0.0244855366175059,0.112568363958731,0.0239545279471688,-0.0026795981554024
-0.0287741772608362,0.108585397691453,0.0151772387919098,-0.00225207949529028
-0.0301920115085309,0.0773134698484885,0.00510982415338464,-0.000546494619752139
-0.026394614884123,0.0273551442871829,-0.00086900490791884,0.00147327318722134
-0.0184822120788332,-0.0179616780989521,-0.00173318565603435,0.00295467490946561
-0.0133489150024943,-0.0381708678839629,0.00093462448373052,0.00362272243873913
-0.0122678494219301,-0.0306516318043424,0.00081089104003174,0.00334635281552588
-0.00942603142753591,-0.00905403679883841,-0.00418286497776827,0.00219330714773616
-0.00702814188212834,0.0136142846296364,-0.00804164482470406,0.000779583413594945
-0.00708331643485045,0.0340578605014697,-0.00804123141802727,-2.76767567783192e-06
-0.00404439455150164,0.0421495135753551,-0.00547199890553504,-1.48182967089645e-06
0.00136201978745713,0.0293537045815251,-0.00160839303921297,0.000185512062406269
0.00609108926646611,0.00797265997630842,-0.000105175656497785,7.65544047464777e-05
0.00806846045530647,-0.0032869001779768,-0.0025810068796839,-0.000278613232360719
0.00610633814201572,0.000239852501158103,-0.00698719986843199,-0.000677945703407601
0.00433570592079465,0.00510113898851296,-0.0112097539374046,-0.00111345336270886
0.00318365370995816,0.00142210017602142,-0.0140015174570435,-0.00144376563442689
0.00156899264314038,-0.006063805199114,-0.0163782690611439,-0.00127943123100431
0.00420157895300677,-0.0144612912347538,-0.0191158725816194,-0.000484390563108773
0.0119046971092699,-0.0248237445065073,-0.0198160563605818,0.000351837526890101
0.0170367244792244,-0.0362292965073147,-0.0158434950628397,0.000525267229989849
0.0131229035943716,-0.0415974727229501,-0.00888576546904447,0.000227730053341068
0.00351027050888678,-0.0310879617407112,4.3494522374142e-05,6.76389832386427e-05
-0.00497193122299596,-0.00675947117072728,0.0110385228780305,0.000173378401953438
-0.0102022815685481,0.0196901922104542,0.0202971382014657,8.28317881270661e-05
-0.0149160274986141,0.0405248490018687,0.0244531076368417,-0.000688652152291057
-0.0210698002201096,0.0493342127902165,0.023053237053549,-0.00171022873779828
-0.0252993996707542,0.0432664936174584,0.0182494063300113,-0.00219714102995231
-0.0256313126940819,0.0375046770679964,0.0142364090365011,-0.00188690904167764
-0.0223792394180403,0.0392619370080534,0.0123542073083266,-0.000964104192350578
-0.0195417411466774,0.0318884778472762,0.00862128781779598,-8.97813132874534e-05
-0.0225905600684627,0.0135101878099562,0.00121790821067444,0.000255919661944485
-0.0247968562311435,-0.000678382151354892,-0.00568158359642208,0.000254891291114512
-0.0210100123932339,-0.00813399423601967,-0.00929071849032052,0.000131748979895522
-0.0157711328929005,-0.0149958878988342,-0.0110833528356553,-0.000188231097648109
-0.0116450316532971,-0.0208464760971946,-0.0122822428487341,-0.000861234942103948
-0.0096548810856266,-0.0205216926031744,-0.0107367751177601,-0.00139907518262167
-0.0068317088446121,-0.0160321905604578,-0.00696447143367703,-0.000969885879225089
-0.00153130331309032,-0.0122868296191207,-0.00612837751684575,0.000192671831150226
0.00189386097980483,-0.00812778118037958,-0.00656132752701861,0.00116488600169737
0.00382765919291335,-0.00433415062966326,-0.00408804410543135,0.00150183674322816
0.00764260701549573,-0.00139385184025567,-0.00247876962600003,0.00120710228236628
0.0105618622017005,0.00132062872093073,-0.00387640061056935,0.000640440034239271
0.00877832495685967,-0.00012740436331047,-0.00365211083376021,0.000202171043695465
0.00271433908224513,-0.00379818240268766,0.00180543625731898,-0.00024634086475892
-0.00308124526047154,-0.00462021247785327,0.00998474899125418,-0.00108629966525688
-0.00298120988796466,-0.00486097636745113,0.015404495675513,-0.00206550112184307
0.000986157318291357,-0.006950847347041,0.0156142227608948,-0.00235759504324788
0.00253984391928404,-0.00994059821509163,0.0117205850473763,-0.00178507003939621
0.00103903211315079,-0.0108376094606578,0.00651288037657989,-0.000718620889485014
-0.00169866714245262,-0.00915538729680917,0.00333465116122877,0.000537749857236605
-0.00420706754251195,-0.010623360348189,0.00316625064200806,0.00132970013499465
-0.00616482627714286,-0.0145216238556258,0.00245439472946118,0.00103232562257713
-0.00837121745661084,-0.0125630033291931,-0.0014650141846173,9.85439630323515e-05
-0.0105289252975353,-0.00485239502629689,-0.00507014591804817,-0.000669031960778129
-0.0118886528835618,0.000974405756735176,-0.00532076581889825,-0.00109758205537409
-0.0118358995218695,0.0017402033858115,-0.00494291258409831,-0.00111888545787966
-0.0114264072440153,0.00350017175930532,-0.0054997674825146,-0.000757455694296355
-0.0112955249935841,0.00881927074731901,-0.00567381608783864,-0.000268043142270219
-0.00940695026751315,0.0117284585038138,-0.00416078521201536,6.90655774401201e-05
-0.00418181203070773,0.0140992872298646,-0.00253532670694344,-2.02713930596536e-05
0.00247789282226094,0.023671489051242,-0.00345376876267494,-0.000341501882529596
0.00787561204179012,0.0354279015966376,-0.00497905986944586,-0.00039649151754778
0.012061341425094,0.0356372481507477,-0.00460430228108409,-0.000170219401156373
0.0125073345849302,0.0228970116952734,-0.00234359116998469,0.000292093996001093
0.00673314489763547,0.0100052322840843,-0.00122858582281961,0.00118603401106819
-0.00138529623183345,0.00172611174302155,-0.00268203336078815,0.00244038816059383
-0.00732837856325492,-0.010646104578155,-0.00351069979017807,0.00354878400372679
-0.0102559234556744,-0.0263517750571522,-0.0019737334682121,0.00380536932512687
-0.0115208830820534,-0.0400046849840419,0.000499577326304837,0.00303043055450297
-0.0102977147159358,-0.0516595966641097,0.00296170921257218,0.00178123056286004
-0.00720031503768288,-0.0518248376392667,0.00545366758755488,0.000533718823818517
-0.007181068704825,-0.0354583528947298,0.00765105569526447,-0.000686282651907702
-0.0095547001075839,-0.0157517560814927,0.0107915550622289,-0.00178284529147702
-0.00765644991949442,-0.00154815998447955,0.0122904503697266,-0.002454497022993
-0.000526957744552602,0.0110275847311335,0.00916816407128373,-0.00255043136721944
0.00781770503110035,0.0241779017347485,0.00522177153982603,-0.00223353672946576
0.0128631844992773,0.0331265934974721,0.00441028698374182,-0.00211701237297801
0.0130070638657428,0.0291302685542394,0.00549913625780941,-0.00274543272427339
0.0128753633371433,0.0152617495182205,0.00205969167309755,-0.00358903889775144
0.0142469803422892,0.00647647903797533,-0.00632324901749159,-0.00321686785774254
0.013075591781827,0.00213275623474796,-0.0140847266023141,-0.0008512230833158
0.0101118706111701,-0.00662558425661244,-0.0181160980476903,0.00275797005052115
0.0079906496887906,-0.0180111635980755,-0.0175307856676555,0.00591489237162872
0.00540139129945311,-0.0257899590174257,-0.0125865485071675,0.00696492255987935
0.00392252755409222,-0.0277018616724428,-0.00379477721835135,0.00554518658869753
0.00291382237468455,-0.0297785544112743,0.00334675791117243,0.00279798369539031
-0.00117534963877731,-0.0366688143435148,0.00547276033233262,0.000159610001674567
-0.00696877180727617,-0.0400989750009577,0.00772656869608988,-0.00150746566732245
-0.0106867859666735,-0.0311290243250517,0.0116723536757511,-0.00206844106601896
-0.0124029645126109,-0.0149841174086405,0.0145626016300765,-0.00193663461763269
-0.0151113406761128,0.00355004746650948,0.016803471327818,-0.001608884314198
-0.0190491681308045,0.0263878806328058,0.0172322913676348,-0.00141235778435137
-0.0225274030271156,0.0443642736335888,0.0135278821119618,-0.00151247857370365
-0.0229761002972807,0.0444776434788237,0.0068883183161462,-0.00181601500263405
-0.0191552258955989,0.0315829471729633,-0.000147531255026439,-0.00193573014853678
-0.0117025491529806,0.0206127133721662,-0.00355779707869116,-0.00150689282611856
-0.00204266414524502,0.0172208510133505,-0.00224428385174723,-0.000606794002129636
0.00879452555949128,0.0188873899257712,0.00058955857200919,0.000365733026641859
0.0216285362486072,0.0224257656737286,0.00396143971651869,0.000982044090075363
0.0353716301001151,0.0266437472836749,0.00636903313540045,0.00102768593125702
0.0451229429230886,0.0263807243754503,0.00546002442696006,0.000835694699440834
0.042821091611715,0.0153575347433525,0.00202418434853025,0.000989430774051599
0.0283864101223756,-0.003251208210903,-0.00243006134507221,0.00147848307593784
0.0139366315760337,-0.0205073456735384,-0.00621962890632313,0.00166824829019073
0.00546860619207475,-0.0297244555382542,-0.00801641252608592,0.00119754508407733
0.000759839804667661,-0.0369747049813958,-0.00802908760409484,0.000201218442204409
-0.000819443190362524,-0.0508642817213939,-0.00880602614844481,-0.000991897545360023
-0.0018786437981195,-0.0621103616429996,-0.011266605578519,-0.00193928813334934
-0.00532907193840584,-0.0581407449611984,-0.0119988851418378,-0.00214947196134767
-0.00908573952808371,-0.0441981033825438,-0.0110693430861256,-0.00132797995953376
-0.010325074476909,-0.0293377856144006,-0.00982359106345018,0.000172967130368916
-0.0075762304409425,-0.014513628359436,-0.00609086659833443,0.00158765959730192
-0.00236364708491077,-0.00480145867983363,-0.000286865498309558,0.002055488113255
0.000982986794975835,-0.00760478906873734,0.00357922866793008,0.00110848060056351
0.00153747445320633,-0.0172906349767526,0.0031440866426513,-0.000454294164196371
0.00241818229857531,-0.0199468469008219,0.000779242043707176,-0.0015173821375908
0.00257031169986711,-0.00990043919550652,-0.00226316242480287,-0.00176811424086028
0.000854840954808506,0.00872561181030861,-0.00600794924035354,-0.0012735003809987
0.00211111758662956,0.0368345274661251,-0.00625709599865344,-0.000396508994853925
0.00336598202213863,0.0771894835928987,-0.00113811893015689,0.000206071670430839
-0.000659609980646009,0.107362886739557,0.00526214599968213,0.000287064777772077
-0.00135909120818644,0.0980334817311956,0.00818064542029793,0.000277776196730347
0.0104836636153656,0.0483024995785026,0.00610535412216371,0.000488507073756365
0.0265523136115947,-0.0145656249448188,-0.000667129720303703,0.000823914993965721
0.0333540400974878,-0.0585299792016276,-0.0080493254985604,0.00121395742360023
0.0325955436448052,-0.0799262836116307,-0.0092289645854826,0.0016623434136624
0.0317115466498642,-0.0939368465975879,-0.00560764941295569,0.00192628513786674
0.0322470662107014,-0.105615597172984,-0.00314555930682739,0.00171242061092631
0.0332384205061867,-0.108975521979335,-0.00372417268382239,0.00122953123163739
0.033371617331132,-0.0989530656976865,-0.00735509679977254,0.000749546716513683
0.0286590283879316,-0.078220224396421,-0.00958273417147387,0.000420228072859083
0.0153675768539207,-0.0528016434726312,-0.00582312984350756,0.000263972197792296
-0.00118339423300137,-0.0271535942824174,-0.000330557772722118,-1.7079504213046e-05
-0.0144753681703009,0.00279318840561273,0.00261778732116474,-0.000491982142013704
-0.0234468274289205,0.0379049797858113,0.00486442728671786,-0.000919806267614576
-0.027715512659237,0.0690069544061946,0.0062785938100078,-0.00121437238241851
-0.0269199951271778,0.0907457286978764,0.00665079826094325,-0.00143918997309622
-0.0211970372614068,0.0922194379008322,0.00790129145985537,-0.00154744896093895
-0.0123984677087844,0.0641384967118119,0.010011648066376,-0.00139625623405295
-0.00533949390937329,0.0254905183809501,0.0132643705190198,-0.00113018487581899
-0.00427708957128546,0.00440562914447071,0.0159639135671615,-0.000887467404354694
-0.00592738564347066,0.00554084226007086,0.0143568181219555,-0.000409146410464418
-0.00542426198017769,0.015127622259616,0.00737296267628703,0.00044352646963757
-0.00330060703773109,0.0221193770885323,0.000341567506284699,0.00147849816797365
-0.000837719427634165,0.0235810051003495,0.000864581838893973,0.00206041368378286
-0.000752290579269819,0.0155092154233548,0.00599382198309507,0.00163445824818345
-0.00169779926059469,-0.000865458814431411,0.00845035387562821,0.000724990775944658
0.00209995571719978,-0.0152647632076821,0.00876032214850852,0.000103136616299323
0.00747788794288331,-0.0181573508193828,0.00902103270652743,-4.35154589450558e-06
0.00913422043787056,-0.00579420156937839,0.00862900564371024,0.000368218303243361
0.0100260972487013,0.0134242044441039,0.00663766292910843,0.000852300511563765
0.0125256258564223,0.0238632999733514,0.00520513341046734,0.00109682795296311
0.0126858342962763,0.0239294572218382,0.00579711556367765,0.00095038449061067
0.0078944773732134,0.0238294671741937,0.00338991793825899,0.000459205783480331
0.000433047510211344,0.0249839958360271,-0.00205039333105294,4.75410446232631e-05
-0.00710698841306723,0.0245671852821883,-0.00398858912427715,-0.00012559030172913
-0.0155743602981202,0.0230108322253791,-0.00302264313029606,-0.000159774539860959
-0.0249360773434183,0.0203928248744958,-0.00447407896366724,-2.45872127488986e-05
-0.0322375843450865,0.0186057467280343,-0.00641470704353521,9.79263054556794e-05
-0.0380633140499478,0.0230564249514913,-0.00263364229627375,-4.62736623181157e-05
-0.0398468627671204,0.0293438351913674,0.00596053086166812,-0.000469931610626525
-0.0337374651871307,0.028897848982879,0.0138156610473688,-0.00100289374545845
-0.0241259896626471,0.0297397918349108,0.0194229576722318,-0.00153889614033542
-0.0166134050779306,0.0390213957602373,0.0215637905194462,-0.0018585328072335
-0.0121713628310432,0.0471764956023048,0.018145966986471,-0.00161105608736305
-0.00870786601050864,0.040030719343508,0.0131782679864287,-0.00085604121080281
-0.00516832564041023,0.0187103861748807,0.00839005468233758,8.18214534728402e-05
-0.00254327558575924,0.00392032313349521,0.00192872618194423,0.000993926940411852
-0.00225951168709824,0.00518227633488945,-0.00290457456448043,0.00183889512781996
-0.00189068631927995,0.00698871262549536,-0.00429319517300822,0.00249377735971017
0.00201373712387882,0.000404457445149791,-0.00395882318354376,0.00267355752833614
0.007047372711495,-0.00415497354512763,-0.00418187696937965,0.00248725032113306
0.00752749229874156,-0.00271514994054494,-0.00787956765845131,0.00205946358791127
0.00275352577892109,-0.0020932533301363,-0.0115293699316899,0.00127129491046141
-0.00377247244300006,-0.00446998033534679,-0.00990019999487151,0.000426686291426603
-0.00875943020011447,-0.00664706421095286,-0.00507732041479991,-0.000185021751200672
-0.00903231996502077,-0.00779003329547757,0.000223997252780399,-0.000723000083667662
-0.00719130500488823,-0.0103642204346091,0.00411324413760444,-0.00141165272309501
-0.00647597120632637,-0.0126731221182365,0.0051960770860971,-0.00212666260753582
-0.00557480943469243,-0.00964854742192531,0.00291790718026568,-0.00242375139376757
-0.00492861861285157,-0.00508852985822083,-0.00246631713730735,-0.00198874160904839
-0.00362284142639017,-0.00245507312195315,-0.00699504687444833,-0.000865969877792175
-0.00169320977169307,0.00454560906173262,-0.00643210138988616,0.000507506682437909
-0.00159889439849542,0.00943001657133052,-0.000443901123443492,0.00157664858570878
-0.00196981404567664,0.00196000391693235,0.00591649835236649,0.00203408333186602
-0.00271822131290883,-0.0123159712879555,0.00956717951419692,0.00190744050282424
-0.00362049078750127,-0.0253973587004319,0.0123998946635545,0.00144310085401484
-0.00300011233682403,-0.0328935055011678,0.0135262295929215,0.000635789779323907
-0.00243979035407247,-0.0338149135143712,0.0115394996790258,-0.000475489779265481
0.000662601070658262,-0.0298526087368289,0.00824229485595687,-0.00116822680472567
0.00677597920653984,-0.0246821983197313,0.00451628831403691,-0.000932504410402681
0.0102948133752031,-0.0266714860896939,0.0011522308883581,-0.000366450928403282
0.0117666521475891,-0.0373100891995212,-0.00126097400193408,-0.000118470553291327
0.0109700999075877,-0.0455216918382959,-0.00496232432695384,-0.000143203291759726
0.00666766366631784,-0.0449010458443224,-0.00928073435701745,-0.00045778396867127
0.00417193345838241,-0.0385488165360248,-0.0113991515041543,-0.0010124046819298
0.0071806331943519,-0.0307822834206439,-0.0108950613390138,-0.00142845277546613
0.0141474181186592,-0.0211920136805781,-0.00970169042823981,-0.00148436548548801
0.0238186150858232,-0.00680513965201891,-0.00885961646517395,-0.0013006761165102
0.0310322685550222,0.00454698245263481,-0.00695614351571743,-0.000880666010734634
0.028381410266921,-0.00209348701377354,-0.00487141570965752,0.00015347113070026
0.0185306080639384,-0.0224569613633114,-0.00339303762683152,0.00169175619038404
0.00710583109547212,-0.0353643038146973,-0.00158232587451408,0.00284244641272224
-0.00372861956177697,-0.0349882923671967,-2.74805197802725e-05,0.00302148721185018
-0.00894633248074888,-0.025610440321656,0.00207771859381244,0.00237594417992324
-0.009876580339575,-0.00134292037884922,0.00614606514184602,0.00108601980961838
-0.0114224110593295,0.0262652708693789,0.00855626479355735,-0.000725282233258135
-0.00798060999522538,0.0250200354158868,0.00543852138491702,-0.00231322692010394
-0.00227160990453824,-0.00148912797348276,0.000633002443773631,-0.00289440284279205
-0.00388248387977327,-0.0192234737920401,-0.00152473157905789,-0.00283461122276056
-0.00960611081523232,-0.0196495057668951,-0.00315000505958605,-0.0028004234449277
-0.0123000875321836,-0.0175418520436601,-0.00596943835362808,-0.00251998856507589
-0.00874668589493517,-0.0168046256898075,-0.008320287555135,-0.00145943385207812
-0.00186390174778052,-0.00484508437694963,-0.00842458289760475,0.000111238716859576
0.00238251857111886,0.0191749437297938,-0.00641002477121766,0.00142491890203966
0.00246938694074134,0.0299525043684931,-0.00500017652277722,0.00180551216208358
0.00137809106267863,0.0139738871061627,-0.00635646838077153,0.00119772516066534
0.00357656440458689,-0.00750361766468567,-0.00806044701544489,0.000467599404825713
0.0106104995366999,-0.0160235152557181,-0.00827951926679556,0.000251331436809661
0.0180433586602373,-0.0170956486682802,-0.00826513534886619,0.000347920415985337
0.0227467906713743,-0.0187991133947125,-0.00772377305093624,0.000520962287474026
0.024118980311939,-0.020567685109296,-0.00577282427738934,0.000534261512235186
0.0206133266281848,-0.0211165403111167,-0.00108628399928423,0.000284719522872659
0.0121767239385204,-0.0176957227062454,0.00512331661191097,0.000103119627331454
-0.000641842429346503,-0.00774975367585189,0.00855778840455175,0.000166923386224546
-0.0122874850853294,0.00442348379303981,0.0065400141129835,0.000223953389023951
-0.0158098732915782,0.0148140556760586,0.00159877966707419,-1.76426575353378e-06
-0.0118295942129788,0.0216415799609613,0.000528957657572484,-0.000344117775858148
-0.00622145687287285,0.0233077740687844,0.00267945586576072,-0.000653875541631576
-0.00378590300111848,0.0167909521657523,0.00234616788477472,-0.000875742969622075
-0.00367263473458497,0.00495936365909154,0.00117906221348,-0.000802895020269718
-0.00477636684950987,-0.00219141218681711,0.0023399279399735,-0.000580075241989835
-0.00725781697865118,-0.00323887377990762,0.00416517030836492,-0.000602089519525944
-0.0071495619064832,-0.000690840645457061,0.00422017944414552,-0.000815678632304486
-0.00359643394463366,0.00299080170197398,0.0029343931473162,-0.000801113568559809
-0.00176910842478105,0.00558464695864484,0.00182937284669028,-0.000519884393541836
-0.00138603213865543,0.0119709008586796,-0.00136697864108397,-0.000250161293532945
0.00150012683071341,0.0245612564424039,-0.00588758084963507,-5.82468046143847e-06
0.00586496599677945,0.037200420535569,-0.00656085858212405,0.000502024224679925
0.00849405984503506,0.0440235339405943,-0.0041353701998162,0.00115056635507053
0.00794302581577857,0.0463518326208952,-0.00059793214463601,0.00137785288385329
0.00718811193093795,0.0408685537460905,0.00277137201663419,0.000943915700592976
0.00841749473898308,0.0218782305048338,0.00285307052385726,0.000221174125985773
0.00929069652452787,5.2858323368335e-05,0.000109477634285389,-0.000272913114131103
0.00757388894559377,-0.0124682386537037,-0.0016782129272382,-0.000452563158639984
0.00457595177599977,-0.0170645129428526,-0.00168367660581293,-0.000284006738733082
0.00430164750058173,-0.0215973526092469,-0.00291824160241241,0.000318543871601903
0.00347225790664199,-0.0295700428385113,-0.00478995142157965,0.000940706270068395
-0.00361371572129219,-0.0399346569258441,-0.00256239417405658,0.000899862844552557
-0.0109079761575103,-0.0507495197241105,0.00595341046691192,-4.24433573142761e-05
-0.0118844672626349,-0.0536684118934562,0.0148122917793661,-0.00145274488708939
-0.00862872588644799,-0.0390949618464033,0.0173303072412455,-0.00261814076417599
-0.00388231619794883,-0.0113603431229678,0.0165948102394045,-0.00313870661862334
0.00136804251235298,0.0123683448633425,0.0166518526644989,-0.00307410286431652
0.00460875968423738,0.0243036896493409,0.0150568525545502,-0.00244450836018508
0.00592852731868839,0.0301302519377698,0.0109134802683923,-0.00136467937956868
0.00924803990729665,0.0333095795106736,0.0069266489792378,-0.000344143634863142
0.0129809122566969,0.0326475016284492,0.0052244223621509,0.000376305139943836
0.0139393159821163,0.0272376459251488,0.00598587593753588,0.000753491986644141
0.0127008651389153,0.0190879471449706,0.0081342112113372,0.000888266334926109
0.0112360765318049,0.0130494525610344,0.00939348263681019,0.00100516672651394
0.0125304767292359,0.00726154704006645,0.00782421563047751,0.00110636393131286
0.0148068717623826,-0.00450137607495885,0.00573035633523758,0.00117102684432705
0.0126676584640978,-0.0176786154749241,0.00691817151903522,0.00113255124233648
0.00570935699062234,-0.0222932777633119,0.00969602295880196,0.000857860947744652
-0.00335718255647057,-0.0165822001590898,0.00822049968492202,0.000408398102805439
-0.0103689888640815,-0.00795935932048551,0.00476081098123185,0.000175858803305495
-0.0139669659522984,-0.00247497249103128,0.00417839182141952,0.000209821338823345
-0.0163325976259143,0.00153296937031912,0.00560135673870777,8.14527348407311e-05
-0.0166592991318742,0.00668655860089236,0.00573186311886574,-0.000356912777598439
-0.0152857785099267,0.0119176310075048,0.0015117454630088,-0.000821215630397106
-0.0115660119747573,0.0142637382349836,-0.0039245510557109,-0.00103052519428751
-0.0040549257484655,0.00773918146876589,-0.00578579111503978,-0.00106879182137669
0.00526505201311705,-0.011455165801248,-0.00426208269868477,-0.00109783293460622
0.0141918192955007,-0.0345754213324193,-0.00243732153112754,-0.00111760932634669
0.0176926044584763,-0.0464561247463244,-0.00241035792520143,-0.00111334667678146
0.0148919454686409,-0.0427895287967645,-0.00312403113932493,-0.00109655405283126
0.0112869035606126,-0.0351667311279224,-0.00319092627625733,-0.000997767160894323
0.0108138925486041,-0.0336497662897776,-0.00184176429438381,-0.000837034933781558
0.0133805201139052,-0.0371228673997384,0.00222873227022429,-0.000726375029124137
0.0149085283798182,-0.0392313941240614,0.00584785852150688,-0.000663206831650898
0.0123222716465121,-0.0340736133443809,0.00504912856900356,-0.00054615284572456
0.00734602707549075,-0.0245285469366681,0.00236510171309147,-6.02331220237243e-05
0.00422122651252844,-0.0152879815794793,-0.000417962898192147,0.00104144786242363
0.00204083855796233,-0.00289710444042673,-0.00247427176075101,0.00243545532767505
-0.0017675951037104,0.0156482645159868,-0.00264558413256341,0.00328451029417976
-0.00368894172142838,0.0387037936703027,-0.00353926736638259,0.00315006679511002
-0.00139999790074677,0.0520026600623823,-0.0086373298558161,0.00242426224703689
-0.000261607068122708,0.0406736458253069,-0.0167030537144025,0.00163782337288296
-5.4983097813547e-05,0.010418096849218,-0.0241905194927772,0.00118459214922309
0.00377358141813236,-0.0271761021062878,-0.0300999995326372,0.00119147756305914
0.01004294776452,-0.0587371571426124,-0.03257824290074,0.00127784160006093
0.0161287834717778,-0.0712220281567012,-0.0293568633675538,0.000994664850009422
0.0192441888097733,-0.0641317287144285,-0.0202086518807946,0.000131512778770577
0.022457400369918,-0.0400348723777071,-0.0100661619568643,-0.00138428806095955
0.02624419784121,-0.00434382852758965,-0.00363662085549775,-0.00315286886840443
0.0221467511956778,0.0219122399181702,-0.00171693295622671,-0.00428979672123755
0.0104544193098779,0.029707361237403,-0.00385060521915569,-0.00422511724576665
-0.00206651018665018,0.0363349692827598,-0.0041055011369738,-0.0029939554924675
-0.012364389505968,0.0484320141960005,0.000803978432956356,-0.0010095518588195
-0.0170024485340023,0.0509920331680673,0.00700615037084018,0.00106295456615562
-0.0127096626279174,0.0298184217538807,0.00991899703646426,0.00257681483139328
0.000192916350301126,-0.00824237239010077,0.00669994376090334,0.00322008692845468
0.016859233736531,-0.0378205814150173,-0.00150610531334531,0.00308475286090641
0.0266714565218544,-0.0411680878005742,-0.0117924884225683,0.00254265923461227
0.0248132867398232,-0.0238071775345488,-0.0181086693284339,0.00217453615646004
0.0187001100553439,-0.000926463383038227,-0.017431326384718,0.00216858323066532
0.0135264987008629,0.0193391562950492,-0.0154525301326381,0.00197862522065411
0.009531738090298,0.0313274096782303,-0.0152139637983713,0.00128101738272416
0.00731526643748584,0.0355926516109546,-0.01417251454842,0.000335415872696871
0.00642049126863388,0.0390279164850305,-0.01198693323987,-0.000584292118764546
0.00392157580572349,0.0401258030793098,-0.0120402104175422,-0.00126199023962722
-0.00124137160281585,0.0326966498292123,-0.0152136418738557,-0.00153139505222253
-0.00567640975179107,0.0170155880536342,-0.0159603565905282,-0.00133756900507131
-0.0103354939471021,0.00570960097309006,-0.00933833508793261,-0.000635032009724855
-0.0143927600903639,0.00531229143290974,0.000641252713956753,0.00021766619013098
-0.0112055531280836,0.00746457736569139,0.00698209464066973,0.000348653618513549
-0.00389294300877958,0.0107776934902413,0.00781527079310377,-0.000571059798630866
-0.00083970035335122,0.0142544949484445,0.00691632084903812,-0.00181410959185374
-0.0031149859753182,0.0104690161857347,0.00792717447114201,-0.00243299899281148
-0.00502691572415045,-0.00144523078583636,0.0115086328392693,-0.00222225219547335
-0.00414887875890646,-0.0122897764978239,0.0141212947111944,-0.00148191017356422
-0.00458820873039829,-0.00907896405948633,0.0125798335433464,-0.000280798822385884
-0.00871681529574285,0.00713801073108339,0.0094547919247536,0.00116051508505475
-0.0138524208234896,0.0242527455077814,0.00603846433681371,0.00238522534531255
-0.0185981313218084,0.0388447699784926,0.00382288636902633,0.00312812340318787
-0.0238287213075518,0.0504790544977428,0.00435616150564183,0.00330290904180491
-0.0269453640610538,0.0596180235377363,0.00721164388814042,0.00282265946602534
-0.026098127607775,0.0712280343780023,0.0133728756258939,0.0014305107696248
-0.0233554271090491,0.0760101871641839,0.0176493903350771,-0.000675439088413431
-0.0201378970489181,0.0593233653441197,0.0142672681929754,-0.00272793469972192
-0.0162564540103194,0.0311278927254974,0.00798395402321178,-0.00400053185111237
-0.0130567472575458,0.0123654994155118,0.00457583868007957,-0.0039989780374201
-0.0112944905541588,0.00456312074487461,0.00285800523925123,-0.00282503864967257
-0.00950930542429371,-0.00156118085437845,0.000280423364045778,-0.00104008938921802
-0.00766773811759281,-0.00585840004339437,-0.00279705232293087,0.000648836998354723
-0.00534085468458094,-0.00580544792237171,-0.0054952183397848,0.00173863716984246
-0.00243986165966495,-0.00357470178674506,-0.006377019446634,0.00226723490551278
-0.00115510295555265,0.00250649872038464,-0.00362178630221525,0.00217559901730004
-0.00259548300281548,0.0151182778124373,0.00177931943758794,0.00134013415501101
-0.00589256862943325,0.0244151215026699,0.00561206283624293,2.79280579880544e-06
-0.00929638626144923,0.0203379403821733,0.00734315500910382,-0.00137725228233483
-0.0137966398385764,0.0089693341629166,0.0099932906518229,-0.00207029275888725
-0.0190201383815562,4.67432516413555e-05,0.0140254134808896,-0.00159911694487841
-0.0218829515660878,-0.00278641425969137,0.016290529110006,-0.000531442453412862
-0.023081323609636,-0.00036403002277877,0.0151009457449073,0.000352213038380846
-0.0244388765689041,0.00514526800318684,0.0124535814053441,0.000978044922728771
-0.0244807328105354,0.0113619924051608,0.00879027650539517,0.00142233889278908
-0.0243248776892988,0.0145210863269482,0.00405286109477974,0.00165275391621637
-0.0264185551450392,0.0168567925931865,0.000685010140317965,0.00153901810752553
-0.0273312777436833,0.0200801331408274,-0.000694922837501302,0.000744348989737664
-0.0234639771393883,0.0223501907658352,6.56281083058928e-05,-0.000830491519718485
-0.0163735927431667,0.0245667244371859,0.00381769109303043,-0.00249337100129153
-0.00855385183841109,0.0256139030886015,0.00682162991183444,-0.00329282902654384
-0.00079859763221766,0.0251575740472894,0.00657851781717549,-0.00273830411810019
0.00334271283696279,0.0226935854609615,0.0053050115924431,-0.000981739729297045
0.00112508990305947,0.0163276323989473,0.0055725861913662,0.000999080333712215
-0.00332214940193721,0.00838487530225981,0.00698804201722645,0.00216040540745562
-0.00584815104586583,0.00343670404350545,0.00746248020994706,0.00227623756511375
-0.00656120494011648,0.00133753227015205,0.00708813876198614,0.0017777472601384
-0.00552344202258473,0.000273332533920645,0.00666060242685129,0.00124587533174623
-0.00144664101955603,-0.000348733883308056,0.00522170692122099,0.000895733023389334
0.00411259709264394,-0.000403398121956238,0.00275314529671249,0.000621701324318443
0.00627138388942571,0.000552684637657551,0.0014033299938192,0.000380260457611727
0.00552170515979956,0.00074014653856966,0.00135139625137104,1.85410964028926e-05
0.00511620798533079,-0.000228041078688172,-8.77033776725614e-05,-0.000354082081945576
0.00362891232771935,-0.00295504211717129,-0.00266485191438826,-0.000463883837652889
3.71997131682067e-05,-0.0069825848145465,-0.002981580857497,-0.00037071041505654
-0.00424936936169623,-0.00868797237249898,-0.00125673752668666,8.89246511478219e-05
-0.0068649044174109,-0.0090787378582947,-0.000599560689251519,0.000936543214724861
-0.0056655869823541,-0.00997408690628919,-0.000780401837905413,0.00158043763981666
-0.00227830631638278,-0.0108978401109948,-0.000197184354054996,0.00154884821178354
0.00198758049343705,-0.0130963776891197,3.9757483826292e-05,0.0010472471029108
0.00687828251676395,-0.0150091574455785,7.83203491948464e-05,0.000572491243083166
0.00841757015991318,-0.0162931176154212,0.00112182554117097,0.000353655136828733
0.0064423252964869,-0.0190888688046811,0.000795979273114623,0.000360236706708412
0.00385464436154415,-0.0210953407418629,-0.00191387639962486,0.000268933712703263
0.00270226921930696,-0.0188422621888576,-0.00350159782633089,-0.000235038133807125
0.00588929123169609,-0.0139196230687596,-0.00317936521719919,-0.000872134806081075
0.0110605770260383,-0.0114489765520207,-0.00333891702401526,-0.00115690655638523
0.0126879010358584,-0.0100069520442624,-0.00413715926732409,-0.0010254752101028
0.00625384836643314,-0.00684181121295726,-0.00526577802399326,-0.000715588771956951
-0.00474816131634819,-0.00480718539320224,-0.00719578855921277,-0.00028562480290363
-0.0107054063764701,-0.00260762837143765,-0.00720290107030133,0.000594345429972973
-0.00995601413900879,0.00238673531451284,-0.00560110300688095,0.00176747510599181
-0.00557392332696535,0.0065837026225198,-0.00679893579784705,0.0023032230060192
0.00119748925681698,0.00493027776466248,-0.009357502426551,0.00215953874449173
0.010336207427003,-0.00201075517131507,-0.0104640060693331,0.00218020150804581
0.018911663699559,-0.00701940329505066,-0.0105411512085997,0.00228919347544717
0.0226144723264754,-0.00728441537662193,-0.00997850899120938,0.00178100946464996
0.0219912969051415,-0.0070526269362805,-0.0102683674105162,0.000692942161446903
0.0211236072538522,-0.00744707908392462,-0.0113371218539101,-0.000342915669055616
0.0196007008160806,-0.010823224571419,-0.0111179724808634,-0.000991672265868997
0.0173576961658022,-0.0214527481811594,-0.00819455251920495,-0.00124526276588242
0.0183476589379546,-0.0351249639587339,-0.00508856256038683,-0.00123180228085195
0.0190036080993624,-0.0397604799919179,-0.00605622288958189,-0.00126017336518908
0.0140116163521872,-0.0330520031301921,-0.00645815478070332,-0.00148415578266109
0.00600992159911857,-0.0258895716288765,-0.00155427074676448,-0.00175184579564142
0.000533608159093715,-0.018072380347229,0.00530632873575533,-0.001954705022257
-0.00043811569653885,-0.000812326197845832,0.0100441939397558,-0.00188679102926678
0.000614773080790458,0.0179799167725304,0.00766138648297391,-0.00129148089768639
0.00156018006822673,0.0238933872464127,-0.00117895945923193,-0.000383869513206871
0.00189093354441636,0.0198135551510161,-0.00703624027374436,0.000480154832746095
0.000781638018218526,0.0142218988035008,-0.00820982363853366,0.001163024624625
0.000440288795508012,0.0092006048642441,-0.00770299487938699,0.00150277785152812
0.00203928479191272,0.00970274514005104,-0.00509702802959176,0.00150522679356914
0.00474826940642764,0.0178312871949144,-0.0024094130892089,0.00126860992422489
0.0101269417196944,0.0262508976757367,-0.000514681906516277,0.000688584571592222
0.0165212973466316,0.0265725225251415,0.000185872117159876,-9.65752927380549e-06
0.020138129499916,0.0185383991505046,-0.00151488192061389,-0.000525433786664218
0.0198257298962385,0.0125743812631692,-0.0038921121377922,-0.00099168283475473
0.0149839853785164,0.0109517096689315,-0.00282121507972151,-0.00154128817073772
0.00740795710020954,0.000254863554550538,0.00424974124007454,-0.00205783364107472
0.00214222141547865,-0.0214475881254339,0.011522748585133,-0.00244301201258251
0.000611288880858814,-0.0383531135635164,0.0133379234940506,-0.00257440973809441
0.000591250527304275,-0.0400944612287795,0.0114353614209342,-0.00210640874174354
0.00184320484358684,-0.0284768152938995,0.00676571816837244,-0.00108691271319868
0.00483576188288547,-0.0141715194010696,0.000897990579774074,-8.92514280824469e-05
0.00837863664555446,-0.00429295987456562,-0.00126248488105391,0.000550353826526124
0.0114604853908104,0.00297869733187429,0.00208841292213849,0.00081051897461457
0.0120517758247515,0.00922888152868831,0.00665347486631069,0.000652383496423616
0.00913674300115288,0.0143285336491527,0.00948021094647829,0.000247118351799769
0.0048711368400554,0.0177865586099035,0.0120593573709249,6.95066020231644e-05
0.00216775477197327,0.0213614675817007,0.0135692653124145,0.0001517992668312
0.00252184157935333,0.0234179596384037,0.0116719849944951,0.000134599412704826
0.00418990647718702,0.0188022102664017,0.00895902190871687,-5.65253234948982e-05
0.00439476107388002,0.00876813544233993,0.00730114570802456,-0.000254205816808111
0.00215132972164015,-0.000309812827578141,0.00542228656492839,-0.00027659489068605
-0.0010046078434674,-0.00662345764259146,0.00590565237315192,-0.000340630504644037
-0.00476482137756465,-0.0101789991435242,0.00908973537186331,-0.00104564514266243
-0.00994587101628783,-0.00892802363401454,0.0112669438064673,-0.00250160783151258
-0.0133909700659354,-0.00321168511054357,0.0111374363087414,-0.00399288388839337
-0.0109103974483922,0.00321883072232096,0.00872149010752735,-0.0048297102857986
-0.00460609900429128,0.00588323794930068,0.00496479409945995,-0.00474467744370372
0.000707199021377154,0.00527581394271768,0.00276180655832837,-0.00353514853222652
0.00386905796285467,0.00510177541383358,0.00354122921112969,-0.00139062543787884
0.00527538600995344,0.00454610603934179,0.00533920716163423,0.00104519904177045
0.00535767360054058,0.00163542119336921,0.00570247189472975,0.00322203140095986
0.00523704888168173,-0.00583112511103336,0.00469038693863783,0.00461027878950019
0.00632834053008671,-0.0211918657607807,0.00643572889692602,0.00486314801151228
0.00787884878344769,-0.0375621565875171,0.0101780306515998,0.00412229362848257
0.0093436465157598,-0.0455368121610582,0.0084420245546166,0.00282267292982037
0.00978328009576042,-0.0467716206577936,0.00269522218136794,0.00158170911404554
0.00856747190412993,-0.0469292697752961,-0.00104907866269346,0.000938860151780692
0.00656692478098106,-0.0472395405879848,-0.00238084867463927,0.000803376357451932
0.00193711072485315,-0.0443069167621011,-0.00162699378439638,0.000516486169758885
-0.0022724377627782,-0.0340864711973992,-0.000162451127260979,-0.000300303428446409
-0.00178014016077908,-0.0162383520394434,0.000242915921288583,-0.00145588796089945
-0.00062422598874012,0.00156498785628136,0.000767253106912609,-0.00241423526494853
-0.00166341298187656,0.0131819481905847,0.00185168021736813,-0.00273839950857161
-0.00327420573980383,0.0226413616381425,0.000545717422421119,-0.00246193334386901
-0.00591310214494268,0.0398103811178255,-0.004283483926319,-0.00161522016906355
-0.0127842958762566,0.0655896636797287,-0.00899303168852213,-0.000320943922237135
-0.0224865675805079,0.0832796546256925,-0.0099600945907738,0.000582178639341326
-0.0278896953169147,0.0800360009510014,-0.00824306957692395,0.000496505314767392
-0.0236875081354716,0.0537786153896781,-0.00573708400303143,-4.44298813781872e-05
-0.0112520202515001,0.0112863262990083,-0.00184772524071833,-0.000364826157813599
0.00297477893705962,-0.0352268926863593,0.00221661724240684,-0.000487852623360698
0.0153874443701949,-0.0782586880624281,0.00434993156050271,-0.000719144545222917
0.0221430181168243,-0.101412707137376,0.00318564191830702,-0.000721548732168006
0.021518532817001,-0.0893796547918234,-0.0025432204381935,8.1180709793825e-05
0.0195692279287673,-0.0559829082753688,-0.00977700961044407,0.00157687924164198
0.0200557378278251,-0.0259008510618225,-0.0157895937942812,0.00329592815762504
0.023445114927607,-0.00872878084623208,-0.0214150413906104,0.00454348210430832
0.0285477181399268,-0.00626762003941649,-0.0270794181368385,0.00472928541711288
0.0290963254894089,-0.0149255871618501,-0.0321400427383832,0.00399336685701311
0.0210443189944987,-0.0268925437699869,-0.0345744386141731,0.002786159057555
0.00930003572491051,-0.0320046990173799,-0.0330518326172877,0.00153883442899218
-0.00202145952568635,-0.020901448340008,-0.0277137687179122,0.000550463932557978
-0.0152193823834956,-0.00305079862449729,-0.019189815506418,-0.00027213377690462
-0.0289973870618518,0.0157398186479311,-0.0079360680096306,-0.00116584622641376
-0.0370135626587046,0.0439929299814036,0.00300222584313305,-0.00219269450356467
-0.0359927263343252,0.0679834167361486,0.0077597396596314,-0.00305410353950357
-0.0284265752930193,0.0660562341736955,0.00515101346855629,-0.00328322608048172
-0.0179636769633823,0.0387660258335882,0.00226010233221055,-0.00280110660634159
-0.00773222725082354,0.0104504356527313,0.00356000471406865,-0.00190993510267834
-0.00135542563293757,0.00566047469584039,0.00705377054440729,-0.000890581971007005
0.00131554165116456,0.00742109058432794,0.0103383498608479,6.35514148464083e-06
0.00480037002767226,-0.00512541799669276,0.0116597452771115,0.000662985180013895
0.01391451923048,-0.0167488392951888,0.0111642564455699,0.00115256835078585
0.025307994799182,-0.0178893419368443,0.00753994999035048,0.00136117587215133
0.0335009238005762,-0.0141679106087501,-0.000672651283882636,0.0012501325216894
0.0401513559433489,-0.00886526173487029,-0.00938206926152249,0.00122995158582924
0.0410836223948276,-0.00600356260352227,-0.0143284295132642,0.00138913869465003
0.0303072805298615,-0.00852011834538329,-0.0161950044273339,0.00148055980973414
0.0122416483474213,-0.0117520904971729,-0.0149220677710161,0.0015065103257282
-0.00573245479664653,-0.0113935683040848,-0.0109962778383839,0.00136088175175407
-0.0174043698986033,-0.0134490799082565,-0.00626352464301564,0.000919859075567013
-0.020840350299908,-0.0207994911651265,0.000609208033233974,9.8484817096831e-05
-0.0174550146486926,-0.0283127046239422,0.00590248626709463,-0.00100541928904134
-0.0100461402853179,-0.0288986795786789,0.00595077891379594,-0.00174230076324523
-0.00634378634539712,-0.0201786103815942,0.00436063784968397,-0.00184921606556112
-0.00742491406533613,-0.0119811445053706,0.0034241204562493,-0.00178223435747926
-0.00709456130765247,-0.00869331374159069,0.00366026789245213,-0.00171269635933605
-0.00412814112945868,-0.00142687594067193,0.00414270551862506,-0.00142285115726842
-0.00125563446855796,0.00783557937644017,0.0048250296935013,-0.000931133095406419
-0.00137817245759474,0.00761061300505507,0.00565516570811842,-0.000642195484624405
-0.00314165780840223,0.00357402236181436,0.00572954664517282,-0.000693985066603637
-0.00357522530205752,0.00692522438877234,0.00651469271324004,-0.000723386400399634
-0.00428473082834339,0.0127525213366312,0.00905911097229693,-0.000624800755322219
-0.00798709900510816,0.012492020225205,0.0141094461408728,-0.000637740092594739
-0.014850373067376,0.00686901680973964,0.0198713842976214,-0.000763784509029833
-0.0192872478789577,-0.00183554194255627,0.0230044322488354,-0.000701710351828718
-0.0159412430495223,-0.00799654494310095,0.0229659450970312,-0.000561983518482794
-0.0102734983587166,-0.00469446868370531,0.0202989620564906,-0.000734329732397088
-0.00900534099296208,0.00374598834629031,0.0163968660698592,-0.00082540569647031
-0.00954414190939879,0.0090577452523611,0.0136466963477291,-0.000127787643444639
-0.00851482474940476,0.00870915573568338,0.0117393875777477,0.00100578712933578
-0.00720039783418275,0.00624127046270595,0.0101960383060041,0.00164356857509012
-0.00580280081900312,0.00345619354755182,0.0090840895775073,0.00158315154097593
-0.00271082085493795,0.00014280822706169,0.00693208550764624,0.00109627753032765
0.00319930210521254,-0.00180662820523554,0.00406515011489634,0.000476461343746921
0.00904744405686373,-0.00250512183944151,0.00232065948219457,0.000138186419400871
0.0105192523093148,-0.00217307744982641,0.00377482972111512,0.000413521652074527
0.00919942784650168,-0.00170014076119759,0.00725876101507329,0.000892110569917148
0.00707745187828998,-0.00296156295918166,0.00973463403719316,0.000822788408895349
0.00319926793095882,-0.00535449011388853,0.0114683676560672,0.000352612722314144
-0.00303188275477924,-0.00826736559683048,0.0123087125086909,-8.00117254396888e-05
-0.011771276985006,-0.0117326324606928,0.0111666545609964,-0.000489742037658406
-0.0199377273196694,-0.0150669838805631,0.0113028815018636,-0.00110948403509624
-0.0258015158647045,-0.014747627141138,0.0123247238327715,-0.0021530376277751
-0.0317164240672674,-0.0059160558894081,0.0106467220905068,-0.00302623775410622
-0.0384811464095017,0.0079257515617393,0.0102883058120223,-0.00257812338931733
-0.039919827057027,0.0182221999299115,0.0130278108551987,-0.000640744530572022
-0.0300499250207903,0.0213118715089226,0.0138954327954557,0.00158279250616658
-0.0154055633842232,0.0206544493079672,0.0125417773123592,0.00281864366558437
-0.0053418378742136,0.0216136402762044,0.012572811446559,0.00289787655745123
-0.00105379828159652,0.0228945160118428,0.0126544527746376,0.002471044959323
0.00447820315318432,0.0197229560036115,0.0087876907547719,0.00209570953047073
0.0142141876299528,0.00952231591723204,0.00427979088344705,0.00177427363831534
0.0205108988995456,-0.00439099990259582,0.0027028069991435,0.00142345855860756
0.020642506478728,-0.015336366264715,0.00137145817037671,0.00129782945247975
0.0173044153375498,-0.0217580877103062,-0.00145248301891792,0.00145899700749693
0.0100910748022864,-0.0230824248687265,-0.00338759217458654,0.001573703393398
0.000355100433074166,-0.016134541076239,0.000490875998218419,0.0012254241483276
-0.00927004237165522,-0.00431351116965117,0.00805279589572716,0.000378532854659412
-0.0171549548132036,0.00859401441306216,0.0144810929128142,-0.000481898838161
-0.02059795508738,0.0242681424190853,0.0181611767073351,-0.00117103745819276
-0.0190887593275048,0.0390741335979176,0.0169855958769166,-0.00187234913637088
-0.0159015855479632,0.0471570711222066,0.0122524786524355,-0.00237666376978225
-0.0106904217093361,0.0471790814085503,0.00797529879201867,-0.00220864427301364
-0.00293515444628564,0.0367490106845811,0.00500733104910056,-0.00120011378232736
0.00163133508134891,0.0179507863424732,0.00346388071036202,0.000491308938482256
0.00214893975655906,0.00378430053404454,0.00451310609917671,0.00228404953345912
0.00193689425098254,0.000888920277600062,0.00610889321643441,0.00325786885694787
0.000484968537845596,0.00172783018829344,0.0055399624291534,0.00297569638361475
-0.00126846751927004,0.00198935636288534,0.0030353578890364,0.00189193568155882
-0.00263337250737009,0.00504309394390335,0.000765853099836881,0.000823907859207715
-0.00524004070286184,0.0111303091115874,-0.000132849456453513,6.61079247148322e-05
-0.00945514033020038,0.0153154267082568,-0.000861991761651557,-0.000460121153113617
-0.0133295685913118,0.014829087655255,-0.00296807336533859,-0.000593525302959423
-0.015831470156426,0.0121053909068059,-0.00671914844129017,-0.000228794644648416
-0.0176509663833472,0.00943896920645898,-0.0111833979619896,0.000353401752624972
-0.0142754462210965,0.00612059464474939,-0.0156028102243604,0.000677960858770995
-0.00668424302970718,0.00101116249731166,-0.0178335938653128,0.000495052936756244
-0.00410733210935916,7.54705777919334e-05,-0.0142932607443548,-0.000114995851369256
-0.00505147383683478,0.00861746740874388,-0.00758881129382948,-0.000864056963347417
-0.00336517231490426,0.0175748018182873,-0.0058529659739473,-0.00139869928908549
-0.00130534539575429,0.0211541657477421,-0.00923179000985645,-0.00162854655185638
-0.000361273351217584,0.0266311773308513,-0.00852261453568263,-0.00158230008894682
0.000811010338773835,0.0343188664462952,-0.00307946355604419,-0.00133271620951423
0.000565490470919161,0.0369447983675521,-0.00125234513742022,-0.00100534978535414
-0.0024191553196269,0.0320103455110133,-0.00361986380033622,-0.0005322151516312
-0.00475341675898407,0.0158043262632707,-0.00666259300875565,7.37908711314665e-05
-0.00444566601450543,-0.0111098722646646,-0.0100910365972979,0.000610205800441689
-0.00610938364364846,-0.0336642666579964,-0.0109923400509153,0.000922540369388791
-0.010261853488719,-0.0415416962369388,-0.00911407627986842,0.000917429052177727
-0.0136434241044104,-0.0401175995942143,-0.00979377901112732,0.000680594279651472
-0.0142026231741277,-0.0381371857217938,-0.0122744171651995,0.000360537399781645
-0.00768069358660662,-0.038954099547648,-0.0140707016390942,-2.89707709102529e-05
0.00425105397858283,-0.04134288543589,-0.0176981192613714,-0.000490591037336724
0.0123084980075026,-0.0430510888285812,-0.0218118341131337,-0.00100915276371819
0.0137705085129942,-0.0411485989984066,-0.0223024593869099,-0.00140753142561513
0.0101327636612894,-0.0326437948555907,-0.0203661842736369,-0.00146114472321583
7.9922636451419e-05,-0.0153559685737471,-0.0166236828288141,-0.00117685132858308
-0.0114926814962334,0.0116690863108574,-0.00842384036014225,-0.000902675822853898
-0.0166435543873073,0.0496046737057461,0.0012236229719087,-0.000977586949809626
-0.0138341837433442,0.0882944679571955,0.00666122969442509,-0.00121495368015373
-0.00764385601031978,0.0988517773741359,0.00573507968123885,-0.00128624653161996
-0.00390285754727336,0.0738377773486349,0.000657807041782119,-0.000998047764889509
-0.000394036896430408,0.033934205071794,-0.00297501645976832,-0.000382757283700184
0.0059143352017729,-0.00385350193183837,-0.00471937295698478,0.000301162915400611
0.0088946001519714,-0.0241714524059339,-0.00568895300615964,0.000955188678054471
0.00735239987791354,-0.0212285930997741,-0.00512434158059833,0.00145759665765163
0.0091742676687835,-0.00941059020995557,-0.00526873607262687,0.00168970561750773
0.0147833914303179,-0.00732088552009606,-0.00706517460064809,0.00156188697823371
0.0176855419411136,-0.0175503654342468,-0.00925867898706428,0.00108594601331453
0.0191882751968026,-0.0288593629461067,-0.0103996868429163,0.000598303333819231
0.0222269570920548,-0.0307808962314524,-0.0101354441794707,0.000117555026983736
0.0216288368093172,-0.0239227295527204,-0.0112869553275127,-0.00039913439133041
0.0141615693418502,-0.0150249844768416,-0.0136919555420679,-0.000781311199334792
0.00671440610394958,-0.00625223364732513,-0.0124244121261594,-0.000961660445922871
0.00491124637521644,0.00280579025636713,-0.00955246240034683,-0.00100411956594897
0.00537237445865121,0.0162581010395487,-0.00934707530392884,-0.00111526761540499
0.00379604786171172,0.0309479511048092,-0.00848388702004896,-0.00120233617159083
-0.000234804765395686,0.0331416314090368,-0.00407171931028139,-0.00116266930532199
-0.00281018800544277,0.023219328127571,0.000948254636779625,-0.00112086611146426
-0.00327853352047515,0.0170476360838556,0.00510254681104822,-0.0011035996998552
-0.0065167332665774,0.0232928949454812,0.0100717976159539,-0.00109701655215585
-0.0133700912088924,0.0419134563847496,0.0130169067948197,-0.000938603000372334
-0.0168207372710257,0.0637486330604926,0.0122438809805068,-0.000416539491762132
-0.00920649506747748,0.0763062801160617,0.00930299606395202,0.000374969556230814
0.00665658978693821,0.0796667878468799,0.00431758840340588,0.00126420830331065
0.0201691630592541,0.0711200673996431,0.00032414181671277,0.00207557925376351
0.023786786918116,0.043373447010015,0.0010288295531945,0.00268253730053944
0.018677205464961,0.0101704835628985,0.00433164921320783,0.00298917472082551
0.0128534730234728,-0.00760903186921665,0.00564718394928078,0.00266966508164961
0.0114916488759713,-0.0132679086051901,0.00302620004642105,0.00169879483878737
0.0118776727658255,-0.0189818495860308,-0.00204438941945181,0.000507897003331903
0.0109346390025077,-0.0256739832929707,-0.00619156585529394,-0.000423848651071173
0.00959791790055147,-0.0293305796842997,-0.00805341537518648,-0.000860581767878811
0.00764140916227763,-0.0290237772991929,-0.00548710955090731,-0.000958701343975997
0.00542281775147109,-0.0275099885648248,0.001559573819877,-0.0010703091929969
0.0065249418706079,-0.0233005620534802,0.00524627590483037,-0.00159485311767246
0.0106400089564608,-0.0129633428927086,0.00327507068246654,-0.00241913478813213
0.0139945750631927,-0.00178587858594796,0.00239203032806748,-0.00285849688751861
0.0144230289437787,0.00378325136119406,0.00430338580345561,-0.00266685289594455
0.0095848253446657,0.00664050863737164,0.003777213612229,-0.001824420033242
0.000232397309734036,0.0129000951706978,-0.00107700202714087,-0.000505292683556118
-0.0108761400518381,0.0293323772680254,-0.00381130435859778,0.000605410460651499
-0.0241469160167393,0.0592012688494585,-0.000138300617759735,0.00113735272749814
-0.0345077032634812,0.0921432881773718,0.00368396686034171,0.00112567864457763
-0.034199543873122,0.106826640719693,0.00122586103111127,0.000897671297691679
-0.0248591135425423,0.0815113712376571,-0.00470501918595321,0.000997896248096912
-0.013891831651491,0.0268868836736852,-0.00590064600920362,0.00142064718738962
-0.00713761251542818,-0.0127946062790181,0.00102438805027725,0.0015413568405709
-0.00347527554383883,-0.0216140583227083,0.008368985031093,0.00100105578502945
0.00318015530082949,-0.019115830135363,0.00809799866338257,9.94640575163967e-05
0.0103547291133913,-0.0204521552330139,0.00287972373830033,-0.000613911518615462
0.0112825770515627,-0.0238660913333204,-0.00115952494716352,-0.00103193898577331
0.00919290332199698,-0.0259324424575137,-0.00158360859521524,-0.00136591693885265
0.0072846627171741,-0.0336921780215885,0.00263246235457685,-0.00148890061401496
0.00195943023809942,-0.0417624382843141,0.00902596730152477,-0.00149166693809314
-0.00478908982050292,-0.0382671144727897,0.0120336632632395,-0.00166754917224541
-0.00523225070745497,-0.0261037936987485,0.0118664698777836,-0.00181854459998311
0.00144602566080956,-0.00832963001995368,0.011290237112297,-0.00174288672927111
0.00544455622097658,0.0103691703529526,0.00859373914324232,-0.00134893683320339
-3.26686007169653e-05,0.0206666582393694,0.00272722491074943,-0.000566695355517342
-0.00851578648587126,0.0212862110645723,-0.00355002698812399,0.000348369642849391
-0.0135370580283544,0.0141265204128692,-0.00572173744269257,0.00094058220600871
-0.0173832180097258,0.00158246551351961,-0.0017325798769908,0.00088697339343975
-0.0231596603707095,-0.00779586986902263,0.00473337961531436,0.000372768876036523
-0.0276569361182299,-0.0103084891781132,0.0111405578385742,-0.000127815085748541
-0.0266243787981684,-0.00737502376378393,0.0168062343041964,-0.00046157537861733
-0.020567495468095,0.00286300433738396,0.0174017299994818,-0.000721172846602725
-0.0110899157511073,0.016845796107473,0.0110595012833404,-0.000780180683006167
2.7758533030036e-05,0.0269471776100561,0.00368175517446637,-0.000414844989857946
0.00841618534806248,0.0294726290178085,0.000375121199586326,0.000361673452251423
0.0118588836077236,0.025080483488241,-0.00115274830582636,0.00135440549175505
0.0131420019822091,0.0170315117931847,-0.00205176178880159,0.00186291130646291
0.0141284782585822,0.00833165564919063,-0.00192925715812074,0.00133732066459475
0.0141990536701446,3.93978277412306e-05,-0.00281369404358463,0.0003154357867062
0.0132505021863571,-0.00702767440183677,-0.00270091501257211,-0.000432041713386658
0.0118973684785946,-0.0122904488691755,-0.00042078437315696,-0.000681793852234111
0.00778799800808308,-0.0170831171111709,0.0019071275903427,-0.000634401575734194
0.000468338251318163,-0.0224416005239655,0.00473598886282185,-0.00055207192098981
-0.00726311926101833,-0.0289384052601133,0.00627880946510504,-0.000506736749878387
-0.013279142207005,-0.0374949512830416,0.00549523091468126,-0.000214803689572155
-0.0181098774918191,-0.0460027872447063,0.0059991348995617,0.000453000375051686
-0.0223634944536202,-0.048967223901969,0.00811140424438283,0.00113614302093955
-0.0153629316123275,-0.0419198943465349,0.00822029556450797,0.0017177841957809
0.00655719215575673,-0.0277795223274092,0.00558605890587188,0.00226516928634063
0.0245343376525402,-0.0153492517125529,0.00337892356571089,0.00255939235387139
0.0264005572403943,-0.00677812651422389,0.00491924258754683,0.00222787505033951
0.0213276212973235,-0.00238572405493335,0.00896211236959574,0.000926534290967201
0.0172194573962389,-0.00303601453163866,0.0125506275825425,-0.00127141753348579
0.0127718512729439,-0.00376691968337662,0.0161307215501121,-0.00356461483073933
0.0093009380989045,-0.00425776120186001,0.0186973547511036,-0.00461516090193548
0.00760146209821737,-0.00898806267403563,0.0176982188884463,-0.00352440029308362
0.00757665590892417,-0.0151452279117655,0.0148598238732327,-0.000729801163101907
0.0118065337291388,-0.0175373874061299,0.0116739105720451,0.0023746189070141
0.0182215237954075,-0.0179868870852042,0.00871572701406195,0.00450833405958957
0.0223469977847311,-0.0168915844131725,0.00939307141394081,0.00503696506900536
0.0221735212640302,-0.0126476521667993,0.0109085264953719,0.00403675240467269
0.0170870467995982,-0.00887896992752427,0.00729892193548389,0.00240598270418135
0.00972978027184383,-0.0114876616450001,0.0017654304962261,0.00120147689455618
0.00621343067585571,-0.0237274189791794,-0.00290168879595779,0.000748337077330513
0.0102526992438847,-0.0415999696726019,-0.00997954756681986,0.000686029939190682
0.0169576592507707,-0.0575027783545397,-0.0185587121163764,0.000641208746195395
0.0186279715052695,-0.0646688320293941,-0.0248159457818785,0.000572428334780143
0.0128459790199016,-0.0614528159065263,-0.023104161238188,0.000292337683166812
0.00511470287685437,-0.0538212323096404,-0.0127089933971833,-0.00040268612052258
0.00539970894670122,-0.044932795889354,-0.0044489807387376,-0.00124776800318628
0.0141469378628697,-0.0367991085311142,-0.00311595862990961,-0.00185222389413239
0.0216122965365347,-0.0303845812938543,-0.00292124435057033,-0.0020499601659515
0.0243899424397096,-0.0220398426764318,-0.00022039462234286,-0.00181665297648122
0.0239429764852603,-0.013297885392519,0.00219002345241597,-0.00110654450630206
0.0204590823567261,-0.0101627573673233,0.00105438661657636,-0.000189929881829226
0.0215652369436591,-0.0145861666150469,-0.00122022396071636,0.000459264677668401
0.0322428418987645,-0.0181554134188603,-0.00236846066058658,0.000747994757253927
0.0409372701068446,-0.0166454789642232,-0.00563319453923055,0.000809025619914299
0.0356413250734852,-0.0172607132316373,-0.0104790754191491,0.000786248467725506
0.0229166801699714,-0.0181416146347518,-0.0126261498368552,0.000765572899973277
0.0134046503641448,-0.0139974029758347,-0.0142294766869505,0.000650184711896458
0.0065515648430336,-0.00765759825728637,-0.0166840756698535,0.000201924553272286
0.00449048403283088,-0.00579965882873841,-0.0173042979395467,-0.000502760399323102
0.0117267569215621,-0.00797682172923225,-0.0153966188439369,-0.000799808321426559
0.018759294851997,0.0025139009334881,-0.0116170631860318,-0.000347958614613311
0.0140787458126702,0.0219331886619539,-0.00788109485431911,0.000377208520052771
-0.000279086032359498,0.0305955551326314,-0.00818552820120335,0.000851688075649224
-0.0167513845700236,0.0337527887889702,-0.0107781264918723,0.00109860444007963
-0.0262175132156505,0.0355426095428913,-0.0103342283322313,0.00124336882591806
-0.0267158608483858,0.0288149168740216,-0.00755026163093634,0.00106738721972764
-0.0238601884978908,0.0114799932240221,-0.00482302697581636,0.000452920890027733
-0.0214655930093383,-0.00422016123752582,-0.00441853567312977,-0.000397134347398653
-0.0206425390570065,-0.00365844567878296,-0.00520836597845647,-0.00124445217560881
-0.017934291854139,-0.00304131840246566,-0.00596127523422714,-0.00186314026358417
-0.0109485191944658,-0.0232888415763454,-0.0093739031722329,-0.00208052819125727
-0.00168773437866177,-0.0515452623989663,-0.0135785448183677,-0.0018428623493823
0.00650266089069614,-0.0654062655802266,-0.0177100160006636,-0.00110510194668518
0.013131745192828,-0.0620745233315473,-0.0196483624653458,-0.000224812871621165
0.0151864223781083,-0.050344843593198,-0.0136818187693665,0.000173014189871867
0.00981379442483254,-0.0368473866248863,-0.00326091343232209,-0.0001166029013096
0.00422124348348534,-0.0278209286786583,0.00608576942693179,-0.000960202442628378
0.00334894375148921,-0.0223153623884156,0.0132214740284123,-0.00197209203934178
0.00327696478102973,-0.00837127643996215,0.0166957420046119,-0.00255630360297789
-0.00056051988334347,0.0191410766872184,0.0157112705479536,-0.00226565958309139
-0.00870943832228108,0.0488906175935515,0.0098683922482994,-0.00126868557518446
-0.0181334732410104,0.0683554325524111,0.000975680364359931,-0.00035369622747116
-0.0261470475919552,0.0859815944353076,-0.00222654213238636,-1.02417366641336e-06
-0.0326237091380586,0.110303368318299,0.00485679664541899,0.000159590029804566
-0.0366267089806007,0.127451074913277,0.0146225613144849,0.000656119060557741
-0.0382836559085542,0.124814443987045,0.0188072898356925,0.00147133643194544
-0.034927686666205,0.101641165734779,0.0146286228433305,0.00214577492252919
-0.0233830361437184,0.0655593115184716,0.00560661765198317,0.00245964513759236
-0.0136997876909632,0.0308910983211424,-0.00225607957054742,0.00263699636714452
-0.014656726048797,0.00608468565918462,-0.00841903090728506,0.00275693509944725
-0.0188288877856126,-0.0103031713864339,-0.0125795288457435,0.00248868806366115
-0.0198600840766454,-0.024277424298805,-0.0123541999079684,0.00157485543448478
-0.0210533469210762,-0.0390281974161712,-0.0097665778659506,0.000277344286139408
-0.0206977494988649,-0.0522355012303664,-0.00826949845062422,-0.00111001861864819
-0.0117212418301976,-0.058514743699707,-0.00553632124665167,-0.00259346572887963
0.00206677283985096,-0.0570953723690745,0.001268828762624,-0.0038701526933397
0.0075133960797144,-0.054131047462045,0.0110190618021053,-0.00440585702397341
0.00313227788844929,-0.0557790544168661,0.0193766885838539,-0.00414274912177437
0.000492120438257164,-0.0651028772989118,0.0192708986855401,-0.00316796241027681
0.00663779740250123,-0.0776639851025369,0.0101092429728073,-0.00157148733041134
0.019008054349151,-0.0910105552415944,-0.00133541964236745,0.000104617863720046
0.0283713375305526,-0.102251626377116,-0.00687614257508961,0.00125204816086977
0.027019656519589,-0.0999122353275723,-0.00529443195756598,0.00169625761489492
0.0188675071140974,-0.085789480010194,-0.00250625966881136,0.00165306589231013
0.0105510712289317,-0.0711763010977596,-0.00347236291019786,0.00149625834330108
0.00285834360249576,-0.05377818762099,-0.00883669902039402,0.00164230571891782
-0.0063038550364124,-0.0271697503654585,-0.0120734968157766,0.00216066775967672
-0.0151265810986417,0.00714305809432578,-0.00907918328677196,0.00260046303638729
-0.0238092400506275,0.0433624845351384,-0.0038813566776525,0.00255296615902683
-0.0389155108845259,0.0756443976215891,-0.00124901355558177,0.00209441454530332
-0.0528862487858429,0.103537967864321,-0.00214821809242721,0.00162292983803448
-0.0558283277048823,0.130800901994186,-0.00434253170604712,0.00139839842475845
-0.0550584516161277,0.143655292745199,-0.0081185631791387,0.00125048755572362
-0.0547022864837589,0.110838635915544,-0.0130145235140917,0.000801557900361198
-0.0491348103613145,0.0319416418015852,-0.0160781107322604,0.000211061694983763
-0.0364414338834947,-0.0485755359742793,-0.0162188033578576,-0.000103828201450914
-0.0147360524041755,-0.0972939197131166,-0.0114325243053761,-0.000289229958742045
0.0158874249569237,-0.11693261308197,-0.00253255687308237,-0.000764487153164937
0.0446654329744445,-0.115226967313838,0.00354703110641163,-0.00146897632812645
0.0611570434900148,-0.0946334154539053,0.00474143733526165,-0.0019754761720707
0.0619159515219094,-0.0622482357824602,0.0034533222998527,-0.00208277350400346
0.0510850984802981,-0.0291708072480607,-0.000336439028592005,-0.00177225262579562
0.0353070312131736,-0.00640715779044789,-0.00407784750475359,-0.00100323380944806
0.0158967585882145,0.00354201232860471,-0.0066251031043036,0.000202157187414651
-0.00589555096383629,0.00968498607164581,-0.00904385761398959,0.00157758457417258
-0.0237822252523397,0.0189113056213059,-0.0102744699968073,0.00275093127232245
-0.0311615498688539,0.0276094167111822,-0.0125497718223152,0.00346012532919486
-0.0285238622944862,0.0318909002830272,-0.0166901453595161,0.00368225758026859
-0.0220810698315093,0.0367640758669388,-0.0186791152042003,0.00323090287784628
-0.0195553045383648,0.0459892944301047,-0.0166726605415481,0.00183793951414383
-0.0220647425863216,0.0529331855754075,-0.0105256912153317,-0.000281392616683795
-0.024131724575779,0.0518241755186949,-0.0019086347918747,-0.00260337236201192
-0.0231029141520676,0.0471733809950831,0.00664675613755087,-0.00419903426456983
-0.0193665227005076,0.0409976444379185,0.0116460566961406,-0.00436097854050771
-0.0138413102075416,0.0337910844727137,0.00934323420729635,-0.00324720740035473
-0.00849813868677742,0.035113217878278,0.00426367839035592,-0.00147397160070586
-0.00512518970174224,0.0455120976002854,0.00386827145655929,0.000164135213491921
-0.0025417252225369,0.0496211222815911,0.00683838841981246,0.00125668785829695
-0.000305138495744952,0.0431498626551285,0.00955454282103864,0.00176272021977912
-0.00366491087104066,0.0398779468020132,0.012594444681888,0.00144765403659421
-0.0155934213499593,0.0401988672042819,0.0167220386312443,0.000232908837297211
-0.0276946527533822,0.0342720988989303,0.0221369394599411,-0.00133689934752423
-0.0347917267617021,0.0295114866570653,0.0282367240703787,-0.00225523031673554
-0.0429996051448374,0.0325593095565505,0.0296944869318995,-0.00203721887240911
-0.051568005017186,0.0367043349743442,0.0222997154981308,-0.00127917625060317
-0.0490083813326618,0.0393336123559984,0.0109191629358475,-0.000911320995688755
-0.0297930864964843,0.0394291084683637,0.00185319416814662,-0.00112694858309149
-0.0014145652490424,0.0323937846957058,-0.0020218202602251,-0.00102731906519565
0.0224333162789892,0.0260328585853132,-0.000707356976937547,3.83763503509038e-05
0.0291507030990278,0.0320247951091645,0.00476916986320442,0.00161203341854437
0.020531587717564,0.0405723770067387,0.0145137079560815,0.00283885894206354
0.0166504198529061,0.0354960738852373,0.02419716125761,0.00301798066927975
0.0321830689626697,0.0155320284928583,0.0268610236891214,0.00206047270789941
0.059801531794633,-0.00817126886660939,0.0210899922870723,0.000384380640552663
0.0768137428777121,-0.0262388072473862,0.0094899893821917,-0.00150232851557881
0.0691168239823993,-0.0394174472272286,-0.00390490090281882,-0.00285611626627618
0.0484437190328975,-0.0458093338976394,-0.0165796723720008,-0.00325607012946459
0.0268068402319088,-0.0444058413336532,-0.0265633001013378,-0.00290588196134833
0.00391104203722992,-0.0476407943365387,-0.0281063660662215,-0.00194697987829924
-0.0127745147567618,-0.0676996762690995,-0.0188991380317864,-0.000650426851231825
-0.0225842376298253,-0.0878107169124846,-0.00389211436903136,0.000179744974110677
-0.036653790035499,-0.0810865713059563,0.00896259030306885,-9.77824583695966e-05
-0.0486631196270784,-0.0578131922119758,0.0136051984956613,-0.00117756377369063
-0.0466699003088123,-0.0436390553406938,0.0122600219673699,-0.00215268421413914
-0.036752863325351,-0.0378165145567836,0.0118225432609738,-0.00233051818733231
-0.0293586593632822,-0.023839578657864,0.0120757976153055,-0.00174020662636315
-0.0226697605868606,-0.00297640562875186,0.00871627880076551,-0.000725040996780871
-0.012427797473476,0.0131953282993346,0.00190110282157786,0.00069739836370231
-0.00300967298262921,0.0286738542067188,-0.00309384441270575,0.00224267791175247
0.00453346420228251,0.0431195534246173,-0.00480645427239664,0.00314104023524893
0.012043443639234,0.0507117627397889,-0.00757840292205888,0.00321318989082961
0.0164779979695243,0.0623001648695275,-0.00788877044983323,0.00306265793421115
0.0156185954751145,0.0771159632059246,-0.00282789026908131,0.00287101410219779
0.0131981099151898,0.0754622766980774,0.00307347764938696,0.00225170771511558
0.0195203220372296,0.0558185397460205,0.00679566992551476,0.00118307673773297
0.0357667699078771,0.0259167861521774,0.00613826346821075,-0.000180493200750385
0.0479466161642733,-0.0107531420094364,0.00170097742843085,-0.00168352503613062
0.0480928945061265,-0.0339433209351436,-0.00236934478468853,-0.00265738710916879
0.0430145397575279,-0.0282389500435443,-0.00278996136025483,-0.00247318509680659
0.0367316536461812,-0.0143459919605089,-0.00115239546140152,-0.000868339784909652
0.0257069837801879,-0.0153814668765727,1.92300019591189e-06,0.00178755793222311
0.0133260106354115,-0.0236838312745392,0.00182880580576678,0.00416764911945804
0.00552846928920639,-0.0223817345743928,0.00410132517119536,0.00527303266675009
0.00162445399741971,-0.0119915527274339,0.00343915293058065,0.0047821241942661
-0.00225001284890201,-0.0010951608839466,-7.41027313310196e-05,0.00257903039865818
-0.00658446951528584,0.00761051647811634,-0.00312777731789001,-0.000781140255255369
-0.00789225436719673,0.0129651186317118,-0.00610356870815894,-0.00421041341932095
-0.00646599930094439,0.0156434108437039,-0.00859261131012132,-0.00667782951335036
-0.0046323767451943,0.0218741637407899,-0.00802235803351947,-0.0080181812761127
0.000551755052190907,0.034552203534017,-0.00567845167430626,-0.00911137008658686
0.0103404172508511,0.0445817275047237,-0.00385669213335377,-0.00992549725228576
0.0189668219830663,0.041791502716725,-0.00250075739336438,-0.00846124630353488
0.0224241917490948,0.0326062444482461,-0.0014409909133204,-0.00343035050477933
0.0199639791253571,0.0281212157486567,-5.75215201426456e-05,0.00295611629336228
0.0133884546979925,0.0259521232546212,0.00214383032255859,0.00704779625768309
0.00990937805439537,0.0241183941079096,0.00287013179247716,0.00761667800688095
0.0119977491694701,0.0247837259808945,0.00300334784964039,0.00602164672512742
0.012436649883348,0.0256740908288667,0.0061256868822332,0.00400158939841683
0.00785417840805734,0.0224621249355533,0.010487868627355,0.00243857595984389
0.00637248224989188,0.0139089393657491,0.0122666104897033,0.00171554288684821
0.013730932382696,0.00319351113479926,0.0103322320882178,0.00199774064862447
0.0202900244260651,-0.00759515345693304,0.00769010066937519,0.00323251540067118
0.0177019989605565,-0.0131827334123083,0.00658512545642817,0.00507191082530438
0.0135495717246132,-0.0104826857888953,0.00632915285711224,0.0063571270041823
0.0138931984800564,-0.00917775354404049,0.00680444471321334,0.00584865150430165
0.0139098371224604,-0.00924208403063722,0.00606156202972909,0.00323798053022797
0.00658301840484173,0.00122531110769583,0.00289573775767448,-0.001031349355131
-0.00593594397776711,0.0192252712146146,-0.000503394767575579,-0.00565725704860304
-0.0116787910854813,0.0327115042153989,-0.00114914141419243,-0.00870678771175869
-0.00968899864182838,0.040962367247169,0.000605035499599718,-0.00932242605663455
-0.00996111543517712,0.0490122622710597,0.000905459343538839,-0.00810156494712506
-0.0153579071506093,0.0499989160838107,-0.00222827424854148,-0.00591760068868973
-0.0206735891499887,0.0370955195954968,-0.00630203309531277,-0.00335963749435978
-0.0200456009236375,0.0135579033776492,-0.00583581823134014,-0.000851068757486815
-0.0135794113677101,-0.0119306094545599,-5.35927169142969e-06,0.00132149123937038
-0.00899622815724081,-0.0293279979474577,0.00621232632978891,0.00332808568562166
-0.0112814042929525,-0.0426369319528516,0.0124385947936303,0.00490068987916628
-0.0126743282016951,-0.0611310925428403,0.0182075992780126,0.00534663260417415
-0.00594057255741753,-0.078563503668512,0.0166911319799118,0.00474205560042428
0.0055504637087208,-0.0771665638127747,0.00757233637489312,0.00381172326162443
0.0132303032048261,-0.052646479505417,-0.00149511178886334,0.00321487551372692
0.00972579733666737,-0.0232210857334944,-0.00646101995909893,0.0028139154636685
5.44345811047961e-06,-0.00660262045372199,-0.00780057409515892,0.00223742106870759
-0.00598441819764398,-0.0061990605185086,-0.00702126419794625,0.00178419161141987
-0.00850195959591452,-0.00949036287222369,-0.00458140653530197,0.00174627691330878
-0.00861573201061742,-0.0103000709532894,-0.00298267051317503,0.0018516931337746
-0.003964226187628,-0.0187102604686492,-0.00773420811005521,0.00194754391279789
0.0025576109079529,-0.0321384030181413,-0.0184812216621797,0.00232279902159964
0.00789546226845489,-0.0434366561518907,-0.0277966400159593,0.00296038688834978
0.0123143561205267,-0.0546099041690792,-0.0290553066696342,0.00328367815062313
0.0153371712538402,-0.0572228434390997,-0.0209457113988294,0.00293947052635581
0.0119093099876068,-0.0420669849306775,-0.00649009616516199,0.00197681521352143
0.00186716677142702,-0.0199130208246141,0.0094040911195502,0.00041421479674877
-0.00562026072087765,-0.00203426772372466,0.0224038888721839,-0.00163092673827993
-0.00938097135359452,0.00829786528562161,0.0268216932009067,-0.00373454525868287
-0.0162370541406013,0.017794092133312,0.0190803135189674,-0.00515835276112096
-0.0284417149518208,0.0410994470691656,0.00724997960445987,-0.00526931053978156
-0.040273930628677,0.0727432457082542,-8.2718887347049e-05,-0.00410481352848594
-0.0466257710590516,0.0925996378519479,-0.00481079177961716,-0.0022766624676521
-0.0468982754948987,0.0803031874714635,-0.00894965017902899,-0.000442722739169639
-0.0366009386814008,0.0313019903645971,-0.0130664541437233,0.000871805730207463
-0.0204014095825545,-0.022736940106449,-0.0175007274352447,0.00134442935807393
-0.0129492816806283,-0.0482209541809471,-0.0179091736759916,0.00120221217415399
-0.0114478493346032,-0.0454741315459653,-0.0100517664833259,0.000784912438821516
-0.00518708979225455,-0.0234137459890076,0.00274155938126914,0.000212339937993932
0.011331077450545,0.0133799051824765,0.0137492358776368,-0.000686005596462122
0.0333459814376459,0.0355720502099143,0.0176797647380968,-0.00194251059775596
0.0399958328314359,0.016033357647509,0.0108440950387476,-0.0027195250096536
0.0293395782672306,-0.0208053272877162,0.00104976717040447,-0.00233989409927978
0.020354156226997,-0.0329801261957482,2.04965007780909e-05,-0.00112757022489621
0.0185346237638235,-0.0208926514678909,0.0066315470077013,-5.15022974642435e-06
0.0131142876850699,-0.0110034885909027,0.0163274910854954,0.000167332869420452
-0.00272041708421492,-0.00428668057544276,0.0272654204912398,-0.000883096012803568
-0.0188388412760283,0.00865842495088772,0.0367495430556194,-0.00279156370772958
-0.0214617689283697,0.0217344361934299,0.0399351243034839,-0.0045926652062456
-0.00817514022963006,0.033375173527761,0.0327681160944745,-0.00525938064646172
0.00724463708327608,0.0377388824161216,0.0184787723349038,-0.00446482233037344
0.0106886336295455,0.0248023283003037,0.00516121041094963,-0.00255322646217612
0.00469509954764248,0.0102974711324698,-0.00104079589864103,-0.000377409565790901
-0.000266181535994689,0.0103616887846703,-0.00312579125814968,0.00113327496171337
0.00020110991471123,0.0181434917936461,-0.00584475212249892,0.00171774310208275
0.00396930336121301,0.0275595884635556,-0.00762717884480014,0.00169467985068082
0.00712313042990375,0.0381081252550482,-0.00631423767104182,0.00149229574143963
0.00484509297065727,0.0457106424794611,-0.00222395582242176,0.00121325139758251
-0.00676144497313311,0.0496853673045862,0.000368738560528609,0.000668448109329571
-0.0226555097488322,0.0510562850229582,-0.000753439615037232,0.000151305963819888
-0.0277001947624874,0.0512474242682794,0.000634121230699246,0.000196137480202854
-0.0182871401695257,0.0526072152675437,0.00720340285284459,0.000429261114146781
-0.00677269492954391,0.052845583991166,0.0126736685017703,7.57499531365367e-05
-0.0032367357886327,0.0504505487620625,0.0137336165599513,-0.000717131930630328
-0.00498307053344246,0.0403995995515706,0.0123888883812505,-0.00125831623608539
-0.00190489281976139,0.0145064545571794,0.0109079337985467,-0.00135787357586364
0.0101591184565011,-0.0228547367902587,0.0110359795988212,-0.00128756875549413
0.0270310797725629,-0.0562618721286149,0.0143822841241529,-0.00145748773649065
0.0410699640949578,-0.0760304151634533,0.0192100732993036,-0.00213838707934473
0.0505460938843728,-0.0925450013097791,0.021520823360676,-0.00270686932682491
0.0608560911370458,-0.11853960904353,0.0208280253282802,-0.00232966566171921
0.0717386609030078,-0.142035091756234,0.0177615792677846,-0.00111565925312556
0.0748742791136544,-0.143472905828882,0.0098318324346106,0.000380294107240631
0.0649104671616137,-0.118919597263156,-0.0014422982330064,0.00175433611428486
0.0492779924839198,-0.0770739275676839,-0.00871524666157948,0.00291895952937702
0.0381394434258291,-0.034627954106031,-0.00855469243562803,0.00379810408377546
0.0254058129746563,-0.000328631478158592,-0.00425367565521819,0.00404660153920153
0.00187616507997532,0.0332389926648844,-0.0013908026462942,0.00354709572079293
-0.0184458171412678,0.0678266358592062,0.00103203185869076,0.00282812324730294
-0.0217148663595989,0.0946289190701019,0.00779057553517197,0.00238491444072702
-0.023818257887533,0.11397642020008,0.0134709951034558,0.00194871019942843
-0.0346043103362094,0.123725069539979,0.0115074783448122,0.00144866248954877
-0.0377838530202863,0.108507576299337,0.00641988207920899,0.00143321504591365
-0.024894532289944,0.0677004489171308,0.00332335149356036,0.0018403069072466
-0.00761043019478246,0.022101718458453,0.00139929054604836,0.00193929800647459
0.00375865352519394,-0.00202348269777303,0.00209458589626933,0.00145619218019091
0.0107803674021844,-0.00172621078934038,0.00624344971777603,0.00068940443116701
0.0149426530699768,-0.00827051913065358,0.00851000544908065,-8.83942260651405e-05
0.0198355080721261,-0.0408824650177784,0.00753971386291298,-0.000742430601045417
0.0277520372284866,-0.0788846692548189,0.00619152725466739,-0.00124949746039988
0.0304270283549547,-0.0930170115094883,0.00475771881754136,-0.00157758991385685
0.0176252638249378,-0.077518322805596,0.00122956973221082,-0.00160551245657417
-0.00828931095170721,-0.0539323288652799,-0.0022806098339787,-0.00123633653958339
-0.0241744951809017,-0.0422112090269989,-0.000609338963063345,-0.000488264677482794
-0.0190168950892167,-0.0296512149278318,0.00545378546896511,0.000378949176889025
-0.00673076242633852,-0.00324564787590709,0.011621650878122,0.000676026038855121
-0.000372169387202144,0.01956912131755,0.0148689153887261,-0.000126727865348556
-0.00190745968219407,0.0288152748671541,0.013227144030739,-0.00140359623064621
-0.00226320446461522,0.035128824082173,0.0107116587201338,-0.00198434072497944
0.00291432912312907,0.0456114636826019,0.0109074324317897,-0.00157022131065539
0.00773432495224726,0.0571766538407898,0.0123840628551473,-0.000763647250549929
0.00654375272148677,0.0627809501582071,0.0135730779539571,-3.31258546762544e-05
-0.00248833348403717,0.068004501554118,0.0135952569387936,0.000460938096650054
-0.0183787619149954,0.0809630165599332,0.0152263975712199,0.000582405941574069
-0.0363977360347163,0.0888193624362215,0.0152178680631237,0.000509423732323208
-0.0505438791534392,0.0746053138360577,0.00804673418157127,0.000639227562316979
-0.0575435868239081,0.0402249243180317,-0.00133069188554935,0.00117228475971061
-0.0588717811718235,0.00582673778709171,-0.00625931496305879,0.00190600717833824
-0.0586435138407589,-0.0154024567910881,-0.00769051165440822,0.00236727466055099
-0.0519894761916784,-0.0226237763786534,-0.0100716565412471,0.00214491340508774
-0.0320806190227224,-0.0118936773728866,-0.0128941844796286,0.0011137891754911
-0.0063682376020921,0.0075185489116447,-0.0128975278978831,-0.000417853338443141
0.0111967015701239,0.0248053938971846,-0.0121028192652566,-0.00198730058951686
0.0152370848404079,0.0408899606809821,-0.0105452103505611,-0.00312114569262449
0.0110285794867236,0.0492196294762927,-0.00480299778784775,-0.00354893225615399
0.00390628443360071,0.0437070730554152,0.00279718738779408,-0.00372270819462102
-0.0114700127890609,0.03216983086811,0.0127868077803198,-0.00392116550110108
-0.0326968821015033,0.0295534212134044,0.0292465272554449,-0.00377145662510824
-0.0406545777532483,0.0336483179780083,0.0443881574744553,-0.00339079772386278
-0.0303254456967985,0.0236072427139061,0.0464021427534895,-0.00306302155961304
-0.018648502247545,0.00225767857659927,0.0373468419598757,-0.00237635454106909
-0.0133925815899842,-0.00832648535495095,0.0240762943934476,-0.000707221461336408
-0.00395192066302154,-0.0126909862760398,0.00788692778221391,0.00186487749232262
0.0140130617920698,-0.0306270633905325,-0.00655105875269647,0.0042478688666337
0.0263027527258251,-0.0591906320033301,-0.0125968895605773,0.00547893314004707
0.0203370368257334,-0.0738239000353449,-0.01072694621939,0.00551539420501495
0.00684837397607268,-0.0656775203732796,-0.00604929992390932,0.00491304313352947
0.0015746521068413,-0.052488927027265,-0.00494056433988936,0.00425531327450257
-0.000284878313610959,-0.0466060476924997,-0.0091357331495432,0.00351763853548012
-0.00819542934247153,-0.0411342654210707,-0.0143149966883446,0.00249238509088376
-0.0192121272031228,-0.0298079665571702,-0.0169322187749953,0.00117191785158742
-0.0260307409040345,-0.0197442925797577,-0.0165201951443058,-0.000341503463411385
-0.0228112567038798,-0.0193845001740775,-0.0144253742977152,-0.00166992424823456
-0.00669003843876499,-0.0308968942226557,-0.0110302659653563,-0.00244265787257606
0.0208269369668143,-0.0461978632625246,-0.0081624847049921,-0.00265470172499971
0.0439477389257491,-0.0530654579313186,-0.00730312679054122,-0.00272806175790851
0.0455792501816901,-0.051060300225761,-0.00621987435351442,-0.00272123134943053
0.0300433137927752,-0.0487311020816579,-0.00222661631682846,-0.00228459798552344
0.00922391735335176,-0.0526814559980202,0.00387448408671068,-0.0015880054569177
-0.0093356871372648,-0.0513758707567984,0.00481395151427067,-0.000759160651999466
-0.0214725564472557,-0.0278004212625593,7.53647224180122e-05,0.000422654935535686
-0.0229706358396187,0.00663314072858516,-0.00379718878179371,0.00181482984415593
-0.0127995173274204,0.0262040116555698,-0.00458483210881592,0.00291933154547155
-0.00460814397590189,0.0237231017400738,-0.00237348730362041,0.00330102144131221
-0.0059897107680674,0.015109234476206,-0.00012130021452781,0.00266825808217934
-0.00559519853676699,0.0233065087578371,0.00119344751258939,0.001195682613059
-0.00631081385784964,0.0517325291889423,0.0062665483853615,-0.000407896824992959
-0.0196365732784731,0.0737103630381017,0.0184491417888257,-0.00146099257240415
-0.0331237276339571,0.0644789279440197,0.0327277425165909,-0.00149603114516505
-0.0334535610354149,0.0238340269675147,0.0375134119441659,-0.000716405914024224
-0.0269436869659979,-0.0318217805668234,0.0267418304489641,-1.39558147988217e-05
-0.0239801422623473,-0.0778411345586882,0.00871204285946028,0.000462609588651356
-0.0288342834983103,-0.0949188896029144,-0.00347305452016317,0.00145445273685938
-0.031791586532246,-0.0867841316703669,-0.00688145343956974,0.00315361442261716
-0.0151603055543318,-0.0666070133771951,-0.00724213102539342,0.0047564803115487
0.0149387532607197,-0.0362440347474902,-0.00547015922669196,0.00509792626413601
0.0337585126743056,-0.00699891298165346,0.00175000884796478,0.00378779299281447
0.0400653269399735,0.00281425010194729,0.00667040092769577,0.00157328036390417
0.0435130760449629,-0.00728233602728315,-0.00106761356895718,-0.000695429718956394
0.0413494709679723,-0.0237135088158812,-0.0153417541333825,-0.0024177469136706
0.0308707571790314,-0.0348113599833921,-0.0230937796536336,-0.00264924589764255
0.016020986546289,-0.0338469961205348,-0.0213339071215775,-0.000756846685827823
0.00438930848302901,-0.0171933139383061,-0.0157820327156269,0.00247581837291091
-0.00414888102134858,0.00416812439695436,-0.0148771335052226,0.00519233735766125
-0.0107562942715365,0.0114551988793574,-0.0194923096355803,0.00558414954426795
-0.01512091739722,0.00378181709693596,-0.0216002768846897,0.00325983187059049
-0.0239966214675844,-0.00425230807658925,-0.0176095750051685,-0.000335855564196338
-0.0319800894622245,-0.00124120005404018,-0.0100430976223451,-0.00361888540518741
-0.0313653107501081,0.0155310260333928,-0.00578748022446864,-0.00623881144991758
-0.0284928424767725,0.0368442965093102,-0.006822291959691,-0.00888462191224954
-0.0257121927260679,0.0522971590062644,-0.00664577859631732,-0.0124703159471389
-0.0221503115735973,0.06798035290505,-0.0025837844865777,-0.0157170259833932
-0.0164355563366762,0.0822386086192596,0.00269182761625354,-0.0149707787852581
-0.00765331197708642,0.0726320075141803,0.0081877807960857,-0.0087742813419312
0.00200153174604522,0.0355991331452116,0.0159991287852812,-0.000128735629971684
0.0158553826058696,-0.0108276556357541,0.023189274368176,0.00661873550778451
0.0300247371488013,-0.0497810315735344,0.0235668277744676,0.00941561482445333
0.0343791072750435,-0.0670202880783738,0.018218598522764,0.00911440496414279
0.0291381019395616,-0.0639508902758578,0.00896089298630302,0.00782315627544903
0.0188360841896069,-0.0523303635883316,-0.00302984452935909,0.0070388930089001
0.00882222786102592,-0.0369707819088771,-0.0123655668061365,0.00670933457577734
0.00485254727821681,-0.0251576433254077,-0.0172450901435674,0.00585154130484317
0.00586074955654443,-0.0196099302019517,-0.0194335353126442,0.00403097125459662
0.00940348878290697,-0.0168212360825084,-0.0203134587179804,0.00169869323192083
0.0192002238884229,-0.0169437431515558,-0.0208378603281356,-0.000760009665779248
0.0343696144581278,-0.0168054923022178,-0.0207742608770694,-0.00317387121274062
0.0465779405865462,-0.0185447491093337,-0.0189960321353679,-0.00525066016578566
0.0435383504876432,-0.0175332273573754,-0.0121285368996403,-0.00689894690598887
0.02037115139533,-0.00178513406853858,0.000346561038834682,-0.00799998777473102
-0.00441983167611985,0.0164606103113398,0.00976259804863696,-0.00827704189385153
-0.0134940851749026,0.018425757589922,0.0102124137551329,-0.00759858269466021
-0.0160216116361082,0.00618035757993048,0.005822653983639,-0.00589209713815056
-0.0226003565068018,-0.00629151437402918,0.00187580192789118,-0.00365634989324489
-0.0269165657364745,-0.0104479050134162,0.004088971146795,-0.00195463221348369
-0.0215929953377727,-0.00793731962014481,0.0134561446288422,-0.00132595923335838
-0.0104803895654267,-0.00159671479635088,0.0204069542394142,-0.00152773253051552
-0.00330555681660268,0.0122112641258125,0.0199930062984956,-0.00200172448510098
-0.00250772034230882,0.0274374382550307,0.0173507299848937,-0.00239822866575843
-0.00159209319492846,0.0253313579809463,0.0177288012832465,-0.00232193978931937
0.00456641294981018,0.0066100998562405,0.0207129229820794,-0.0011771764438033
0.0126479382738426,-0.00747722481688717,0.0220118057432682,0.00110644660426947
0.0114295258766779,-0.00319442355840066,0.0200936789057172,0.00397217333725127
-0.00457638930922633,0.0147685025946456,0.0159951503686446,0.00654489462593109
-0.0229848591072892,0.0301111382743072,0.0124345354086105,0.00812951584549087
-0.0267691062137725,0.0343938673174265,0.0139706798233755,0.00814674352414929
-0.0159138740603308,0.0361821662632485,0.0207074841547893,0.00611698584377291
-0.00650971079805392,0.0408587035540847,0.0288842595238862,0.00254612628094769
-0.00830693380040163,0.0392533022960531,0.0310042800512653,-0.00108198192349271
-0.0138515541763708,0.023273397319511,0.0199356497368474,-0.00303996732643885
-0.0121993914619149,0.00447657148849803,0.00434518495244338,-0.00257598071349738
-0.00418356150863251,-0.000341893246012533,-0.00331826547073915,-0.000881940762607145
8.06034354833632e-06,0.00345604408397223,-0.00579616435844245,0.000503060516795757
-0.00138991592043794,0.00444320820345828,-0.00967612552396729,0.00134471906063083
-0.00171649994644809,0.00383529136408025,-0.0124067502678137,0.00187198635849868
-0.00229161800814882,0.00677568365770222,-0.0100687474140456,0.00209875953422368
-0.00306375824361803,0.0160297373350417,-0.00651580019879575,0.00204761925659851
-0.00223367335862009,0.0290160129078917,-0.0077191695941484,0.00176832338977195
-0.00292609158238335,0.0412403410329945,-0.0134798170389341,0.00146379221799376
-0.00100052819366145,0.0504088935941092,-0.0181352594545763,0.00129639283354923
0.00106569756656099,0.0586712119931741,-0.0166083196345053,0.00128982435157324
-0.00766088087460874,0.0719694978220456,-0.011910650429554,0.00162712600756757
-0.0222525083896048,0.0832186287354941,-0.00905593568670628,0.00215109189319846
-0.0239002547721068,0.0795369361641781,-0.00676802883885442,0.00237462132986537
-0.00527257309747728,0.0648391856806634,-0.00588993598289162,0.00210961241728805
0.0112820398156209,0.0529557003370355,-0.00933427311631532,0.00142547375822693
0.00290665800505053,0.0460829645195444,-0.017038645451696,0.000670898596889603
-0.0127358083501463,0.0267340856113858,-0.0265837178438714,0.000670746481424149
-0.00542245131105919,-0.00713788355025945,-0.0335883775155837,0.00197950414809683
0.0193743801573657,-0.0354610082398212,-0.0345692164540539,0.00373793941865025
0.0376871246550852,-0.0512024346347815,-0.0281879330909641,0.0045173308493612
0.0409676460377689,-0.058166949250863,-0.0197784411910464,0.00368662989047443
0.0350631319542981,-0.0561464524790944,-0.0163738566302079,0.00174918594264361
0.0279224705617541,-0.0408923710377859,-0.0168000519288167,-6.75710176181892e-05
0.0213204122365329,-0.0259142788367473,-0.0223926304411398,-0.000919219840035112
0.0126509402791856,-0.0318978212631081,-0.0352157447883734,-0.000491182998240032
-0.00184999682737105,-0.0473457178557204,-0.0453727408335435,0.000849666955116874
-0.0172140210777495,-0.0456543350284151,-0.0427584549477166,0.00212577861936556
-0.0173647879775146,-0.0215040600860734,-0.0313128055156871,0.00304309713306501
0.00349957275920142,0.00575638522603776,-0.0210622372959941,0.00372332778938763
0.032061564801026,0.0179732007678845,-0.0176702218009426,0.0036924984501063
0.0520603949183679,0.0227480072163513,-0.0208307231327339,0.00241494926078875
0.0591070066127602,0.0317344823449834,-0.023524894885916,-4.51206035641857e-05
0.0541205525089387,0.0330574372218618,-0.0206055552085717,-0.00262784811301649
0.0433240468441023,0.0216270867370098,-0.0152751036589535,-0.00364111353336999
0.036961801799298,0.0140012658122249,-0.0127268627751271,-0.00275659216411232
0.0305738084863374,0.0195635177106321,-0.0132296860830761,-0.00123975670234077
0.0165071186805119,0.0284489615570006,-0.0132227468200139,-4.40262049075449e-05
0.00467716422679072,0.0207940045645797,-0.013071822946488,0.000384735254650455
0.000299711117736971,0.000602683754716948,-0.015146092338271,-0.000173782111246246
-0.00487293213337203,-0.00935703733743896,-0.0155430145081829,-0.00146735783385934
-0.0110810356274449,-0.00599771393308253,-0.0119887494900879,-0.0033924828676396
-0.0110531126780789,0.0015461256868626,-0.00812677785642344,-0.00593997934842238
0.000208032856574961,0.00494796799468104,-0.00503752479892102,-0.0082694463896075
0.0175599985904696,-0.000941946600107241,-0.00218307656813677,-0.00910051467412615
0.0312768522772736,-0.010423175846067,5.81080076714965e-05,-0.00809015059276028
0.0382740426156438,-0.0162411997981513,0.0016998512279673,-0.00604057897681743
0.0322383463916343,-0.0295543538419849,0.00134136263711654,-0.00382369892830117
0.0138303556502315,-0.0604349204772187,-0.000517976316303632,-0.000907504197311535
0.00140843545538026,-0.0884431695378814,-2.15144339299493e-05,0.00401712246845152
-0.00164622415105692,-0.0934917938637649,0.00346385507535011,0.0100363289253487
-0.00650525368912178,-0.0865392442851021,0.00733500580593638,0.0141260725521275
-0.0106239810757457,-0.082590685846887,0.0104475572220803,0.0143762339290801
-0.00743793376772986,-0.0797619787397306,0.0137139847667412,0.0109135124322569
-0.00236411145083415,-0.0701305000988908,0.0178226232124521,0.0044041990432089
-0.0046091868814953,-0.0520610811800194,0.0201806526762267,-0.00366678010777984
-0.00938760113406926,-0.0308706713893261,0.0159561980412972,-0.0103739975416086
-0.00926399903256013,-0.00602242235637782,0.00643749334614819,-0.0147798205320884
0.00367973586048492,0.0183928285459751,-0.00134346192278838,-0.0188034811296862
0.0263612942068269,0.0358908263331775,-0.0034298399259784,-0.0223425134123209
0.0218390301702926,0.0633253247710787,-0.000352100297493052,-0.0216747122051868
-0.0117703115261404,0.111839370398613,0.00530232235777073,-0.0138416637633749
-0.0241227849580655,0.159695236206345,0.0110532927548742,-0.0015148696643421
0.00380873950137309,0.180608308026623,0.0170241384082226,0.00844422835610848
0.0370236273904407,0.16942693720027,0.0198768510134739,0.0116403636161129
0.0406735613355044,0.126448868837571,0.0124639488897579,0.00918157381634846
0.0231786100696965,0.0556465649942945,-0.00220242318237117,0.00483058695073799
0.00586359237672485,-0.0104695109092028,-0.0164357708605778,0.00157489887850086
-0.0108406165330068,-0.0425403763827589,-0.0249871359750877,0.00067682964450256
-0.0340217053479608,-0.0428707131361836,-0.0235959727467667,0.00205622845542282
-0.059822184325666,-0.0294506088194653,-0.0134718115831537,0.00625849515451849
-0.0773785640786743,-0.0223691352457364,0.000770835219938325,0.0140959018112492
-0.0790129018997589,-0.029229268530949,0.0133288803230943,0.0224606360640367
-0.0599812173631278,-0.0468510220783234,0.01904008214272,0.0255214303957476
-0.0270466739961921,-0.0638764616569567,0.0165277560390405,0.0198270643179755
0.0046150170420986,-0.0710741192524744,0.0094123181830002,0.00635068787490927
0.0284569079955071,-0.0715995615046505,0.0024387207017178,-0.00950928478631491
0.0440651535960691,-0.0577935911549646,-0.00298750092902579,-0.0223917661880585
0.0506696820107875,-0.0264429959455453,-0.0059358748965639,-0.0330177826030678
0.0497388615973219,0.00403723049188263,-0.00284555627931308,-0.0440875290197862
0.0493649379169728,0.0222774980060169,0.00467980499393772,-0.0515286785242683
0.0499060321557843,0.0235282606162546,0.0117811849660799,-0.0463876219126946
0.0409859814985751,0.00753314872939638,0.0194608204404226,-0.0231361113121376
0.0243929459797075,-0.00361121661419198,0.0271277925902478,0.0122919704161591
0.0135962136736386,0.00735012052018759,0.0302457508713353,0.0423843074586591
0.00995666068580255,0.0189356849254032,0.0248860818012796,0.0534730351346305
0.0016732184760414,0.0115783525785325,0.0112628108147532,0.0472691452670341
-0.0130588415956949,0.00247883365585172,-0.00141692655284583,0.0341591760189868
-0.0277501045802407,0.0108310305250298,-0.00357388454790879,0.0226467705186408
-0.0341611110275147,0.0371663244519813,0.00273078566036896,0.0152399490855104
-0.0311999511623925,0.0720403545450837,0.00835649672365443,0.00901608274988776
-0.0277554256795314,0.0902382502514506,0.00861782444384845,0.000311970701549959
-0.0248605065317833,0.075505968873678,0.00621296610514432,-0.0105668752146075
-0.0170176234284791,0.0424623549946794,0.0039581878495119,-0.0195085882036608
-0.00014420502461699,0.00825434096144928,0.00167067935680949,-0.0228064830292909
0.018680069460307,-0.0162412970301206,0.00220650779422153,-0.0207020280155828
0.0289396433019875,-0.0267826281157853,0.00747227140157234,-0.0162671789137453
0.0314464375841664,-0.0345467721482215,0.010589059626878,-0.0116716193580805
0.0303654624967624,-0.0529754011653617,0.00558479029489928,-0.00699976232426298
0.0270009807180747,-0.0709181660752499,-0.00219636126456235,-0.00204748038137696
0.0189140802557159,-0.0638581080560764,-0.00529692492183642,0.00250472982948921
0.00403555381765226,-0.0425662579322922,-0.00345520355130419,0.00549017501521587
-0.0209037624493421,-0.037785911682465,0.00187910885635101,0.00651411831231024
-0.0503055508366089,-0.0438848910249506,0.0110202917074897,0.00618976526239754
-0.067094318791124,-0.0350215841345951,0.0238060027356519,0.00510739917354394
-0.0639635460548593,-0.0113116781111751,0.0357846612753418,0.00335927265287144
-0.0457233380270808,0.0167309909579465,0.0424725196098431,0.00109300836024799
-0.0258857140093548,0.0453417406743035,0.0433108237252639,-0.000517609611396883
-0.0159490713552815,0.062770166753385,0.036952657835468,-0.000182181805396072
-0.0156835613809033,0.0640413110975777,0.0283164190038002,0.00192498429387278
-0.0187156672242565,0.0594482614926754,0.0228049532058967,0.00494830673845576
-0.0214459718350842,0.0478610692148217,0.0175535363523924,0.00806596931873214
-0.0143666585800842,0.0181509279370912,0.0130332744992314,0.0103147513401754
