0.00556232336898801,0.104690823690634,0.114499358902233,-0.000324043470794551
0.000224084571878908,0.0990617728454857,0.10529822258476,-0.000118406844800247
-0.00327812326235336,0.090468951503144,0.0945518239617755,-0.000416134532236993
-0.0052138805072787,0.0867360893078455,0.0843260824496865,-0.000940904428167961
-0.00908093560513825,0.0833193708020457,0.0732307983107865,-0.00139872917806009
-0.0134153422669612,0.0783526413083689,0.061528802860445,-0.0018325621190546
-0.0153786351299859,0.0740891735351537,0.0499024920833735,-0.00220646011640577
-0.0159121824295261,0.071364613305749,0.0400723117521898,-0.002604369529835
-0.0157678261591275,0.0666377214655065,0.0315026535282442,-0.00319000333556001
-0.016085031543907,0.059041549298389,0.0225555217987293,-0.00383386537295228
-0.0157833759308978,0.0528617267234818,0.0150602862138765,-0.00424769532921862
-0.0120832961006172,0.0493569757409505,0.010650583726289,-0.00448284444688399
-0.00786478724235832,0.0454418525625601,0.00733629976798289,-0.0048591439199922
-0.00709149653699222,0.039927613430503,0.00284972790605279,-0.00534706826184265
-0.00718203674577376,0.0344215576486095,-0.0016792535832309,-0.00579208409675375
-0.00457619393249322,0.0300255990781526,-0.00521956333297511,-0.00611608104992591
-0.00069066368540005,0.0258125479082237,-0.00900762092499626,-0.00627636427916198
0.000659218118273918,0.0209584438686472,-0.0137033870835056,-0.00614669161511744
-9.80491233224523e-05,0.0168031360542585,-0.0183756061055405,-0.00578150742002925
4.84880422939593e-05,0.0134752059264034,-0.0223406308505421,-0.00548664831171113
0.00157978374452501,0.0103079899809452,-0.0236753367373016,-0.00524204055594076
0.00261848082611378,0.00681684672642426,-0.0227591642666458,-0.00498411241981532
0.00209400101571121,0.00312380588349381,-0.023447010025207,-0.00478713163504281
0.00203128856469661,0.0010224611094868,-0.025600091140585,-0.00455556737699114
0.00344614739002459,0.000588448157585634,-0.0267075445567822,-0.00410475854038729
0.00372019198838866,-0.000143876318539049,-0.0273170346918426,-0.00347084236199043
0.00315251478820861,-0.00200883022648166,-0.0288048067200316,-0.00294708410292463
0.00397463479094949,-0.00421580568630285,-0.0308130990741891,-0.00266246758003612
0.00523923464335699,-0.00485971665730719,-0.0309294992229771,-0.00259663080402544
0.00687989326861628,-0.00368311118232745,-0.0282295403972547,-0.0027524863551792
0.0103926397983877,-0.00233305439360109,-0.0253425337689102,-0.00299173946588453
0.0146968389445479,-0.000973822317923587,-0.0232860854834638,-0.00319814252415019
0.0188866227207028,0.00131744715731889,-0.0201802720672138,-0.00338437120892913
0.0220548871817515,0.00371492175436651,-0.0165264562008735,-0.00356517528731295
0.0227344184751593,0.00437246546674124,-0.0130263461362358,-0.00365624927051718
0.0226227046365589,0.00252614037842974,-0.010295465266374,-0.00359071849134451
0.0236069671233656,-0.000122961375075331,-0.00983797009073141,-0.0032513103430246
0.0256282744663145,-0.00179494653876119,-0.0112386110958084,-0.00246092764574481
0.0282431232197028,-0.00313140403939315,-0.013387157409819,-0.00133056487444996
0.0303122734634373,-0.00637380349383637,-0.015877877928764,-0.000294983858488879
0.0307249466909751,-0.0116371847342973,-0.0184159838097573,0.000246598907975027
0.029441143463964,-0.0152052669571669,-0.0195995251137117,0.00026771432946886
0.0273683679042285,-0.0169945279335673,-0.0198923469311934,8.18608492904179e-05
0.0265088811155719,-0.0195675535019448,-0.021929906024627,0.000225852255938114
0.0247612063669166,-0.0227465334942364,-0.025989692009928,0.000924782636494704
0.0167908651973371,-0.0222446646524769,-0.0280652642802979,0.00182626346616103
0.0031294334879754,-0.0179991620858584,-0.025888485952605,0.00259295099090242
-0.0137134171063451,-0.015170622072305,-0.0230568615552728,0.00320200338229148
-0.0364788427360502,-0.011294770429156,-0.0228791894400218,0.00380833958521667
-0.058854563118132,-0.00536382744488643,-0.0234777448961408,0.00458128166492791
-0.066874011786564,0.00142715611597597,-0.0189648543010136,0.0053066149466768
-0.0558580279978049,0.0130481472061416,-0.00858435156864451,0.00530931328455437
-0.0290279556055315,0.0296723459393219,-0.000473882767138046,0.00408960906627076
0.00393207217412611,0.0473587740383368,0.00283729336529291,0.00164453680210681
0.0388646424737587,0.0534161937771155,0.00642727003425671,-0.00114005033120506
0.073467395386405,0.0385140817947128,0.00873641995784369,-0.00188156481544154
0.0884154632444921,0.0178370865698801,0.00920477436282533,0.000589723872490196
0.0763179184941874,0.00709887758605763,0.0136874754409318,0.00368155916439783
0.0514115370482692,-0.000179714232144981,0.0174234507215021,0.00504532860080485
0.0133693252568545,-0.0125508916440076,0.0121491674952608,0.00531024572992702
-0.0356514520170853,-0.0322220055728073,-0.001645616587298,0.00471449901763957
-0.0672049456919285,-0.0549129859246995,-0.0156296258419339,0.00178858278286992
-0.0746309419415538,-0.0590520790548278,-0.0185197648153328,-0.00308547635311693
-0.0813015620694995,-0.0289428295953063,-0.0113537472654028,-0.00627485605070696
-0.0850424544075448,0.0169040905511451,-0.0034241827427429,-0.00536516152652004
-0.0583931675799395,0.0446059038890046,-0.00137074941069446,-0.00187529078464743
-0.00169629075260683,0.0274955592774663,-0.0116633211553141,0.00163528003536179
0.039340835850829,-0.0228073743379315,-0.0269363746774164,0.00413679819080981
0.0426966520433585,-0.0526622630621238,-0.0323817422858912,0.00599009477838769
0.0366742569762066,-0.0489622072205267,-0.0328022212751636,0.00740368232814539
0.0298638881642024,-0.0448428368029293,-0.0398802329303049,0.00720738088151111
0.0217084251339173,-0.0509442643723981,-0.0519096437901823,0.00404073513367027
0.0271859048667119,-0.0516979367441483,-0.0576344301498075,-0.001192424111093
0.0372200887589538,-0.0405482696650426,-0.0527600372439837,-0.00529902728505458
0.0337884327374876,-0.0200544580824569,-0.0406439180185811,-0.00614274261417731
0.0162225277845798,0.026509567173688,-0.0212198101153709,-0.00483608531384429
-0.00810009350066048,0.0901404545962929,0.00731460570401292,-0.00329362100849698
-0.0322617180871795,0.104017146500378,0.0463182830374107,-0.00171625133538095
-0.0388295446542172,0.0639444654199038,0.0873361786950727,0.000311572568708776
-0.0152240146199331,0.0385869338973072,0.100887920202194,0.00265761775171679
0.0172078513053448,0.0464776103374125,0.075199643951933,0.00462779350928001
0.0327115279749879,0.0583217031822854,0.038212064176163,0.00516062769839915
0.0305820831652274,0.0392316680091575,0.0115488602216472,0.00380741204494644
0.0178180689116573,-0.00787678388890319,-0.00446360455310573,0.0011015640917664
-0.00950886001994471,-0.0417664594527002,-0.0128290111257236,-0.00176826130950147
-0.0416575431907629,-0.0433338401407846,-0.0148458485476656,-0.00372810808529084
-0.055214572013508,-0.0186341903442419,-0.0110364849825774,-0.00484128155476768
-0.0428325316443822,0.0184811183031535,-0.00464070010935834,-0.00551446953145729
-0.00519611439801288,0.0393945343010012,-0.00414559151699832,-0.00494782331675218
0.030261138375988,0.0204975496939675,-0.0150186540675514,-0.00258340161206712
0.0342796666145556,-0.019732719267512,-0.0280600851775264,-3.8646510944981e-05
0.0295775738801086,-0.0438796918704491,-0.0343598990945459,0.000867843424981073
0.0384353028623141,-0.0518950145605991,-0.032685444526235,-0.000114033461691521
0.0557409492958641,-0.0613372367452422,-0.0218749814849309,-0.00204000158623608
0.0680871992426004,-0.0640601066857998,-0.00542724141511984,-0.00335448928230699
0.0630009571628666,-0.051783670171169,0.00633449716758455,-0.00304321722459726
0.0459687366731512,-0.0333444642694958,0.00444634526529021,-0.00162653314773087
0.0266492455345745,-0.0133970097888405,-0.00086480284968277,-0.000311673629482677
0.00780208797911101,0.00596110556230139,0.00409323346967338,0.000787284716923219
-0.00511125624224648,0.013674633698728,0.0155658508048001,0.00245120990540473
-0.00711804432864841,0.00884759903917078,0.0227310281442669,0.00452870934771033
-0.000835884257570889,0.00856975532482828,0.0177947776666221,0.00543850968737711
0.00274333888352135,0.0263791029208851,0.00445953845539863,0.0039251577533609
-0.00226999009886721,0.0640701689565685,-0.00307370509724806,0.000672662076669799
-0.00664880038229273,0.0905383042819584,0.00100840343008188,-0.00187392608317339
-0.00564009063996543,0.0691233446755598,0.00691458167734932,-0.00140573920499569
-0.00599861230185075,0.016854691229942,0.00881883949621021,0.00194959395008527
-0.00761484982353854,-0.0242019203878437,0.00693414915070139,0.00573829555806157
-0.00273743335171804,-0.033044498546396,7.72529752117394e-05,0.00695777361514625
0.00854265396742385,-0.0250485104089855,-0.00736288754414139,0.004335822623874
0.0136191561838524,-0.0221382793561187,-0.0129651852673812,-0.000639664811681337
0.00780863087475288,-0.0243799960211161,-0.0153953407419796,-0.00562962984199142
0.00250864233459323,-0.0297015920886317,-0.0122702336513862,-0.00839621988635681
0.00345567020010235,-0.0354926723944459,-0.00886178632745815,-0.00760867448608868
0.00518408800413389,-0.0375823316804678,-0.00755631972035192,-0.00476468383141673
0.00353802040236177,-0.0352104631563071,-0.00538148886485405,-0.00266882572320159
0.000181328040767743,-0.0280249460107592,-0.00345248386256598,-0.00189829146497512
-0.00159043905537085,-0.0210105342129283,-0.00212941587588862,-0.000527773770373561
-0.00293886660327804,-0.0211344830985555,-0.00024910075967317,0.00259051439231679
-0.00729150112247687,-0.0275415831429581,-0.00126008663742184,0.00546753500119687
-0.011917493886551,-0.0318065512163628,-0.00581053155248171,0.00571363160022842
-0.0123170452773545,-0.0282935496267411,-0.00965300740221595,0.00398504416306749
-0.00931073044052569,-0.0152742851084692,-0.00970874901309586,0.00211087945261984
-0.00716471515558604,0.00860790499385231,-0.00743676157359368,0.00116344070442147
-0.00848158147484718,0.0342083265137706,-0.00824409036039766,0.00271508247263442
-0.0116902136233051,0.0402941534839131,-0.014803805739292,0.00700336551602358
-0.0130954114761684,0.0184685876427635,-0.0235483300128235,0.0103399676331217
-0.0109959364767241,-0.0162002541786768,-0.0312620148962032,0.00852956459798089
-0.00914043334513143,-0.0439022487273817,-0.0361280131418992,0.00153816654017345
-0.0099256480799751,-0.0504342121819944,-0.0346635401238191,-0.00661539110836344
-0.00953961559986798,-0.0377700552731229,-0.0292617781452322,-0.0113026727029761
-0.00681018474220704,-0.0266709233993997,-0.0253928976837109,-0.0104504333312062
-0.00126437932329446,-0.0236583503053025,-0.023598153617032,-0.00560797029382524
0.00718519139669783,-0.0125863972332855,-0.021267314544375,-0.00056091042555282
0.0137089528148888,0.00655008977668988,-0.0160880632289007,0.0018544868251903
0.0156622932501713,0.0191837772315033,-0.00870207403684781,0.0016834406099405
0.0124387684408005,0.0344655015171577,-0.00211804830122239,0.00072769431256533
0.00313990151233824,0.0570986683584306,-0.00183084547414893,3.14198464366176e-06
-0.00671098471520605,0.060358787646136,-0.0139480220225694,-0.00133714281060084
-0.00411091118671019,0.0392438893951241,-0.0382088002960745,-0.00358932037842086
0.0190245831676594,0.0211111255482502,-0.0644862623062077,-0.00490907730310857
0.0482133194147901,0.00725610771223938,-0.0790889668336183,-0.00350538062440612
0.041538055353144,-0.0286193312096634,-0.080095787461789,0.000850736393360874
-0.00693398469876702,-0.0746044112777554,-0.0797562236678428,0.00699684504356461
-0.0346270345730653,-0.0801220621804395,-0.0898956863442702,0.0116504002397436
0.000832817477444035,-0.0289550559164749,-0.108252120257909,0.0106038830748589
0.0789729847910119,0.0197583872806106,-0.1217635745791,0.0033065754588479
0.13650810762796,0.00281682326324348,-0.110486428752932,-0.00593088865636803
0.117337458341639,-0.0526733128247497,-0.0675071373159617,-0.0111627022552573
0.0400987816455092,-0.0604115723352905,-0.0317773853273308,-0.00966897056187141
-0.0339294195914247,0.00462692887724948,-0.0512904524383043,-0.0054327819573461
-0.043358957478722,0.0409901483465749,-0.103800416129531,-0.00402890735473994
0.00399859774435215,-0.059789320220961,-0.0931482775583873,-0.00526034131771677
-0.00657562090095839,-0.254262979981463,0.00893284976617431,-0.00438694723566335
-0.123869744624133,-0.369374953708552,0.08031446600307,0.00220945517057512
-0.250574101017709,-0.296954660009342,0.0334784387458881,0.012830678021373
-0.287286159726729,-0.138691423681594,-0.0625478157763353,0.0208859721877855
-0.216619683893877,-0.0538085426570712,-0.12573397516956,0.0209787066757879
-0.0947757397768753,-0.0365734019541907,-0.148013774250859,0.0132991051714369
-0.00849937361713898,0.0155955274450758,-0.134746115998183,0.00161249067497313
0.0337422381256557,0.102259974988515,-0.0975440730795308,-0.00995285068805235
0.0906563692239432,0.136584413223546,-0.0685240771927082,-0.0179524753050134
0.147876982649426,0.105757191674237,-0.0481186791750635,-0.0202228659219797
0.143469322256644,0.0783339138385955,-0.0235570109657534,-0.0162341681805294
0.100574926039781,0.0960575231774335,-0.00828990621279684,-0.00659890187497672
0.0999013672123242,0.12798726320266,-0.00603893338801066,0.00609089233274626
0.117025177461697,0.0945348815261957,-0.028587486635907,0.0164317858081305
0.0337876035658279,-0.0411179706235687,-0.0877845002878277,0.0195759740996439
-0.139520142938373,-0.198407992456436,-0.139715315239038,0.0150320219633992
-0.260714239600666,-0.288765321836264,-0.134219726772947,0.00690639946021335
-0.255154104686972,-0.316286395354778,-0.0819602592208508,0.00121765183341577
-0.17545166879898,-0.289957678219808,-0.0152875847045962,-0.000265429163793926
-0.0982755262321189,-0.178877585422847,0.0457935879620943,-0.00153827017408367
-0.0258800916378369,0.00157419582615478,0.0739386169272606,-0.00490294602061118
0.0512774902109525,0.160821037881258,0.0716567822468725,-0.00725368837040704
0.0942129329999381,0.213449700193434,0.0734381621063356,-0.00479367518443503
0.0655404268884451,0.15992791004709,0.0784283941322453,0.00214904272410572
-0.0237947216999868,0.0746460297538499,0.0571360169143381,0.00932317914552574
-0.0959192942188256,0.0306987549339718,0.0105742952763821,0.0130602420323256
-0.109946834527342,0.0361327188073396,-0.0199902228206781,0.0135499617966233
-0.106434115121995,0.0530878404669668,-0.00798036610641202,0.0123891646103881
-0.0841801021196091,0.0521443657389784,0.0151646395773306,0.010119887763397
-0.0483481994865681,0.020993033788322,0.0118263535753744,0.00695025161251241
-0.0669920805340108,-0.0136892561807286,0.00152705081675678,0.00310215053570587
-0.119456610298267,-0.00563242453720059,0.0179089362789468,-0.000552778708151016
-0.10501974024856,0.0293042626398358,0.0505108465348436,-0.00249109506412821
-0.0223191927358463,0.0339046924547005,0.0794282927022843,-0.00264199548903206
0.0475179350885579,0.00757797896111843,0.104899159951797,-0.00257229777248367
0.0729363591587679,-0.00766862387698414,0.120703046188098,-0.0028988997355654
0.0805060672104493,0.00632034780314536,0.119447815824045,-0.00279454343053422
0.0807450634754985,0.0349680651378415,0.10763921800121,-0.00193436188489039
0.0633797974521038,0.0590191721589869,0.0936717644432053,-0.00101481488924078
0.0419585785539383,0.0766189520625466,0.078927812174634,-0.000961060860375575
0.0256109650364505,0.0955260007661488,0.0697548111039845,-0.0018820201167864
0.00545372224050601,0.11663858246434,0.0752344302656311,-0.00216534317673048
-0.0135941517706352,0.128921720171882,0.0849614314037093,-0.000495219761593209
-0.0183027032361879,0.129269853833836,0.0846003250070826,0.00205055323442418
-0.00763703825681206,0.128309736828816,0.0785869116628402,0.00360022963563701
0.00369485633580471,0.120835552049633,0.073753547569054,0.0033042232630869
0.00881072157689916,0.0959498835613043,0.0691457090678982,0.00136968628265932
0.0139243837089061,0.0661033455793564,0.0644968361577862,-0.00140800073576909
0.018977294591805,0.046472168125059,0.061135706111607,-0.00378428993721143
0.0223035665766161,0.0359493453521441,0.0601621149271738,-0.00466901815619537
0.0262245769304376,0.0295974544553445,0.0600999435214329,-0.00432546346817497
0.0282224204429724,0.0252757598767457,0.0593201998064309,-0.00397106058850751
0.0287792814730911,0.0239850083437781,0.0604169385665084,-0.00392926061072731
0.0325256176942074,0.0270222823504793,0.0631008374070433,-0.00355906887500252
0.0349462108823658,0.0294922504132202,0.0611460335245687,-0.00293411763261428
0.033125176159573,0.0281385741212086,0.0546421800144677,-0.00300751125274504
0.0297766786850572,0.0237404150109717,0.0496292544637159,-0.00397531702355973
0.0263750520302486,0.0189412627803146,0.0475387270067796,-0.00519055662005034
0.0246627413080445,0.0162399551665911,0.0476354180070083,-0.00638125422856332
0.0257337163192357,0.0156399860569862,0.048037511170339,-0.00738109418022784
0.0273768478089701,0.0174033544553957,0.0476740415776164,-0.00776409793989267
0.0248615622858438,0.0181575137009636,0.0465326040723689,-0.00733309910393423
0.0202782191031084,0.0143004237251312,0.0415722401887674,-0.0064680307470002
0.0193123159120623,0.0104894837948609,0.0343689155427673,-0.005705375559948
0.0206645348881923,0.010815922971861,0.0306012271183763,-0.00506968163383802
0.0234704023160391,0.0127690145041001,0.0301809833496136,-0.00421304587531463
0.0309980502055544,0.0119097335999295,0.0302140098407008,-0.00291495074072077
0.0416823372897817,0.00480790395627433,0.031640609319806,-0.00162544800545761
0.0451915699670909,-0.00673880362468204,0.0336720637968768,-0.00111411239881815
0.0377730505505683,-0.0207221005532622,0.0316288243708004,-0.00166408355338969
0.0313947710281707,-0.03130109142427,0.0272055180134728,-0.00286749520502383
0.0275770064230543,-0.0283271851465486,0.0240580347640349,-0.00370865103614998
0.0122642894318373,-0.017208774507653,0.0186857313552214,-0.00361894239150649
-0.00984703908255796,-0.0115741236083282,0.0102231009617223,-0.00322924377306185
-0.0183237166015587,-0.00915446135567884,0.00167205316875404,-0.00335020341318486
-0.010735213494314,-0.00202373160039405,-0.00353469294564532,-0.00373307042357653
-0.00508617022586796,0.0125722280963417,-0.00230471895499639,-0.003385953862106
-0.0135819267002553,0.0381538120150193,-0.000934256351560362,-0.00172495815606454
-0.0148401336208441,0.0656775469679561,-0.00513420434084251,0.000616735500073797
0.00726523479833602,0.0709240727649757,-0.0118278509397671,0.00233422263770857
0.0272420631065477,0.0472515656686534,-0.0187755637747074,0.00237196515490654
0.0321949652317647,0.0193556652395562,-0.0236548464640754,0.000725875325269254
0.0338669704924098,0.00427221548455044,-0.0199704992599478,-0.00105357543013312
0.0375681840637199,-0.00290795213106333,-0.0062363900277253,-0.00174504975380116
0.0444809334317655,-0.00665922543030515,0.00736810154465192,-0.00150555523486509
0.0524546414115709,-0.00799249954032946,0.0117675487440715,-0.00119848123671487
0.0578219720544454,-0.00486153842632428,0.00872067014853294,-0.00192011754376391
0.0609631335959896,0.000994734773503892,0.0057625373325066,-0.00323133376251951
0.0606586904028571,0.0034364520396329,0.00614218141646096,-0.00298180544726165
0.0525293719762356,0.00129473009993382,0.0062211425110345,-0.000351316331631453
0.0294950937098686,-0.00412293910397904,0.00522370629612316,0.00282328489632072
-0.0239683289217865,-0.00798541855268268,0.0075436143693286,0.00436171573584831
-0.0997256398741341,-0.00462524337386608,0.015979537131779,0.00403568015379605
-0.142363324817672,0.00469125429586027,0.0253748944619117,0.00292363495589024
-0.110745944048323,0.0134520733651829,0.020533082951232,0.00198538687418446
-0.0370843948903159,0.0216109004231064,-0.00589317600076099,0.00180398012739857
0.0166640912377542,0.0336176199348812,-0.0385701114623579,0.00227939338743688
0.0336643458681098,0.0458979605662549,-0.0541221125666882,0.00279008364764075
0.0331856590743648,0.0501473521644247,-0.0465997161250004,0.00300063512763291
0.031170464529626,0.0480261100692371,-0.0282113802005965,0.00280745929740135
0.0366174558232894,0.04907547085069,-0.0117023376295062,0.00201255747777132
0.0537439360664248,0.0474076830300917,-0.00449832978303261,0.000585051599741794
0.074302192755646,0.0344900727757044,-0.00206283023538476,-0.000909278037931321
0.0879370293894976,0.00089075236496132,0.00527087047422459,-0.00161541686056877
0.094092931566383,-0.0588792244532631,0.0172675117185544,-0.00141867692462705
0.083137875678298,-0.101311159501156,0.0274058884805422,-0.000867249995356052
0.046099593050461,-0.0882339652363639,0.0294786139750703,0.000256576991656295
0.003117891468637,-0.0605959745056625,0.0209749906861379,0.00249209410252619
-0.0209136737027308,-0.0703376071191507,0.00477728084407071,0.00470154650917297
-0.0384191016799972,-0.107760104369133,-0.00751915356255352,0.00497954176321695
-0.0886191492091275,-0.129704076309663,-0.00502267203556114,0.00332915775358386
-0.149248763419881,-0.105679830247204,0.000768969162734504,0.00172610552509827
-0.123255949765675,-0.0450821127699535,-0.0105655402294716,0.00138063020835196
-0.0321985948757397,0.0272992729169248,-0.0288555669000861,0.00181117982138458
-0.0240972279781882,0.0927796806281407,-0.0246027967828467,0.00268674369004345
-0.0952568616392131,0.115133592579033,-0.0042344820075797,0.00390340315593554
-0.0981357674605308,0.0838891360524424,0.00210264202939871,0.00437945816327683
0.000877118801315024,0.0411568550746447,-0.00546676850125593,0.00285753120102115
0.102028254320114,0.0170340447917413,-0.0132776593042173,-0.000145301229938458
0.132957054173091,0.00504838210023138,-0.0171187219414313,-0.00250009573377571
0.107224080182434,-0.0126417073559107,-0.00851205012843881,-0.00246233785009771
0.0673685561317132,-0.0451013637039268,0.0129760190739174,-2.64478916137127e-05
0.0330209640798548,-0.0785002315802741,0.0352404459085537,0.00259780372914659
0.00538905039518941,-0.0872527895154441,0.0479994760970904,0.00266964879753627
-0.0142201346764759,-0.0515361311413534,0.0536863454523968,0.000830998142483833
-0.023314106828842,0.0172516471607113,0.0596201448085083,0.00220324618401678
-0.016947739243535,0.0597742365695455,0.0560656688495404,0.00981809489899317
0.00130405177263908,0.034322851793201,0.0399395755848118,0.0174674826982463
0.00235609276789821,-0.0222354358272345,0.0272240982443216,0.0150355167394258
-0.0287700312776697,-0.0531639797105644,0.0214244031557923,0.0015904911638461
-0.0597495020471548,-0.0507098021995244,0.0141947146597655,-0.0127874362216853
-0.0596949710807152,-0.0361771905715292,0.00676788827926469,-0.017968189635585
-0.0356446219338687,-0.0247776360362123,0.00361900061038913,-0.0110180338214573
-0.00995783085713643,-0.0198120087745175,-0.00108529357856103,0.00304407951313507
0.00558150628188837,-0.0197261864404195,-0.0119399422602263,0.0127748013646465
0.0113383440507707,-0.0221334484613511,-0.0183841987530242,0.0110872060824195
0.010041224751837,-0.0223544694138062,-0.0111248043133734,0.00507961002508408
0.00415460928662364,-0.0157958986556811,0.00368369180570784,0.00453793959313801
-0.00105497873510017,-0.00427338422589288,0.0115472533453597,0.00702985993890363
-0.00156107813060786,0.00401977396328789,0.00852236866243253,0.0051011278798859
0.00231064880722848,4.38702234788861e-05,0.00541890716354554,-0.00146769535419032
0.00919057995296593,-0.00895355125249079,0.00626340166642428,-0.00881500890226078
0.0146349242457256,-0.00382222302248936,0.00690913448180602,-0.0146802208167717
0.0152226519079351,0.0119059223771781,0.0072091390374652,-0.0171570956828411
0.0126219313759362,0.0244413803507188,0.00857630098293987,-0.0149248007671328
0.00917125302154198,0.0319096227413482,0.0091660505671313,-0.00952429671473488
0.00891305579335093,0.0341878913042871,0.00898727713198384,-0.00391687863091678
0.0123408795263125,0.0325413041159493,0.0139039009462812,0.000962039339436432
0.011791496436044,0.0286503731333468,0.0242887438898629,0.00554691412723059
0.00341374345385505,0.0204363414018962,0.0301200718146455,0.00898094878285437
-0.00470241388950621,0.0100911581316173,0.0287646547631804,0.00987572240534213
-0.00372100844570163,0.00430378189595596,0.0242611014904686,0.0085345689537996
0.000775267594330257,0.00673757088463835,0.0133581804102659,0.00607868703880166
-0.00387124680627686,0.0143552202339595,-0.00412132624649715,0.00213142116055923
-0.0179636970059642,0.0188900402945888,-0.019590049401106,-0.00328313489866274
-0.0307132504456209,0.0140246488951043,-0.0287456971626664,-0.00747284979221184
-0.0316283372882098,0.00255244437910012,-0.0380831941378245,-0.00884307653973258
-0.0207776519733312,-0.00959627693946714,-0.0565145442208477,-0.00974033046650048
-0.0148091188688697,-0.0224021027941454,-0.0767489937680002,-0.01268249031094
-0.0223910755045614,-0.0372439259262156,-0.081412058831927,-0.017018788370976
-0.0354936383273867,-0.0457043502842474,-0.0722805817076169,-0.0200724631574883
-0.0567405006893123,-0.0365597073171564,-0.0669853929814978,-0.0200160235255577
-0.0819348358756125,-0.0171347674500092,-0.0694697802481816,-0.0171816968764542
-0.0980649494940481,0.00196389340554021,-0.0710208208128216,-0.011866427814133
-0.122157704137042,0.0180756440984518,-0.071907711536747,-0.00276531634039343
-0.157972844058725,0.0180192026155611,-0.0761761524772797,0.00942690429398402
-0.167517427989795,0.000136747189856477,-0.0882432471915578,0.0184840718539781
-0.14686047408049,-0.0156079809280252,-0.109708059712844,0.0167734785090252
-0.121536254662139,-0.040253750270175,-0.129082527248982,0.00377533882650793
-0.0726066053057027,-0.0869805305202738,-0.139035188472196,-0.0120632684290467
0.0185186458461025,-0.125478617306456,-0.133131560423606,-0.0206201822275303
0.108280758779003,-0.13172469246004,-0.11685478020339,-0.0178115922608381
0.151669742557275,-0.098659979411684,-0.116276258579074,-0.00728373313591806
0.160523683739157,-0.0302700603520557,-0.117920636334837,0.00381151453865574
0.152183893565371,0.0335305167735042,-0.0957086356639322,0.0111410566255667
0.0969887145662401,0.0547642883240438,-0.0847734959260333,0.0144526701270689
-0.00253686899896097,0.0368138464650203,-0.116232069879082,0.0135364456554411
-0.0647196775232069,-0.00944437000767551,-0.143402232713876,0.00840080101803409
-0.0588939222665135,-0.0761346535358592,-0.1233365920671,0.00209135920223691
-0.0407263314587903,-0.150933524494819,-0.0844572774344719,-0.00191152072765063
-0.0361298990183414,-0.201660794509807,-0.0574801866231021,-0.0026446420943151
-0.0287960105551711,-0.178451502421481,-0.0360177793585426,-0.000967949955451847
-0.0123238214827663,-0.0881272977214026,-0.0162995735751536,0.00123958864405044
0.0174611396917852,-0.0325346354017421,-0.00911009626945577,0.00301545146024517
0.0796580253294625,-0.0854481996995446,-0.0255800612221799,0.00514879359214064
0.178755785837644,-0.179672769515674,-0.0673491767714971,0.00721256502253418
0.237778891386804,-0.234266850130292,-0.109667767809724,0.00562951119536339
0.158763024337836,-0.255106359189361,-0.122057838805024,-0.00264083932131589
-0.00605373978960311,-0.233377920789429,-0.10454621234527,-0.0137649580325125
-0.108451945326487,-0.118680976720818,-0.0785548257533431,-0.0179962020573942
-0.0982334389324899,0.0246847440213293,-0.078684518613487,-0.00964211469347989
-0.0236765284887982,0.0593336767607482,-0.107047519524184,0.00563141488462942
0.0505849962349467,0.00605347613225225,-0.097896749860088,0.0174538009204016
0.0488864926774721,-0.0135175305931077,-0.0269822367797412,0.0225253834312474
-0.0667846245697992,0.0747998846855272,0.0399059164147102,0.0240342833597164
-0.236152744953112,0.248406407380699,0.067787902803395,0.0246670183829363
-0.309193960334322,0.329467597943342,0.0813514583991091,0.0248512572798381
-0.194487630074857,0.208281156872459,0.0840653473707087,0.0235580905606938
-0.00612200863948453,0.0522354201126933,0.0653844178807093,0.0195893004628021
0.136857401231759,-0.0145093953993187,0.0435529206071484,0.0128367549648755
0.249055076288471,-0.0893979825012482,0.0471781648353785,0.00473252178116249
0.313174069674892,-0.188773750456819,0.0701255550063391,-0.00231113369413816
0.270468124544182,-0.209513128741143,0.0821895613189117,-0.0069851318117545
0.162641269110696,-0.154650486598307,0.0790439474841579,-0.00958858849877583
0.0875937438045552,-0.0884744908931346,0.0827130744850102,-0.010197858035614
0.046834967828236,-0.0284153793660665,0.103721792094792,-0.00800252356256572
-0.00181120788555479,0.0167964684752094,0.11471562712509,-0.00326806609080024
-0.043250637130374,0.0347044867826782,0.0961267162599907,0.00158628849777324
-0.0541697163204846,0.0404597884683878,0.0733593985443058,0.00479956508509882
-0.0465329043440144,0.056452785395154,0.0668686735155957,0.00661267126175075
-0.0459557002036953,0.0778330372825414,0.072886393976384,0.00704012250476007
-0.0527114538251699,0.0987475030014032,0.0895717147754366,0.00598229166468134
-0.0621388849803222,0.127261161295729,0.110759000742314,0.00512194556668515
-0.0787455450998794,0.145571688680053,0.122847185227807,0.00629859059547632
-0.0852880068064025,0.129086592192332,0.119959997699592,0.00837002356932133
-0.0683055210816426,0.10480429133064,0.108080038760558,0.00859281519208994
-0.0402438279949526,0.102616087490963,0.0982831205204833,0.00613059190837492
-0.0167580247307019,0.109688055054008,0.0950872376876187,0.00207606453196455
-0.00664654859343022,0.110591148795124,0.0950650090213625,-0.00217050621535042
-0.0115356394747403,0.108307724029323,0.094038961267359,-0.00534675974284186
-0.0244660028414789,0.106674059029752,0.0913346225182273,-0.00666102113876238
-0.036617344768446,0.1034274348327,0.0872148631402854,-0.00613854223265058
-0.045244696261234,0.0994416087593205,0.0802928052059583,-0.00425660870231086
-0.0538359690507503,0.0956834397979692,0.074615991802996,-0.00211788558942788
-0.058294339325399,0.0900608708134924,0.0737635768719694,-0.00105165810289477
-0.0497099181176877,0.0815577832350784,0.0719630340529173,-0.00121814991210992
-0.030862270796685,0.0699329674958445,0.0677353980947061,-0.00201735933778945
-0.0135771951192944,0.0561067605749238,0.0626757442430397,-0.00294359911546358
-0.00924009603502942,0.0427962172381028,0.054600254753829,-0.00345484766619105
-0.0160937421738688,0.0296894688169024,0.0430067013151799,-0.00367592721987091
-0.0217323016878675,0.0186353346560048,0.0324967803065595,-0.00422616450820134
-0.0249609489277407,0.0182411403875461,0.0279720562911573,-0.00503346322459676
-0.0368519559805668,0.0332627830375024,0.0290242696527457,-0.00578752802115244
-0.041978663592933,0.050068885909919,0.0307655253825456,-0.00608761604242205
-0.00313020814170988,0.0508677253751476,0.0264442947708703,-0.00539981508086412
0.0553370009101731,0.039490481941062,0.0168740856512646,-0.00412543754137744
0.0697331863294741,0.0283283907191113,0.00959002462841229,-0.00328951454767824
0.0457102359146131,0.0173957170681381,0.00762747735419796,-0.00368127692655533
0.0307491320135163,0.00264714682404519,0.00732094756447723,-0.00542758812882231
0.0249873065760952,-0.0104243736374921,0.00599407641396703,-0.00749711099359857
0.0134713507490757,-0.0173264095927117,0.00641156872700471,-0.00871430618089253
0.00588358367209727,-0.0180183902367769,0.00926090821556967,-0.00862829040000348
0.00498960256814021,-0.0116758209790556,0.0120526578998045,-0.00725138370427783
0.00345027190473271,-0.00290175872349104,0.0121005348812966,-0.00499775340843869
0.00121067045253155,0.00416391531182059,0.00754319939136318,-0.00255400620983944
0.00521058273549446,0.00846973312045372,0.00325834008099822,-0.000826671237832753
0.0124972647696264,0.0129023794499447,0.00579290419019631,-0.00050392816844513
0.0108157667328769,0.0230825564976716,0.0143340303532428,-0.00135567056382111
0.00327410937674381,0.0297851564664041,0.0222056379500405,-0.00237625532096838
0.0014598680377242,0.0251070007314117,0.025672716450504,-0.00270006437097088
-0.00176074574308112,0.0205966933710838,0.0251376862858196,-0.00232105771086188
-0.00823567130033659,0.027636760467149,0.0189232976660363,-0.00173360868996221
-0.00622220289594664,0.0402851578580327,0.00503353901273523,-0.00131060049965671
-0.00795776024861613,0.0423640064936519,-0.0112264917738146,-0.00135925948698387
-0.0321701620757514,0.0395887538350336,-0.0173373714209535,-0.00206032385323981
-0.0668549751574306,0.049719035793418,-0.0128024534808347,-0.00323808678885858
-0.0874677462717911,0.0590875763257558,-0.00455170413244042,-0.00435196889813267
-0.0805840410888159,0.0372446080084257,0.0083203305156383,-0.00443833216751752
-0.0467752810214594,-0.014360814661545,0.0125088873698837,-0.00309488602522461
0.00343103106870422,-0.0534346260614242,-0.0109251610181179,-0.00114410182117355
0.0628511966151246,-0.0585482953399862,-0.0498505560627104,0.00096049835869551
0.121314166183109,-0.0637349333303743,-0.0707006920548245,0.00361694051363474
0.154954981390075,-0.0878356137924366,-0.0588916714484174,0.00622183294579009
0.142035612422055,-0.0931248503437424,-0.0359773966214907,0.00699879342084994
0.0785616900085996,-0.0605599419836283,-0.0222564051778352,0.0048806359514758
-0.0191698188175611,-0.0207481883199507,-0.0189874029137597,0.00100366106694571
-0.105535554964649,0.00585168427804186,-0.0337934690247174,-0.00203744236665286
-0.134026048286313,0.0255595975744443,-0.0448387917731396,-0.00292996630896341
-0.10090485748659,0.0696042264154442,-0.0164477785154597,-0.00169657434382393
-0.0461915974514976,0.136753703873198,0.0153902495790214,0.000630687619263094
-0.0188194035547222,0.159669625191349,0.00664215859069307,0.00124712061278791
-0.0103122389116985,0.124165896660013,-0.0192540951489567,-0.00160077195715353
0.0124827289968326,0.0747578395773097,-0.0291219596765463,-0.00576007328995444
0.0404116130552773,0.0224868834719711,-0.014310721127814,-0.00707974608955265
0.0734959700841793,-0.0259956090568141,0.014039897801201,-0.00354786936500725
0.121287944185076,-0.0455181513501153,0.0343383392901403,0.00323180318783156
0.137608930339004,-0.0267374311079606,0.0419597893113544,0.00864880536017735
0.0911398928269546,0.0125632525065602,0.0363127229569056,0.00960225068515212
0.0358207703582535,0.0285129683009991,0.0127810640252751,0.0085996617468597
0.0152111390542714,-0.017681796684452,0.00130768090281225,0.00737633221510504
0.0128850158810719,-0.088655506584794,0.0184219147700952,0.00446271530105487
-0.000850116954368221,-0.108401913061695,0.0191583210548067,0.00115265975020732
-0.0282895688460555,-0.0764160194065044,-0.0174992938517327,-0.000898342321936012
-0.0352346922226595,-0.0426938335812429,-0.0575478093907565,-0.0032115594192217
-0.0105465379052929,-0.0250669932825217,-0.0714508724360959,-0.00724745292847762
0.014617299047756,-0.0177941423274207,-0.0623465953240563,-0.0120146160304694
0.020458001682972,-0.0170500611640732,-0.0500839248139108,-0.0145338768465761
0.0157572342669745,-0.0168780083031922,-0.0415229111982636,-0.0123859833065665
0.0168520103639067,-0.0138242008241133,-0.0302549096091204,-0.00614688346490582
0.0303633834561075,-0.0106249337475915,-0.0169236384242514,0.00125565599756103
0.0458673619354717,-0.0101026591997155,-0.00805085764370154,0.00718554619958553
0.0492789271988125,-0.0126416145597664,-0.00431646646648697,0.0104663018903277
0.043378878537684,-0.0156633884775936,-0.00414976631767572,0.0108366312934206
0.0384420061478241,-0.0174271992306486,-0.00579245397492713,0.00866571522847534
0.035658478083315,-0.0178780232509867,-0.00558054893498084,0.00488943725282764
0.0328621553437981,-0.017391282723634,-0.00371769743911645,0.000598996401347225
0.0300088570852167,-0.0186613791874015,-0.00180300120459298,-0.00308431490745946
0.028263255310007,-0.0192681224847908,0.0017039719874247,-0.00545818229112862
0.0272312114448875,-0.0161244552560837,0.0044236553861218,-0.00681064539675203
0.023264609799214,-0.0112250509584522,0.00308768367091714,-0.00752191270938299
0.0180647311678656,-0.00796771096744362,0.000302205042179499,-0.00752538671399421
0.018288952516476,-0.00929073816923154,0.000534863590900585,-0.00691385547071784
0.0210412245779006,-0.0130717467414569,0.00292335894150364,-0.00616349782198865
0.0202927841699463,-0.0158802664184162,0.00464713951352416,-0.00564799480241752
0.0154972030599451,-0.0169622003973127,0.00702865017587984,-0.00552843520258867
0.00821018756068788,-0.0159914522780686,0.00925675631698541,-0.00618823615811457
0.00230737561742003,-0.0144831373330709,0.0078301957453876,-0.00715290515570407
7.58940889280801e-05,-0.0152194218975166,0.00378026772637314,-0.00634544567555294
-0.00131363293098408,-0.0182558438260477,-0.000639304131774481,-0.00159787906510024
-0.00498764064775515,-0.019864098610019,-0.00464318156815419,0.00721715122500783
-0.00685833155811446,-0.0174220258449248,-0.00742225944041817,0.0170268566618352
-0.00471371287176004,-0.0165410094250855,-0.0127262692478643,0.0224658348895915
-0.00352950821086837,-0.0197811756759177,-0.0201259163042347,0.0199653393976992
-0.00487967037238392,-0.0214714972058441,-0.0226286009924446,0.0134520311804562
-0.00505306015058733,-0.0214387141650398,-0.0253745529936682,0.0110547544257258
-0.000986198772789547,-0.0228607822631192,-0.0372650135206603,0.0129454254381128
0.00655577641469236,-0.0223714519660675,-0.0440311123676745,0.0101344314115723
0.0129332925353587,-0.0186502265835966,-0.033342750993039,-0.0010517290205564
0.0141314121910574,-0.0169604327640242,-0.0220377377266744,-0.0135999967915552
0.0119437563364285,-0.0179887902809018,-0.0198953838845056,-0.0215300248051304
0.0134059606818869,-0.0199761946075692,-0.019489782744252,-0.0245006009226671
0.0168737091831575,-0.024543743458413,-0.02541600184627,-0.0235261934324291
0.0128166115487597,-0.0316391523049584,-0.0372829564813682,-0.0204902217356294
0.00269885897548505,-0.0361849037045896,-0.0411943589621391,-0.016014256491789
-0.00495543401398445,-0.0334600388472871,-0.0358973641630611,-0.00764542206695108
-0.00950728410981737,-0.0290073594155584,-0.0288444699092819,0.00528930264904292
-0.0190839577358251,-0.0305609237365146,-0.0293104389315188,0.0185303408744395
-0.0339704991349249,-0.0393163351888504,-0.0403514475430742,0.0270887690524288
-0.0404870174446892,-0.0466173174545944,-0.0490491029280708,0.029330037918384
-0.0412460258263761,-0.0406481598629209,-0.0454299419243108,0.0266513193678877
-0.05085014313829,-0.0227221080380741,-0.0336787567868486,0.0214600317961167
-0.0541668350122762,-0.00159219920107234,-0.0232096611973172,0.0154671822694073
-0.0336619988245729,0.0180696044846421,-0.0151837358290938,0.00955209108547116
-0.0105466091631504,0.0310624667578389,-0.00515237121646095,0.00390622384509845
-0.00872057417696573,0.0262976527873366,0.00368349731812943,-0.00181575351089127
-0.0169606571741125,0.00351594910070735,0.010483677874739,-0.00734455748679754
-0.0110749396019144,-0.0116362681585743,0.0184888923981952,-0.0109216436534011
0.0050307532950653,0.00327919175118018,0.0232433907222333,-0.0104657853142384
0.00664399271384746,0.0300138078790718,0.0196484168145364,-0.00649486877582899
-0.00118954134927132,0.034778127506858,0.00551831656974212,-0.00234593598401807
0.0142218470309876,0.0118282782141512,-0.0131171287985984,-0.000988084158013541
0.0463312663184942,-0.0248414084209668,-0.0278584823236515,-0.00250342871326934
0.0561244736162528,-0.0651624416113059,-0.0501787541251487,-0.00495144259558303
0.0560327546964284,-0.0967112933893745,-0.0775340742388978,-0.00712209887252465
0.066757455366728,-0.103696744273456,-0.0870314725431513,-0.00876538087286063
0.0516338556739625,-0.0836478397569102,-0.091367358954444,-0.0100196960992686
0.00986008374456719,-0.0573554940765934,-0.108241004073507,-0.0109583831137876
-0.0114172629931603,-0.041083999454819,-0.116775251367529,-0.0098652949033878
-0.0235287630338869,-0.0187630575723929,-0.0974879273018228,-0.00408703444458499
-0.0677389900536412,0.0204518412393782,-0.0647946747132224,0.00574905191301864
-0.128439732397305,0.0552040258466135,-0.0513828745311902,0.014173215660409
-0.169288737888287,0.0847251314355467,-0.0612911530113739,0.0159133083651013
-0.175915249224832,0.12964763737166,-0.0600507300518988,0.011065523125475
-0.108498963132443,0.160875884864435,-0.0312750552185467,0.00387518957002722
0.0586349807926035,0.118423686151084,0.0164347508335913,-0.00108050740227071
0.240496874428298,0.0136903979895303,0.0772178432805552,-0.00128793799197793
0.297150398961965,-0.0578664029017978,0.131404450937731,0.00244478139122474
0.184437975951054,-0.0525738943775645,0.162182287707091,0.00637418965787
0.0186063642854588,-0.0122838359762139,0.172079031782229,0.00664582089977564
-0.0803075557782269,0.0111892584810891,0.16411648463265,0.00271006594195218
-0.136557259344699,-0.00433755799311535,0.140035308843703,-0.0025650436815784
-0.188447966432831,-0.025876906736715,0.104565228177134,-0.00512169204504073
-0.197961786565941,-0.0237663069697494,0.0586485439001688,-0.00249305008559116
-0.150149027087516,-0.0011623720943524,0.00716134076598879,0.0031383694532302
-0.0743545070460105,0.03455536456251,-0.0271978598703983,0.00731400209092611
-0.00244599870040632,0.0550819452857675,-0.0355006711327508,0.00827772555750114
0.0344415499254813,0.0383755193694125,-0.0345934514456888,0.00609443696528223
0.0315233968213102,0.00586573940127189,-0.0254597823253393,0.00179929227567087
0.00555730336887228,-0.00832377955745886,-0.00102835838649719,-0.0006500179014132
-0.0365457904916598,0.00239242353230264,0.0174488483739979,0.00120957605136416
-0.0639245500805804,0.0110656952853495,0.0127656865717467,0.0033932164194968
-0.0343376447720383,0.00142159142606282,0.00123785820608337,0.00140119745395835
0.0312731308871818,-0.00131318868523731,0.00532318841706487,-0.0028928393677052
0.0700973681683535,0.0138484994631774,0.0255940243320681,-0.00469348067173726
0.06275522595028,0.0315584955568331,0.0487835090519857,-0.0028615489326785
0.0368938086295506,0.050376581140137,0.0650186128741887,3.72530769735492e-05
0.0184641535160356,0.0628936474180826,0.0732711351245362,0.00153271461627577
-0.00145379295440751,0.0573817587448182,0.0811149074075183,0.00165146548144416
-0.0351403109641519,0.0438947501836461,0.0873384156053397,0.00286109851756748
-0.0541736416628378,0.0338580322483492,0.0845741114743681,0.00662570441220254
-0.0438267648742159,0.0222357385516949,0.0778070966858106,0.0108877347286553
-0.0273643299101699,0.00475749059064888,0.0746489286826498,0.0124902683453817
-0.0197026550845038,-0.0137070032057471,0.0740108920607497,0.0103658792160973
-0.0197508638116675,-0.0307911586639072,0.0713170354934027,0.00560967297315806
-0.026154662860462,-0.0508041150723797,0.067922792402125,2.04666484113552e-05
-0.0354678644076871,-0.0691837452731769,0.0669424085959664,-0.00418227539894546
-0.0388040495635553,-0.0740839081915928,0.0598758855992012,-0.0053955940065078
-0.034637357276065,-0.0647290157856056,0.0383409612285964,-0.00479886689159728
-0.0327216843677404,-0.0464127592679486,0.0105476442655587,-0.00481865751106523
-0.0386799398619352,-0.023217568098379,-0.0107152073137977,-0.00581925888301918
-0.0448560298735691,0.00244119567456501,-0.0199886222791622,-0.00646095615675973
-0.0368107612573398,0.0279269600241266,-0.0201201449853333,-0.0058271542584401
-0.0153998949782808,0.0493450022756964,-0.0213287197084034,-0.00449962425481909
0.00357557641649722,0.0683477003942152,-0.0296531825652674,-0.00399143974911665
0.0141017654069788,0.067372192038863,-0.0430418521572035,-0.0045896084758145
0.0225893372272031,0.0277411104310261,-0.0557029069873259,-0.00528484722995585
0.0380596179267056,-0.0231578009511472,-0.0683862750723194,-0.00556253637619363
0.0567902102413588,-0.0578325981430693,-0.0844168441307593,-0.00520620355004008
0.0594523370441911,-0.07030766948157,-0.0934306915322099,-0.00389623072828431
0.0374202263340434,-0.051568426494129,-0.0852906791675428,-0.00173736591797595
0.00576534331288644,-0.00261763995108255,-0.0706260915641456,0.000343718966139774
-0.0112826903607236,0.0450748056019873,-0.0710066978786741,0.000660938080478507
-0.0140426122497947,0.0660768536746207,-0.0804390444023308,-0.00261444674737491
-0.0279736842121436,0.0990236938060447,-0.067426289083071,-0.00937204232529751
-0.0576334586798161,0.170491180801305,-0.0399511883067765,-0.0155186966800922
-0.0839203365393023,0.208232008934416,-0.0408224046511611,-0.0172838324443825
-0.0861103744832149,0.15566010870331,-0.0722455071953227,-0.0160870485741122
-0.0356632707697749,0.0402910468500975,-0.104955233812401,-0.0135212651232762
0.0529296483379619,-0.107733443222493,-0.114325885068168,-0.00817194160578738
0.0987908995102227,-0.236081363482905,-0.0662175792886421,-0.00116287425105661
0.0772808878009863,-0.265561449197852,0.0244664766216578,0.00397978078568197
0.0495309977940291,-0.202577114193491,0.0669475237922906,0.00579746526922621
0.0398925551540666,-0.135768913484403,0.0333279413333512,0.00419618518314669
0.0287489373587713,-0.110550489194786,-0.00524772390949338,-0.000732426092739389
0.0376247856068628,-0.0860601149920929,-0.00225808678884511,-0.0068075617203053
0.0674273051544541,-0.0014034419422988,0.0157804986672277,-0.00913638112346917
0.0562410052255194,0.139192083782963,0.00605346296393303,-0.00508596126129403
0.000543370617858863,0.238553813778384,-0.0278793021587442,0.0019926450986118
-0.0247137248004798,0.22283545674887,-0.0550481028946146,0.00741704936763111
0.00165658324916922,0.140712260100156,-0.0667368031280591,0.00898345155887381
0.0141995158270948,0.0756066791107618,-0.066143970584056,0.00585134414559171
-0.0298332518706577,0.0558520926683329,-0.0533994111943336,-0.000337936142005443
-0.112427263088362,0.0477756283230499,-0.0336412732117192,-0.00527482934592234
-0.166095403711413,0.00739596225882475,-0.014098537056684,-0.00644055667065851
-0.124724350172457,-0.0465151343097992,0.00539081765243663,-0.00472202865825608
-0.0239101612825635,-0.0679931435101199,0.0272997038834847,-0.00175813766849713
0.0589849005994883,-0.0562694164915451,0.0419323680191552,0.00126244934235352
0.108303177137412,-0.0418116007312769,0.0414255767319939,0.00399786865634184
0.130055200401977,-0.0358764631728721,0.0362042166600498,0.00687912276136079
0.116071881703983,-0.0282540088766358,0.0354341141607352,0.0092632976959048
0.0539073256948256,-0.0117720665713241,0.0376838944005517,0.00927269117732941
-0.0468086767052968,0.0133421535177798,0.0410023307196764,0.006588799880945
-0.111048204060771,0.0352007386231102,0.0423578046158534,0.00364055843448217
-0.082401013335051,0.0353456795877707,0.0382048965565664,0.00305660359180325
-0.0188180630552152,0.0127590326882129,0.0323911297078156,0.00524681679185043
0.00844275816591845,-0.00854152130710558,0.0345308211821859,0.00913117032186749
0.0084722382832027,-0.0125792467092034,0.0431907903353033,0.0132139426748599
0.0109827962798268,-0.00832540056172208,0.049442084996737,0.0144515484905591
0.01664624176674,-0.00705972622157129,0.0510957166680007,0.00984717552627667
0.0226121989307906,-0.00996676267586841,0.0520412677661135,0.000743894917142796
0.0312610007643586,-0.0100954811564265,0.0553173117706905,-0.0074011546299517
0.0345538004748431,0.000540904705829074,0.0567737429763956,-0.00932397646650047
0.0291184290222319,0.0192867551657979,0.0500665832956866,-0.00435919274406837
0.0272690027844346,0.0332406445265005,0.0361648393230985,0.00298671278943562
0.0338910453382915,0.0339451415166671,0.0220425945511894,0.00738149694996518
0.0372744434063049,0.0263227034568098,0.0115304108917426,0.00706912758660089
0.0276895614406128,0.0194503156446852,0.00370459708732647,0.00440401580787766
0.017371632074245,0.0148296864101993,-0.00566351111095702,0.00246085927373152
0.021350687325173,0.0043975767882871,-0.0275304981979182,0.0017584551331219
0.0306891911432381,-0.0139479419165817,-0.0657066364918932,0.000322667915470659
0.0361816039795679,-0.0193258376633005,-0.101066996679133,-0.00273484227988074
0.0422809878029182,-0.0137679248060427,-0.112259007640789,-0.00471106643169252
0.0305504511285131,-0.0238798599021448,-0.108023745415086,-0.00315800756108538
-0.0174538747837294,-0.0422124033765741,-0.112625697877511,-0.000154358093215646
-0.0549031841070057,-0.0626294065712612,-0.117068296963275,0.000239127738799229
-0.0288006737503333,-0.0940693057783394,-0.0999907156978519,-0.00186113413048472
0.0285656573738432,-0.100253905673,-0.0794446652084282,-0.00217826501921739
0.0465774078919993,-0.0460361231688206,-0.0693337886252148,0.00151974680910832
0.0320851180611519,0.016833093881629,-0.0469347030058939,0.00734589021243196
0.0450549714812036,0.0261666471821173,-0.0130295831197412,0.0115044839503167
0.0824526034630328,0.00234020840641369,0.0136029847380736,0.0111622119621433
0.0833463476635298,0.000145683541094708,0.0377393083144836,0.00632317768207614
0.0254996663252456,0.0283633622536242,0.0641828347515123,-0.00125387051304122
-0.0489181077402204,0.0217754790154444,0.0827583408722491,-0.00936827313335056
-0.102685702884654,-0.0622228799742384,0.0778293500917532,-0.0162632358916746
-0.137126675875247,-0.130205545449222,0.0469054530416073,-0.0210420130796613
-0.148950581770112,-0.076218894281107,0.0153776932561671,-0.0225672039172342
-0.11808578566382,0.02002045217306,0.00284883937791452,-0.0202305640766417
-0.0439704128073156,0.0178038697281725,-0.0128229420513149,-0.0145922902609374
0.0424915141153033,-0.0598102730861397,-0.0511650915831281,-0.00688292331269385
0.0778532344444029,-0.105034045249641,-0.0791646984257215,0.00051058977603486
0.032119411284166,-0.073433816098245,-0.0637380454309997,0.00624654780812586
-0.0281273466487795,0.0115185877864286,-0.0297463069398343,0.010783469509853
-0.0291269488423566,0.108972359282086,-0.00943855814389617,0.0136038902586502
0.0168214096709913,0.171206929951297,-0.0028069656281608,0.0132934787568535
0.0580769572676852,0.147600566638466,-0.00648261835118824,0.00966487956593273
0.0666091370519153,0.0505138522805595,-0.0167232963906358,0.00396723968617594
0.0347474162053173,-0.0432151809940188,-0.0201400391542286,-0.00219650758824941
-0.0172564897516093,-0.0848871788982464,-0.0105631074277178,-0.00742151811787866
-0.0524883417615788,-0.0873188869522485,0.00424600562958885,-0.010822755860232
-0.0621386756996823,-0.0752242638164392,0.0177287433179457,-0.0122754723100284
-0.0594996378551879,-0.0580502970248981,0.0320448185207038,-0.0118963298078809
-0.0524079009536656,-0.0434108909149586,0.0461757198609271,-0.00977598281043538
-0.0443991721631364,-0.0362281714513277,0.0555557222827602,-0.00637013228652481
-0.0368555853653231,-0.0327674981894765,0.0606962690270952,-0.002469430297961
-0.0254475089589394,-0.0287470768886354,0.0637128570023722,0.00117586771955666
-0.0150116426708441,-0.0162727472072186,0.0685597754823361,0.00418745881755653
-0.0173879849379033,0.00966155510187802,0.0772369971094042,0.00636248624888193
-0.0254894887786029,0.0418710379852536,0.0853582455213184,0.00758568214890966
-0.0284608507152775,0.0749612816239833,0.0889838452939608,0.00791735573771364
-0.0308494195642164,0.0955224848744158,0.0865999790732036,0.0078165468917271
-0.0346375030303802,0.0849524246054648,0.0768999292645715,0.00731539383452715
-0.0353357518726021,0.0570997244547346,0.0641993125990621,0.00489536686006959
-0.0318489873138654,0.0391114319499451,0.0568057799926558,0.000576835986960221
-0.0253396534916117,0.0364346668106867,0.0547426121999743,-0.00241450286521207
-0.0202827367774915,0.0413686852029001,0.0497623740462091,-0.00219647379092767
-0.0144910686652225,0.0527819796074001,0.040771599648255,-0.000470332548456415
3.389742728486e-05,0.0676531179641491,0.0367333262553366,0.00122832390407552
0.0131307927627341,0.0653723130433629,0.0359375271381267,0.00340864617270477
0.0112663920176791,0.0365326952318904,0.029033956247299,0.0050439718237261
0.0039415436926642,-0.00111957944462249,0.0172652731894865,0.00350179783994227
0.00528871001152173,-0.0199771890774983,0.00458443207935335,-0.000534981167470599
0.0132644565553787,-0.010852679681862,-0.00687241464419801,-0.00340388584755522
0.0124552371051929,0.002352116354198,-0.0161040172289832,-0.00263354373238925
-0.0141834682342898,0.000396293835226436,-0.0191645260524799,0.00149266003744628
-0.0511425859454174,-0.00962508653516106,-0.0155336897434235,0.00571930470486716
-0.0589137197475847,-0.0140171793343942,-0.0152525980957801,0.00601919415638154
-0.0313030756389841,-0.00499813228278008,-0.0180256196514872,0.00202518980257702
0.00688817312217532,0.00577911198403873,-0.0181119517927255,-0.00190612395083011
0.019665091304139,0.00243376038008465,-0.0130276505698835,-0.00142537641999435
-0.00110589849502005,0.00824016958207216,0.00557332507845756,0.00276142075791641
-0.00946595182645136,0.041494720761164,0.0311279848197183,0.00723278578518675
0.0202697654113962,0.0590928248199573,0.0439316345456001,0.0105416485631806
0.0553076087687728,0.0366626374092847,0.0383871079708541,0.0119830462138906
0.0615830747383341,0.0112822957712342,0.0203691249140368,0.00976064768121547
0.0377265070973036,0.0074847476046945,-0.00140736180435926,0.00451475351098352
-0.00394371243351699,0.0171376307150892,-0.019310772071648,0.000184735198869133
-0.0362280587245629,0.0178596383513305,-0.0298457690393514,-0.00220752882487251
-0.0266199065035592,-0.0109311124227844,-0.0355842698899022,-0.00511733129213753
0.0143801037857295,-0.0551225951605461,-0.0430177233381995,-0.00899127200714965
0.0503717467296325,-0.0848010894268939,-0.0468444007803753,-0.0120912644198098
0.0671010398126014,-0.0923952814016374,-0.035303235321227,-0.0128473012794574
0.0496771416225863,-0.0688593538692085,-0.0131613190843204,-0.0104896042928991
-0.0242802711842323,-0.0136696410175058,0.0090209162367027,-0.00604388686153988
-0.120046386740337,0.0187244659065572,0.0228558583902872,-0.002073865382139
-0.15283395675876,0.00153306743334025,0.0218180656415871,0.000319364159671872
-0.0916184170198186,-0.0204635526811312,0.00940151159615427,0.00257881757282954
0.0104679229409911,-0.025822385683353,-0.00881660067594414,0.00591228867997801
0.0725428463251564,-0.0280319173151456,-0.0275960209101465,0.00929833717751949
0.0669987236368992,-0.0313016911801838,-0.0380693129195304,0.0105883960190141
0.0435311688774485,-0.0307415245809498,-0.0394812211636709,0.0088461072218567
0.0465133724450372,-0.019385311691796,-0.0384223492973481,0.00540983506991089
0.0579517820862399,0.00419378300322262,-0.0321439210347636,0.00239882303607334
0.0412435402273884,0.0257226494044597,-0.0196520322839552,0.000635409891834902
0.00709522793487573,0.0350185576195299,-0.00757206016606088,-0.000691328157032607
-0.0169716826605403,0.0411662329024388,0.00122082503072286,-0.0023546362225379
-0.0241112993428925,0.0382370579789095,0.00304960767812208,-0.00385220507589686
-0.0157808745540821,0.00822218564372012,0.00117707592330442,-0.00451308328105661
-0.00790547784432417,-0.0337140969863458,0.00629696722684447,-0.00472254335176188
-0.0124169314330183,-0.0586525539481459,0.0173354499461659,-0.00518170892063232
-0.0311749890966724,-0.0574640891180179,0.0298409191426957,-0.00566369762533442
-0.0340036861257596,-0.0317031809675078,0.0433296975921864,-0.00485321711042184
0.0184971441872791,-0.000509763196179548,0.0460890990013511,-0.00146831765816384
0.0811707114678642,0.00574165896668868,0.0221868166236072,0.00315312004676386
0.0912732072685012,-0.0141717555339513,-0.0157662938774916,0.00500033199623667
0.060856225558571,-0.033986587588164,-0.0374636215439075,0.00189123812971143
0.0236784296738631,-0.0355391525851959,-0.0361203770874827,-0.00379730830953094
-0.00396517362692911,-0.0194102567753689,-0.0224719099032594,-0.00757684460055802
-0.0110916145067476,0.00598135616805372,-0.00918282141308049,-0.00709167751558225
0.00345129270977139,0.0300052900177586,-0.0128745880793931,-0.003117833514708
0.0265575297863127,0.0498065563837887,-0.0306920889775427,0.00269869093280022
0.0454593185412897,0.0719088364764081,-0.0447032371593678,0.00839613569885485
0.0597596653927189,0.0971228130311265,-0.0546660409597111,0.0114620878554508
0.073290634882157,0.122960818725967,-0.0601617570315448,0.0104172254231865
0.0809226400929739,0.149623428466321,-0.0560795627574603,0.00616521683184926
0.0758384027858221,0.171759755171335,-0.0484798425870312,0.0010838896532904
0.0580029780259187,0.157708070868535,-0.0399635253034036,-0.00280602081812651
0.0483226976492086,0.0791083597354398,-0.0315604947344405,-0.00460510074957882
0.0865925146216021,-0.0387943116735573,-0.0373784603587514,-0.00481702720710754
0.145149558823707,-0.139402009884883,-0.0685120255402259,-0.00497040882014316
0.126282500403496,-0.179205632098265,-0.0932215165062153,-0.00629636438490784
0.0365933022111222,-0.170192434268511,-0.04852851361408,-0.00725724368010463
-0.0178450154580882,-0.146338849270222,0.0610171009974204,-0.00313736919371016
-0.0102323700770988,-0.0978455345016296,0.134842460835766,0.00766988792370568
0.026321477064115,-0.0127260375440672,0.0994465065695189,0.0187917872358837
0.077914393113319,0.0982068325592754,-0.00240227836610224,0.0217312819783655
0.126329225664044,0.182216773675022,-0.090194258289772,0.0142873652603215
0.143485802248199,0.182257215981783,-0.141430353875254,0.00110008443108734
0.0915290288775029,0.132458396619684,-0.157727700796358,-0.0111120347941343
-0.0421495429075696,0.0598680785668914,-0.1292908513047,-0.0181354954429781
-0.164569911484278,-0.0389929123329809,-0.0673296897534907,-0.0192062819549392
-0.168200619724448,-0.105043309147338,-0.0132031367409426,-0.0151310316021035
-0.0953982371150151,-0.096527937734015,0.00386340614516771,-0.00802005183322443
-0.0616640609473246,-0.0309292027739771,-0.0057798944781953,-0.00078055774846094
-0.0902234426373053,0.0447350320760683,-0.027102406402181,0.00450915530031438
-0.104938856483553,0.0561453140583649,-0.0535423877050792,0.00716042601259462
-0.0741545003658081,-0.00500067681406676,-0.0526302671660186,0.00804350726265708
-0.0484571134066169,-0.0402914728701203,0.00277113221587742,0.00846474284990792
-0.0181417644566407,0.0144726043273825,0.0688118964687136,0.00854149291223893
0.0637047677802804,0.0922091325450546,0.0873367655892421,0.00778716388328723
0.154830657524268,0.0887436740852552,0.0693761815672157,0.00604762508008622
0.191357105046552,0.00938139177134389,0.0635534869026703,0.00288387618473668
0.181586028100464,-0.0584522023366002,0.0798170960391233,-0.00170897718455515
0.1517103682715,-0.0762741305706611,0.0745579123076201,-0.00564314798097507
0.0915305499422791,-0.0599129215892771,0.0294706719470251,-0.00676358272949821
0.00520763473210625,-0.0312927252411204,-0.0152301665301827,-0.00569925651255143
-0.0578697185528944,-0.0118699900534736,-0.0301576656309975,-0.00428883328227789
-0.073313496053004,-0.00630178411104335,-0.023579694666136,-0.00316266016704394
-0.0767805387071896,-0.000247802938945933,-0.0102414236617137,-0.00220970100639059
-0.0917726810236322,0.00486812411521681,0.000437824817568919,-0.00140635925679348
-0.0960581995813526,-0.00411399699612817,0.0051739260426866,-0.00108368782376434
-0.0835136368644475,-0.0202234918230472,0.00792824616603788,-0.00150180601530695
-0.0734437440548437,-0.0299691645960677,0.01292860903375,-0.00199452810800403
-0.0708607379340926,-0.0300812689738191,0.0204876256583554,-0.00176151344913109
-0.0688973151387998,-0.0240603050596466,0.0283232664122929,-0.000778347095470999
-0.063835312949224,-0.017443068907876,0.0357484243125048,0.000524502072520126
-0.0551532339474771,-0.0103574984326088,0.0444550297872417,0.00181971099802868
-0.0426659993924279,-0.0027058251070316,0.0533878295239312,0.00275315560514128
-0.0300433716211765,0.000491308266975713,0.0588672300108141,0.00278448175815395
-0.0222544726969253,0.000932830303235857,0.0606006132706861,0.0018105403795013
-0.0178375842987643,0.00494627257132071,0.063638783393257,0.000282509525166078
-0.0116871251686657,0.0099247262630263,0.0688219268130564,-0.00123736777460633
-0.00351136348603959,0.0128638128799685,0.0700107633747966,-0.00229413760037619
0.00506462913225125,0.016237591719814,0.0663267042006137,-0.00262784519058659
0.0118440451286869,0.0199792627858027,0.0634295773912241,-0.00235264943890619
0.0149477179632197,0.020741888185691,0.0610918686969886,-0.00179289831094479
0.0199642481498631,0.0171884310502145,0.05535391032652,-0.000917672299088161
0.0230758657345094,0.0133782395475755,0.0473150948339939,9.30242838746687e-05
0.0146568273309163,0.0131120755069582,0.039789305497598,-0.000108085480645751
0.00414667223699026,0.0130162518711979,0.0332292987821041,-0.00236066277447244
0.000696155903439091,0.0099614149189262,0.0268683034091117,-0.00519119253629092
-0.000419554733764363,0.00549945175284144,0.0190779044616518,-0.00652154052488197
-0.00181812263345881,0.000982309890942838,0.0108231771319173,-0.00573748796751642
-0.00200877201508591,-0.00162195711682477,0.00684110360951276,-0.00346390575101787
-0.000300310554839912,0.000459637526892017,0.00591648569135475,-0.00101595595786808
0.00178464570219505,0.00529306460357514,0.0042189994712548,0.000135131470753521
0.00111489587743231,0.00533858172999503,0.00115950983313438,-0.000519133523942885
-0.00208773554864326,-0.0054389326356782,-0.00302292804808456,-0.00185509016153534
0.0012172155968381,-0.0222707408155539,-0.006528817007823,-0.00223551245920394
0.0207113406981824,-0.0327877743794809,-0.00872807056720043,-0.00138111305515771
0.0448439140400876,-0.0384740547814806,-0.0100369532964536,0.00065516816128888
0.0566034293924622,-0.0452473894029586,-0.0119758844538471,0.00377066037906768
0.0621262744329717,-0.0464574241256193,-0.0168904860899266,0.00547468067802431
0.0712233111189164,-0.0412638718930181,-0.0239228867450728,0.00338063122333088
0.0748543522733497,-0.045795823349412,-0.0316150818866897,-0.000720401288082434
0.0619027658117624,-0.0588305095624287,-0.0395051420563599,-0.00413366786723053
0.0366229910496214,-0.0688212223067916,-0.0431039377037573,-0.00666410871162756
0.00149133016759215,-0.0864505858351289,-0.0330775979735841,-0.00779623144442859
-0.0536065832079318,-0.0830248667700379,-0.00687551501247411,-0.00602409752387126
-0.111503673066727,-0.0202426444865602,0.0124156710631325,-0.00188322417319469
-0.119111437121554,0.0504283923612851,0.00378870108986584,0.00161632328413867
-0.0535814551306537,0.0612614534690283,-0.0105449591509261,0.00244325811065864
0.038153680018806,0.0176125969591147,-0.0162327435771692,0.00214299228649471
0.0873925401673645,-0.0329242742205197,-0.0277355207982173,0.00291560813085964
0.072327760275831,-0.0409257338420089,-0.0361895528427387,0.00432261947011345
0.0265828899105962,-0.0167102591627776,-0.0220823646680059,0.00559778486334482
-0.00226847612779425,-0.0226436546292884,0.00239498254787185,0.00723285077184176
-0.0161019943025411,-0.0601244517528361,0.00966618165200268,0.00716921791554464
-0.048060393107501,-0.079541332780582,0.0140460919671388,0.00161374005189104
-0.101372678745207,-0.054013453061123,0.0462589721561262,-0.00717360366160584
-0.139386639897745,0.0199836918442487,0.0845811708129831,-0.0114709264269178
-0.110108569592101,0.0981016151560121,0.0877323560972981,-0.00759677617146459
-0.0330316121653792,0.102369315055557,0.0512300702692247,-0.000147202235432792
0.018304150024914,0.0457629150275653,0.00528948683529706,0.00357552877184498
0.0319059493394381,0.00685459984553774,-0.0246724724624414,0.0022522280740594
0.0410781936136281,-0.00907936154947701,-0.0442599967168108,6.91962776276462e-05
0.0612555247622625,-0.0427330532657235,-0.0609866562613084,0.000200771108517971
0.0904871101595755,-0.0894465862674254,-0.0715865014214398,0.00405911355557517
0.112009839292997,-0.109326090658467,-0.0833739922781993,0.0109902011706886
0.124680843834558,-0.0888692779996315,-0.0944976123534246,0.0156673727062257
0.126741743845696,-0.0507019978408183,-0.0833881647261981,0.0128323408812829
0.0682877549209177,-0.00954060541715718,-0.0460007952667756,0.00434999515020423
-0.0405939290016268,0.0305947521782645,-0.00394468445310385,-0.00340573815014608
-0.118871308662949,0.0284731759226134,0.0188055089457115,-0.00686269373329116
-0.141999339682842,-0.0247537304021144,0.0190025478734986,-0.00701160374871636
-0.115549069242038,-0.0619983627156597,0.0096347776474698,-0.00612595685511016
-0.0545225199500146,-0.053122223182316,0.00147636664937865,-0.00543391109766627
-0.0117396038301591,-0.00571438300546014,0.00349236722698001,-0.00489458275265209
-0.0128496258722397,0.0826337839041985,0.0167952290164178,-0.00368433424578158
-0.0277579405011152,0.166373001755136,0.0298805607785225,-0.0011305695373969
-0.0285383406134595,0.176103689724693,0.0345423945741213,0.0028708610926522
-0.0236123616878416,0.133177641308312,0.0336803862472213,0.00817388148400659
-0.0233931446735843,0.111849642160191,0.0314994998798882,0.0131113847560302
-0.0113854405080882,0.106138490529583,0.0336358502007744,0.0139762311517784
0.0156815283065951,0.0708735954977069,0.0348178809032011,0.00943874520539068
0.0309853995022109,0.016257573915407,0.0237214716966293,0.00281819296493316
0.0260625554343719,-0.0240636637277762,0.00956980831770943,-0.00235569308781695
0.0166194350923482,-0.0346947191092042,0.00309317615089799,-0.00514555228922385
0.011516651157767,-0.0262532908089849,-0.00166952171036774,-0.00598855026670194
0.012670500762887,-0.0163966683851903,-0.0126627397943978,-0.00607171531167251
0.0160716534112051,-0.00712466707424876,-0.0234475749984428,-0.00569584560331669
0.0124977096970766,0.00549516350092925,-0.0207558629939488,-0.00300840953758961
-0.00297818597157933,0.0183959742075043,-0.0123984646973515,0.00251547872654851
-0.0205086294683818,0.0244032938252932,-0.0151572576556935,0.00685968093343548
-0.0299239436773137,0.0246498432057637,-0.0248179701272757,0.00612560799537023
-0.035516591638404,0.0280440698920634,-0.0280955752626681,0.00202363774483509
-0.0362490581265458,0.0353284268393195,-0.0242899879330913,-0.00194909801466538
-0.0277779472345456,0.0383983419271833,-0.0219138077267691,-0.004715690207984
-0.0151442494652333,0.0363421488579709,-0.0217172534094178,-0.00591048046530737
-0.00377631929818368,0.0373862085116638,-0.015636875869032,-0.00525462229663765
0.00227661631670339,0.0397033787599136,-0.002458606247178,-0.00358156854311334
0.00106439928470638,0.0337669038669396,0.00686472468779062,-0.0021590010132497
-0.00397582902645723,0.0228116564680208,0.00279119041963878,-0.00177641026741578
-0.00853948529756956,0.0163266372120355,-0.00708834956459141,-0.00266030493136952
-0.0102941010634661,0.0168535792253874,-0.00748391419942897,-0.00397494302286393
-0.0131887448718862,0.0210688758785809,0.00497775695655898,-0.00411194226135997
-0.0183274952070975,0.0208086529411582,0.0226496476555248,-0.00239851913076004
-0.0146286377375231,0.00717980954532842,0.0382653430263605,0.000504062234295169
0.000302226583031417,-0.013259526062548,0.0470619846773925,0.0033434298725417
0.009116898246385,-0.0219828274518647,0.0480136392439557,0.00504834838741985
-0.000706820331942779,-0.00810390484910914,0.0427422050253406,0.00559556433629208
-0.0191204665774695,0.0161651331092573,0.0312416078212947,0.00514504128458254
-0.0296278679819047,0.0252053691431514,0.0155558674419139,0.00319554156143504
-0.0306349589962901,0.0148143834511935,-0.000672461026299833,-4.47187474772928e-05
-0.0293940956296304,0.0019982353651002,-0.0166045315828581,-0.0033960107594454
-0.0290889813249176,0.000976823869536341,-0.0333281501712747,-0.00566437402909871
-0.0295313119565895,0.0140955640539794,-0.0460314088193093,-0.00620452640882192
-0.0272991475772271,0.0337019672260461,-0.0441518526264123,-0.00534740143349033
-0.0115956122046316,0.0455577718547077,-0.0268076391590084,-0.00389166007208133
0.0206078307514218,0.040801179725243,-0.0093349594654509,-0.00276721671862814
0.0587720017671624,0.0244286067927717,-0.00847194608664805,-0.00249440469952985
0.0897891109780773,-0.000302587205027384,-0.026760749940565,-0.00280262216236099
0.0853997317330869,-0.017837582811552,-0.0507689725328513,-0.00350735745485807
0.038204531749345,-0.0120944463019629,-0.0737260050572999,-0.00416525990364852
-0.00938741872961402,-0.0150748143274042,-0.101406279361204,-0.00431876735306521
-0.0229917281956656,-0.0623454102799993,-0.12450638864843,-0.00470358071753163
-0.00557102152591142,-0.124095273756881,-0.11773974396793,-0.00603173247784901
0.00204218981336331,-0.147973208802944,-0.0722708263725395,-0.00706661195816734
-0.0361541519981609,-0.110539770591361,-0.0107199885161175,-0.00528589630780366
-0.0701840531222229,-0.0184276766577877,0.0427117616009959,0.000524867970452064
-0.0649074510399195,0.0576104427065376,0.0632779525258134,0.00907741673721223
-0.0993901823573634,0.039320331212202,0.0321536246550667,0.0165140069367811
-0.169119904563174,-0.0351043599623537,-0.0221140359582279,0.0177433619904981
-0.163202856859107,-0.0786082871507542,-0.050162215987321,0.0114858676611068
-0.0958935812384075,-0.0919720089051394,-0.0299879650837269,0.00267061278949083
-0.0395131033678007,-0.107857826237381,0.00822174544219527,-0.00346535897327146
-0.000769605618016894,-0.110534894332266,0.0282652676940708,-0.00655936737810409
0.0210275762447348,-0.081608511695786,0.0476003324477362,-0.00858320117579603
0.0293306366221452,-0.0345105277928244,0.0647343118425737,-0.00970051649496572
0.0332190229924392,0.0168434506890568,0.0419484173823065,-0.00877386352398755
0.0302656046742137,0.0541479325936242,-0.00679898792809339,-0.00593981428876817
0.0198754204786997,0.0524072832013014,-0.0367601569678005,-0.00268278218450169
0.00998608076343319,0.0268041154967142,-0.0410175025123755,-0.000296773592372208
0.00906268199789071,0.00310252289545449,-0.0334429792641111,0.000957575321075415
0.0175691233858322,-0.0184751897047554,-0.0202851359858881,0.00162136740820168
0.028129469212295,-0.0403133121063484,-0.00837800022751539,0.00217850374502335
0.0288657393422542,-0.0610178154734627,-0.00378619215183366,0.00282673248345485
0.00861503840120732,-0.0738517353025333,-0.00661906831152763,0.00372987649732028
-0.0265105297477222,-0.0742185046173172,-0.00928673450315447,0.0044080086572894
-0.0520620171231024,-0.0652440601434271,-0.00198458020203265,0.00430109223734892
-0.0504921373372529,-0.0543473674656349,0.0126906620521887,0.00378936474174265
-0.0303859725538127,-0.0511422173138822,0.026225803107058,0.0035473968555113
-0.0137686725236733,-0.0479054821139558,0.0354373215861675,0.00374641896421901
-0.0141621650520163,-0.0354769798273891,0.0395368895952892,0.00405697338856321
-0.027672145053437,-0.0231885350024681,0.0408437596799966,0.00410680587818549
-0.0376402438681595,-0.0175656895552427,0.0414962807204449,0.00358439515289517
-0.0354654082955365,-0.0184173496618776,0.0412302001135909,0.00232817475072268
-0.023087742225748,-0.0211986778763628,0.0430010963866281,0.00102136286088292
-0.00686607688294778,-0.0210433458830419,0.0471785132027537,0.000376680709730657
-0.00713685046415113,-0.0173725445663031,0.0510816187879282,0.000104615784225657
-0.0353855691387019,-0.00991218189268231,0.0544147342487161,-0.000148206745277813
-0.0594477220414557,-0.00162102576930869,0.0557516381655686,-0.0004466460151533
-0.0482622029580226,0.00539775721142276,0.0555665883120065,-0.000418253279200718
-0.018358890037247,0.0127372988073783,0.0553850512858856,0.000534323893734347
0.00741330000428432,0.0165990461343922,0.0521961107053624,0.00209770792978571
0.0247740133125609,0.0130938559561048,0.0451930108679733,0.00322520905954191
0.0344195056145947,0.0102808029967663,0.0391977762070375,0.00326947327498399
0.0414558319079921,0.0161507649155065,0.0353919958475011,0.00256843255269512
0.0491575881257847,0.0230382373171902,0.0315906436089868,0.00194260989620867
0.0518309047212409,0.0151470625315446,0.0278389288534959,0.0016804713624367
0.0444514651832481,-0.00691812622452562,0.0261016521905036,0.00151921596287679
0.0314432195750056,-0.0262099098088888,0.0277701351459019,0.00147047665683351
0.021393033868245,-0.0340378733852442,0.0307181481256413,0.00195790727632222
0.0220209966952166,-0.0289955204905973,0.0323163008976177,0.00288579508289964
0.0300508259571047,-0.0127156278723828,0.0287332921617589,0.00353106560774155
0.0305164349988418,0.0040237948102999,0.0204569112832764,0.00345277610304403
0.0224607379897809,0.00980473838760733,0.0135872810121896,0.00280691589465577
0.0154107890037933,0.00408725888062029,0.00961499965069367,0.00194377138675287
0.0133779523685116,-0.00457038006888532,0.0093572034517503,0.000737473776873472
0.0178500698207649,-0.00865042678409156,0.0110606385328442,-0.000957027333946775
0.0235290998406485,-0.00440377327370642,0.0120159778819514,-0.00270098714266824
0.0282153260827179,0.00500493621408762,0.0136632352818948,-0.00396302832433926
0.0299959212795273,0.00812508615142867,0.0157868507578101,-0.0043202954985588
0.0223357457291307,-0.00462245027465026,0.0168452443330408,-0.0027981526118641
0.0140023598602675,-0.0310688917323378,0.0134309947519886,0.00190913755435781
0.00799425490806202,-0.0515240357926551,0.00745498743506746,0.00873774533064828
-0.00654980324358246,-0.0451193877049991,0.00809137109595702,0.014186704481246
-0.0189582206332272,-0.0129886312808533,0.0104462827917824,0.015480633914355
-0.0201249614590927,0.0132213969091447,0.000523347183952114,0.0111862532428297
-0.0166268789431722,-0.0025137268882917,-0.0182452118372783,0.00231090440969188
0.00369185216669998,-0.0472480388274732,-0.0361427191459897,-0.0067708237087753
0.0421728518302044,-0.0694701046341539,-0.0500763525162207,-0.0117451667686654
0.0626031136600435,-0.0477565627728822,-0.0546030913576991,-0.0111302757016553
0.0421206465813732,-0.00624325822780514,-0.0462623928366404,-0.00637634254690701
-0.024135181230181,0.0213191897452233,-0.0317869726007004,-0.000804456116187083
-0.116471657992003,0.0201370350349326,-0.0211843220199747,0.00286965269764398
-0.143822596022975,0.00196489200332957,-0.0209341823834085,0.00415265116678703
-0.0605520317734197,-0.0285730125046881,-0.0262754554278085,0.00428151262630144
0.0350892925265382,-0.0712846190307055,-0.0269467768070881,0.0040790683143108
0.0726178180590872,-0.0921791202175096,-0.0224995754092191,0.00256170073433343
0.0774764324255085,-0.0638131261809082,-0.0113240889485261,-0.000561516459556658
0.0595957775593029,-0.0285839924198823,0.00491783673145531,-0.00303569374467434
0.0340179584133327,-0.0440304018550472,0.0100027007808021,-0.00307805422428626
0.0263182743417433,-0.0715471991864816,0.0105705133839655,-0.00152468173279526
0.0259512522069028,-0.0353363384248241,0.035093537480715,-4.49417541131389e-05
0.0195174402919498,0.033823829316007,0.0628260735110786,0.000696820301781727
0.00896932459544093,0.0538570456718334,0.052248189463661,0.000974732797488654
-0.00823348800936476,0.0381560023465691,0.0212753185158227,0.000734516685647332
-0.0324169843130411,0.0593659290226033,0.00509422531236509,-0.000452892984918133
-0.0446837220817755,0.127364637991223,0.00289733001672643,-0.00182910364819304
-0.036229323413804,0.169703521674345,-0.0023613204805497,-0.00171264017617857
-0.0187405323919968,0.125095488128561,-0.0201451164689916,-0.000124756978088425
0.0033772827532191,0.0387856881018148,-0.0413514599546857,0.00101418745415344
0.0212989449637737,-0.0078306557923386,-0.0510153407057818,0.00084152329339243
0.0315670882183521,-0.00945142562641871,-0.0484537103422012,0.000116956345774142
0.0430820231797397,-0.00378487012436843,-0.0411857649140061,-0.000485435334585528
0.047090140947912,-0.00231741587158363,-0.0322096944225533,-0.000903019285089636
0.034402270013652,0.000205081915687064,-0.0220049415563567,-0.00166597053996918
0.0164764454747632,0.00296383760976777,-0.0117740486374997,-0.00313294019159091
0.0073677481408895,0.00580969184979244,-0.00128660271170526,-0.0046861625130911
0.00875045343614088,0.0122742287365133,0.0102314124704812,-0.00550113333926268
0.0127549665015258,0.0285604156798707,0.0195671264151329,-0.00521700875126909
0.0127931431922585,0.0514338607095003,0.0204644256690213,-0.00408243899500481
0.0102859096821139,0.0651337617319913,0.0137445710563477,-0.00298821009065782
0.0106080199962586,0.0668827469647227,0.00688952063817416,-0.00258107100500424
0.0143506424758028,0.0657866944830609,0.00527896217885355,-0.00278724947350576
0.0175171054921348,0.064442409552551,0.00985310767700834,-0.00314810975183147
0.0180235088502767,0.0639940038427552,0.0158888616024129,-0.00297454098037464
0.0175392755170383,0.0646406388816541,0.0178607858152344,-0.00225131403805575
0.0179100912247901,0.0646183057905113,0.0169759041468489,-0.00159162965088827
0.0188678844509792,0.0638447296033544,0.0154501228255755,-0.000999146037056144
0.0205260899972469,0.0611391860835289,0.0116183964969552,-0.000448585713347418
0.020508330482652,0.0566207738580982,0.00627845024224899,-0.000494960151089724
0.0177655638095332,0.0531469306929185,0.00283825198153466,-0.00135773423815399
0.0157051308999688,0.0507173446596679,0.00196192162385019,-0.00238236797655655
0.0154504060408005,0.0469880657699428,0.00102549525441351,-0.00290230316260163
0.0171159958016216,0.0416574381040536,-0.00129225739632052,-0.00316473938613211
0.0213348161996205,0.0376755889558735,-0.00169043226235123,-0.0033184849907769
0.0256629905542122,0.0372263177629632,0.00038941185074017,-0.00302492663580244
0.0274055204855178,0.0409299372489388,0.00113554813557204,-0.00258738373732177
0.0275436865409195,0.0497699494823062,-0.00216620548038514,-0.00242120821072937
0.0285771877719974,0.0602014737117628,-0.00898995880508757,-0.00244432491667261
0.0296635594880596,0.0647114093850001,-0.0150449492350349,-0.00247820497321041
0.0277618379734446,0.0647904511750709,-0.0193789403361245,-0.00228377832249548
0.0209173149540173,0.0629059708575137,-0.0279503402768849,-0.0020909822615098
0.0136299379594612,0.0423347331933482,-0.0466990651526399,-0.00259934272911062
0.00805578363656289,-0.00322698101719644,-0.0707652014031577,-0.00390898894141689
0.00654823298008683,-0.0555439067671207,-0.0856542409298851,-0.00560762787374805
0.0202475153749443,-0.102655417782218,-0.0916937565201145,-0.00735576803813233
0.0329180379642121,-0.13774640023081,-0.103646414957797,-0.00879686762814615
0.034452467879803,-0.146913972344847,-0.120019387251028,-0.00947518304624375
0.0488720342811223,-0.133606820574279,-0.128832177823625,-0.00878290070695527
0.0719638541526425,-0.137543821505774,-0.134952073152245,-0.00566949673260999
0.0852521349784949,-0.152718757108267,-0.140612167997875,4.80787353151681e-05
0.079594859245832,-0.12726461419417,-0.120365403859513,0.0054052853847145
0.0594983246503381,-0.0593536270973114,-0.0634368862709032,0.00675466474318839
0.059628642646113,0.0268067363043074,-0.0119213795287378,0.00398832419849886
0.0677577017922858,0.0895932565512224,-0.00256114673780175,-0.00014257885477462
0.0532461050983794,0.0997856256445596,-0.0150247540532834,-0.00146651802663504
0.0639725683881185,0.0766400393553077,-0.0172936502390383,0.00382016407663739
0.0908863349710397,0.0219915063075991,0.019498603938424,0.0130671658159358
0.023227390853452,-0.0503698129175035,0.112542457496973,0.0186837375018132
-0.122560918416162,-0.0883822213532386,0.1949893865302,0.0189644812847738
-0.200559206295454,-0.0792853037464497,0.18124534971452,0.0172041334266906
-0.160699059213318,-0.0426344086951759,0.100440115075253,0.012990403351694
-0.0827391339573412,0.0268215710079913,0.0311279527986409,0.00647657657162468
-0.0474448892784644,0.1141755690517,0.00289582452119017,0.00192197194743053
-0.0410966108010505,0.139268395476545,-0.00224785825388035,-0.00215301154910715
-0.0150540640199003,0.0836278593569286,-0.0217415857146413,-0.0105929632123896
0.026794631322397,0.0329922233427209,-0.0548913973256754,-0.0184907427777089
0.0599144477921936,0.0229812514846868,-0.0716493390132624,-0.0164135925149875
0.0756940825662422,0.0130231006817059,-0.0710108619728707,-0.00486896726252547
0.0734475604608901,-0.0160950757233683,-0.0669959361001305,0.00584985503459356
0.0613264260879061,-0.0422049297738262,-0.0608494323335785,0.00844393803275822
0.0498030810255404,-0.0528749105183577,-0.0491924511212302,0.00486507231298932
0.0310790977916478,-0.0607227014357287,-0.0258120551834066,7.41786016722128e-05
-0.00025796809236505,-0.0707383894435724,-7.50152911236753e-05,-0.00348934451660179
-0.0269831768600238,-0.0709017575245842,0.0136670755755361,-0.00576260045081438
-0.0361412028083126,-0.0533151116898826,0.0310952986327475,-0.00657598267129097
-0.0260865840322091,-0.0294099533924487,0.0603473515311976,-0.00398091590790758
-0.00241703045989408,-0.0116509283632046,0.081668519522136,0.00362808395878261
0.00878884141232133,0.00368695354928849,0.0889740578846153,0.0141762682179788
-0.0162816312985888,0.0191415512992582,0.0944178398293366,0.022110534122468
-0.0580491738690712,0.0387543476733372,0.101465765956971,0.0235899749165626
-0.0787233724868656,0.0652690881859492,0.104156538092681,0.020127221652907
-0.074751013590306,0.0832939739158552,0.0995614006517589,0.0151735258638056
-0.06651027985521,0.0887562449933579,0.0928099065407354,0.0108070213991229
-0.0597357139548049,0.0924144547748725,0.0877976078254035,0.00829538754344545
-0.044256744205517,0.0898804327061336,0.0784702777058687,0.0071782502760946
-0.0203337405785474,0.0765395247465782,0.0619114474718338,0.0042666814788652
-0.00171786469155259,0.061793929726513,0.0465546964387058,-0.00227778267237604
0.00297861463638256,0.0518682293581487,0.036840729048589,-0.00950450628743253
-0.00285240748753322,0.0459040381511239,0.0286772653120842,-0.0136396319716849
-0.0147090003757603,0.0392706271752768,0.0182491052684735,-0.0143013039181479
-0.0295936809372544,0.0276624150762831,0.00705316459487648,-0.013718501015301
-0.0402538817347791,0.0155345728147137,0.000732594348094955,-0.0133744604970456
-0.0396714272802754,0.0111762710050848,-0.00174917767424164,-0.0121899858279147
-0.0285255519259311,0.0114916716266894,-0.00506156243709299,-0.00916550147041645
-0.0147967589759663,0.0083426052701443,-0.00728284331412353,-0.00549998441824953
-0.00401288312539841,0.00255901708161417,-0.0081227229459306,-0.00310227728467807
0.00462702646306133,-0.00183426409157498,-0.00964403036853144,-0.00262666670395183
0.0100108053818917,-0.005088488089116,-0.0112025556028112,-0.00321729876015384
0.0105789778920186,-0.00816029904669061,-0.0121842209806373,-0.00389924238216059
0.00890372042057268,-0.0105023001817295,-0.0136224954551978,-0.00458468317947723
0.00792349541926432,-0.0124426357157731,-0.0156477506474256,-0.0051594690675529
0.00821064299551764,-0.0134307613451541,-0.0157205648544238,-0.00499152644202946
0.00773873602143381,-0.0131282667042543,-0.0140584442450121,-0.00396814399369412
0.00514934416056955,-0.013369800074767,-0.0152286685668292,-0.0026576866966555
0.0025353799203049,-0.0144407828477486,-0.020420671939694,-0.00186715782000639
0.00134459685069573,-0.0145810239157559,-0.0238047359144706,-0.00206659641738967
0.000182110629779459,-0.0142637087102114,-0.0227787776799691,-0.00268229092010105
-0.000834622828143337,-0.0150531418570683,-0.0219309803467182,-0.00277459667480968
-0.000586005573109002,-0.015795639183453,-0.0235616256073818,-0.00221645511854797
-0.000405953204721226,-0.0145151746468891,-0.0243342767474984,-0.00147337822920145
-0.00141584321632127,-0.0130262706743673,-0.0225531674337027,-0.000821013314900385
-0.00178122355489969,-0.0123658956515367,-0.0205007614915601,-0.000308712179861307
-0.00193667199799912,-0.0111670740746027,-0.0193255914007831,-7.87647032907462e-05
-0.000589475869570209,-0.00870047035649662,-0.0165655404403539,-0.000281795484211459
0.00285519941354998,-0.00588911838751425,-0.0122649434082823,-0.000864770349980488
0.00541331465624563,-0.00392238727440195,-0.00917898803031759,-0.0017007710044355
0.0064053702932746,-0.00245931103086445,-0.00686501600912124,-0.00247568979616562
0.00611416868346134,-0.00122079171665463,-0.00399145966934304,-0.0027866044949756
0.0051231338337453,-0.00101965862050244,-0.00294989334741697,-0.00275274822946293
0.00442501770963937,-0.00130238978778702,-0.00368806465811907,-0.00267090289321559
0.00322118784435405,-0.00159336690436894,-0.00310679030680073,-0.00239039283692855
0.00148364601982115,-0.00220342601663065,-0.00275383806265393,-0.00175820308617481
0.00133897086906867,-0.00159656796235588,-0.00380212245758935,-0.000884304181683857
0.00222169835715171,0.000557928144751156,-0.00391080742920187,0.000213155245635132
0.00196433165051049,0.000698314284621986,-0.00353990847371517,0.00139395525099642
-0.000277499110152592,-0.00300025521308824,-0.00554352260594361,0.00244632994385264
-0.00230471531933672,-0.00476214044402658,-0.00788507414677676,0.00346224196461812
-0.00295402347870219,-0.00300694762765172,-0.00739089093394487,0.00437275789530193
-0.00332663507422439,-0.0033355724019184,-0.00636898034811816,0.00499479591446244
-0.00382927734661153,-0.00495013325429426,-0.00659982508730183,0.00536733500534622
-0.00511062820542929,-0.00485051092489158,-0.0074119257866925,0.00571097071408945
-0.00542849677191224,-0.00442608155455715,-0.0082725636716592,0.00617895211677558
-0.00336306146511355,-0.00261402324064288,-0.00738802302024926,0.00654087373326129
-0.000418722757728987,0.000995283988449077,-0.00317595461073166,0.00653004942860809
0.0028987177033496,0.00251671045042669,0.00275143164636149,0.00615185019090626
0.00524855741678958,0.000853784796334914,0.00790184592698769,0.00558939624428989
0.00597615934829838,-0.000562164259106185,0.0135944708646765,0.0049572299080049
0.00520463928799419,0.00208194502160732,0.0196822728826274,0.00440218216746341
0.00231789204732388,0.0141749884122741,0.0213935969754023,0.00413476133713716
-0.000924255187809005,0.0377631311610318,0.0167986862849539,0.00399344210852666
-0.00120408348466691,0.0637130904107417,0.00863543091575823,0.00374669387430173
-0.000242564529580127,0.0781699313918904,-0.00533893245768896,0.00358830412832873
-0.00306869171438142,0.0783287524792906,-0.0291501298567491,0.00337021480348018
-0.00399951064777777,0.0735700505214588,-0.0600068107027025,0.0025763976936773
0.00691980959621918,0.0667228395764039,-0.0876539895116475,0.00148712881872142
0.0239270442264113,0.0513180741677562,-0.0989492956530167,0.000568359418337681
0.0390523167545226,0.0263793616610324,-0.0953755476959337,-0.000159606385484904
0.0543454838951305,-0.00787740218268917,-0.0958301356998649,-0.000556655751449692
0.0715509645121905,-0.0577170490494866,-0.104689965652886,-0.000197262400671718
0.0871710296522841,-0.120660419608618,-0.103944658699723,0.000843112641037298
0.0917857703987644,-0.186845144659367,-0.0737771256068379,0.00171337944166166
0.0655685678226141,-0.24403516365497,-0.0220726860562889,0.00243829747325667
-0.00123023029280159,-0.265097658941351,0.020182538515934,0.00375385710513505
-0.0978684469265544,-0.213239136569297,0.0561952809519349,0.00615408925923925
-0.199942228997861,-0.0927709502194649,0.0923174883500319,0.00911527618553978
-0.246641090730808,0.0152770114470572,0.102840826380399,0.0101803355250607
-0.181182138059262,0.0313064430820421,0.0812829388241846,0.00788027905060232
-0.0448456896568562,-0.0268883774384015,0.0556264775271926,0.00363886604692905
0.0253067685184164,-0.0548069578536363,0.0479616386368937,0.000345526729700807
-0.0257658955996993,0.00613795103272077,0.0486039333409872,0.000189625554249171
-0.0838352009110416,0.0917290382144013,0.042946666138201,0.00206582264015401
-0.0537861759787121,0.146055820606239,0.0343632286840396,0.00286458643063494
0.0184046215608348,0.188989453951121,0.0312910264310215,0.00114662941238847
0.0766371496372196,0.215368783307083,0.0283221314999967,-0.00235707516178895
0.122449059969415,0.163824271890912,0.0112631501389247,-0.00674855678217651
0.130111896975406,0.0236872639922767,-0.0100276710242384,-0.0117047109776528
0.0789793466891326,-0.111248101661098,-0.0105512628852323,-0.0158758376530337
0.0205601146270314,-0.170138853002597,-0.000713894010829774,-0.0162801901483315
0.00733044114394378,-0.175267457524582,-0.00737429896980564,-0.0116185635865581
0.0278241348855134,-0.161250295820887,-0.0238035339341191,-0.00392246588707561
0.0345388431523552,-0.145594423452952,-0.027244052877296,0.00376694177562441
0.0018579501185667,-0.131925170792692,-0.0122465004600654,0.0086515856960747
-0.039192214239096,-0.105749100589092,0.00755088364822193,0.00972717670514674
-0.0443958067787447,-0.0630936635810553,0.0225823845451027,0.00795346916036916
-0.00241267803027788,-0.0137825871139389,0.0389293932434493,0.00441534402906611
0.0621966917352373,0.0352277460501443,0.0594534973267603,0.00102837475722385
0.0885564746559338,0.0714329295127774,0.0771610881456716,7.6070925319812e-05
0.0322395212652025,0.0692731650672974,0.0808772164741177,0.00123165287078325
-0.0699736815218622,0.0349569146630038,0.0710311676673363,0.00196673262557571
-0.133480343348313,0.0105056816730011,0.063823714403756,0.000964432173801712
-0.12066711807739,0.00700988556882723,0.0630299616917093,-0.000762469391842777
-0.0644231948957828,0.00695331215597479,0.0577952931480562,-0.0019308729028675
-0.0102322451866422,0.00490925032078923,0.0460153499034212,-0.00298415252589237
0.0228198145326852,0.00786082651425149,0.0349309661456245,-0.00511074364841674
0.0356039505696084,0.0218309422613748,0.0299045332515802,-0.00765452066388645
0.0381719308709766,0.0402665072074939,0.0302727883641266,-0.00862344445978783
0.0455050967426939,0.04637403158554,0.0291437072204366,-0.0076314215649848
0.0564462145384181,0.036623423890177,0.0205386571161207,-0.00633322212073206
0.0556740600556997,0.0271915361798263,0.00822550963101793,-0.00613818644182379
0.0445317652866016,0.0283078105841812,-0.00171316871101689,-0.00681437411191808
0.0372228578086648,0.034631761111989,-0.00872812706305611,-0.00734046617887926
0.0384302473378356,0.0379156396709808,-0.014340092427742,-0.00710508331037321
0.0407946946564422,0.0363809064136747,-0.0202684336966655,-0.00606848184210269
0.039167650515381,0.0360257750043027,-0.0252245721701594,-0.00472921785607594
0.036125897527498,0.0384595039345762,-0.027721979349456,-0.00374691047662611
0.0342418093953978,0.039659688301427,-0.0305076071645159,-0.00332887087818117
0.0318696187443858,0.0393342667168102,-0.0347894123054725,-0.00343603985692281
0.0283893959375664,0.0381022870262287,-0.0378517557313839,-0.00384386834037702
0.0254945419755051,0.0349099135122471,-0.0401558541635259,-0.0040707598526108
0.0220066466817555,0.0312875987547503,-0.0432211254694093,-0.00399304625504137
0.016065151597791,0.0288732766056335,-0.0457218363247575,-0.00396804679684163
0.00868397193608424,0.0269844600489162,-0.0475967447751132,-0.00391817012803481
0.0029736848297158,0.0246648016313832,-0.0489251501636441,-0.00345356367745077
0.00180162012229859,0.0209797430921289,-0.0496090587610507,-0.00264129289889372
0.00165214649490656,0.0158743757871516,-0.0516100935937085,-0.00192046232831184
-0.00252234169608748,0.0106364612646987,-0.0547245176226895,-0.00175264288090358
-0.00827258294383494,0.00752007271858898,-0.0561566756069323,-0.00204573232331607
-0.0111550262593597,0.00545990323674655,-0.0562927664604589,-0.00221439982260994
-0.0116571508296116,0.00269856299936857,-0.0561775731901922,-0.00193588628368284
-0.0138116752459343,0.0010561299992956,-0.0545175248834304,-0.00135894113822906
-0.0180592129541552,-0.00124823295977343,-0.0523424167425351,-0.00066379010473337
-0.0201342028650299,-0.00520255257310479,-0.0513080137880676,6.93003408929315e-05
-0.0186272603386453,-0.00623238626832801,-0.0478539427247409,0.000700100837260835
-0.0166063289175916,-0.0039749755898929,-0.0415060870327525,0.00109897349779408
-0.0151922157223897,-0.00168197115059193,-0.0376407865706361,0.00116952339148292
-0.0134309368529715,-0.000895286328403603,-0.0392456637870337,0.00107791739903278
-0.0114943309602826,-0.00318270573425606,-0.0460957335860102,0.000958161611222207
-0.00892934664987781,-0.00684640452040911,-0.0507233072120239,0.000794171690102206
-0.00533567434119866,-0.00804205952757754,-0.0430407156563751,0.000979126696709879
-0.00316506758978764,-0.00851087927260879,-0.0266454982228971,0.0018588380194673
-0.00460670710348475,-0.00996453767449191,-0.012744752728373,0.00307484480554795
-0.00787165598150048,-0.0117554104655418,-0.00433030721228958,0.00399580432039807
-0.00962635389872679,-0.0159250064735897,-0.000881526244870631,0.00437076765683568
-0.00926546352669011,-0.0264229458071338,-0.00153454455712952,0.00429485370382746
-0.00865132876491541,-0.0408653620093824,-0.00196002238913622,0.00396477847086431
-0.00880008993081999,-0.0473119827702171,0.00130628542693524,0.00340971686030779
-0.00957698298436413,-0.0383741122594948,0.0108602984388377,0.00279588832165609
-0.0153876322930155,-0.0234827552822089,0.0242200321456701,0.00310218133541801
-0.0283580928996335,-0.0148968313584684,0.0359362041092839,0.00487216454367032
-0.0413869905323587,-0.00741787089432737,0.0428637974615878,0.00718462167908917
-0.0436064736091581,0.00737730776078251,0.0406151353254823,0.00989519868004549
-0.0347368175912058,0.0176871477077429,0.0273602780822071,0.0134549215426858
-0.0244454022329045,0.00974143444516359,0.00900049814834548,0.0151922338747976
-0.0137148263286898,-0.00687537188187549,-0.00334348130302267,0.0118911835299918
-0.00860655028863291,-0.0157736018422389,-0.0038797037061433,0.0059107263490834
-0.0237982434807024,-0.00192702902000279,0.00222230167407887,0.00242009396869805
-0.0551943532130493,0.0239109816564584,0.00463105402566776,0.00214686422556291
-0.0643771654741583,0.0180211002538936,0.000927276599365073,0.00168819284047723
-0.029877894440382,-0.0186630653008376,-0.00111340233962373,-0.000534505426215781
0.0134159552314639,-0.0455238493729114,-0.000100748338361354,-0.00285972301006626
0.0369347782963503,-0.0532822937055265,-0.004608212572812,-0.00428677252626163
0.0502092466882877,-0.0527089632165584,-0.0154330931714577,-0.00523635494935747
0.0699175983564398,-0.0448870138470733,-0.0258445142690419,-0.00476894242237909
0.0889298478313611,-0.032916862862968,-0.0345391145762596,-0.00155958762067491
0.082164877493342,-0.0379593539662339,-0.0429581554517764,0.00232726462539374
0.0313835229519717,-0.065133582010155,-0.0447022589711235,0.00271015211254138
-0.0473944119586829,-0.0727204273654292,-0.0173708949213631,-0.000714732526571505
-0.0881871998746847,-0.0445846580407675,0.0378220672631921,-0.00284588280634125
-0.052628425182059,-0.0116792835558132,0.0735690318063341,0.000440006967841942
-0.0139051528104926,0.0336633236339741,0.0653894627946384,0.00740022134602926
-0.0598949162325874,0.102378334976547,0.0338764355010031,0.0130041888040578
-0.138342164770006,0.135380648292116,-0.000758501394909527,0.0133098583450961
-0.139354977191851,0.0879092474826573,-0.0250927352331605,0.00820981300122061
-0.0599569243736949,0.000100550753367318,-0.0295141593789331,0.00103008090221506
0.0254985747334609,-0.0557413507346913,-0.0119833434172431,-0.00493762872034312
0.0685066135997629,-0.0323092783514562,0.0267177237981101,-0.00820854765197103
0.0730571593854686,0.0411245909364583,0.0650167717207009,-0.00864206912037195
0.0568368854014469,0.0702753451542666,0.0770028262244037,-0.0074018963858587
0.0268973139839791,0.0195992465228785,0.0764360877120496,-0.00651279277270819
-0.00944233147408306,-0.0374436969827558,0.0723261900280367,-0.00695595101415513
-0.0575060836444056,-0.0328132296507751,0.0443508356473296,-0.00789294004065443
-0.108888719124804,0.00467769798392069,0.00186721050155475,-0.00841830160660732
-0.117219466205596,0.0165059199604151,-0.0302497852525596,-0.00822774227508146
-0.0703703144031207,0.000999022001699719,-0.0487933209527558,-0.0071879641468225
-0.0162297395232626,-0.0107966054806528,-0.0551825905205649,-0.00568563249072956
0.00757492434620916,-0.00861704205516392,-0.051270378717182,-0.0038569888353486
0.00626923043692745,-0.00295216404447612,-0.0439900536693666,-0.00147960054845723
-0.00206731379506608,-0.000472183479536507,-0.0388189699006921,0.000705341854242144
-0.00647934012882028,0.00103608720244792,-0.0337610975288286,0.00162078787681303
-0.00670403419155404,0.00528865893654813,-0.0253977408628984,0.00127436967095798
-0.0101709145123274,0.0152158317313811,-0.0146971645578477,0.00016784757209982
-0.0194227913576079,0.027555476243265,-0.00577710055564176,-0.00135157630566653
-0.0304370003928053,0.0374427965661389,0.000425279255393363,-0.00283576407293152
-0.0355075078767393,0.0447250917490997,0.0102193456362903,-0.00357643401497115
-0.0333175749381998,0.0443758239769641,0.0221749760847998,-0.00285316395787601
-0.0308528632728224,0.0361764639845534,0.0292614660260257,-0.000620446761220245
-0.0283361004029152,0.0286896789241706,0.0317412800468151,0.00223315061537687
-0.0231875648991943,0.0232998637626019,0.0313843811073549,0.00408065813906864
-0.0211152262824209,0.0191569805900236,0.0280030092282005,0.0037305785595857
-0.028102817753654,0.0184098961509651,0.023332579828498,0.00165923693413667
-0.0363308096545444,0.0206411502789399,0.0221510164949939,-0.00053317072398803
-0.0372148372844384,0.0197602715913663,0.0229550413754452,-0.00127754118281284
-0.0330573924605432,0.0131190818591671,0.020966795237627,-0.000136787861987241
-0.0269991204997688,0.00580950418630761,0.0176542028914425,0.00164728851205583
-0.023097099691955,-0.000397248458767563,0.0131255443308558,0.00244698788112293
-0.0239646403244006,-0.00488862430027837,0.00390478772573436,0.00200113211890119
-0.0232621686749622,-0.00380283862405701,-0.00600984922915119,0.00134315781585099
-0.0170756383821571,-2.16666327449025e-05,-0.0104859179622958,0.00139243196801183
-0.00984698989346925,-0.00169759924598279,-0.0113679055612493,0.00204252492393318
-0.002180392539012,-0.00679147758436289,-0.0116916290530129,0.00261840488217907
0.0061785704444762,-0.00884061372874326,-0.0132251265730954,0.00303413986035265
0.0091896542855977,-0.00930537212748853,-0.0154749572274796,0.00356549234198011
0.00646135503662931,-0.0077701324740603,-0.0149704052129958,0.00403409309074401
0.00310168648847691,-0.00410876775629364,-0.0128497891594803,0.0040692384719904
0.00109987194859076,-0.00259038830349253,-0.0107542225359079,0.00367951800448683
0.00100867151229033,-0.00205259465464,-0.00746987931402724,0.00348521984054345
0.00227420757650026,5.97802536397452e-05,-0.00587174460418158,0.00378537651148826
0.00420884831758601,0.00180056382178157,-0.0085409421190475,0.00374022101153477
0.00772714389851751,-0.000763566414241692,-0.0123587612594917,0.00260526869754124
0.0101149455746601,-0.0100390496140702,-0.0128010424202827,0.00109483218863243
0.00862208376423219,-0.0209126476490726,-0.0101981053642101,0.000713048305532811
0.00976619230685612,-0.0236284018681968,-0.00835358186252906,0.00215462827541297
0.0155550613261504,-0.0169562783685777,-0.00931867904613062,0.00411984372239141
0.0157516354894681,-0.00870472152218475,-0.0117273473061213,0.00422959375213366
0.00603083194270719,-0.00288674247902963,-0.0115904595988187,0.00205806875294849
-0.00244809071276366,0.00188863424572224,-0.00807306139536807,-0.000554747434569277
-0.000611855839703418,0.00318649808968241,-0.0048177216045088,-0.00201390437062423
0.00475097081783924,0.002288261353471,-0.00286766222465789,-0.00153493372381801
0.00456789290070645,0.0105706022909836,-0.00323515451492895,0.00111094016311384
0.00678152299083216,0.0245026812377761,-0.0140618969197557,0.0044860524543051
0.0214884638166329,0.0238093026815871,-0.0327656514109654,0.00591316184364917
0.0401212584691197,0.0023673106550793,-0.0389897730704713,0.00369637480930156
0.046941527117954,-0.0275973343298311,-0.0301152599809532,-0.000691297280995085
0.0365499939175071,-0.0461377642532167,-0.0208153792624339,-0.00258615505969171
0.0189991485810564,-0.0426336399804048,-0.0227579292572503,0.000497119220493713
0.00454702690250401,-0.0237699367738827,-0.0373506803143083,0.00380279492953771
-0.00497433960146474,-0.0065200713702258,-0.044291424383058,0.000981585732340297
-0.0112946395571116,-0.00793532946285386,-0.0306302357237766,-0.00544323774177562
-0.0179635691061416,-0.0172797782259579,-0.0112453918649899,-0.00738239606466597
-0.0115305079872053,-0.00563860255920725,-0.00359177451964196,-0.00395074225811771
0.0147116340575425,0.0320703838395428,-0.00768737408233892,-0.000122975463477455
0.0245101635218212,0.0618370763326071,-0.0163972966726711,0.00267764956842471
0.00909534572436418,0.0290418986691602,-0.0308334880095039,0.00499202996895266
0.00871571346653929,-0.0549610589335082,-0.0412755505363132,0.00550469590679691
0.0356395408970079,-0.10889343630847,-0.0299960076902296,0.00357070007065078
0.0538871741257468,-0.104078013021659,-0.00891435786868867,-0.000300886501952107
0.0343455786329757,-0.074071323280102,-0.00372888370531346,-0.00683092309149337
-0.00362428846064444,-0.0395392187703636,-0.0123139136565094,-0.0155002374733805
-0.0323878182921669,0.00175762806053399,-0.0192455655697046,-0.0216013601770234
-0.032126813480714,0.044811537291214,-0.0392224879430649,-0.0200352817408672
0.000287726882817276,0.0645657026865047,-0.0900718693775142,-0.0116547203890582
0.0193392945308044,0.0575532949784192,-0.13395793973204,-0.00344937627719943
0.0117663137295446,0.0559323024378396,-0.125539441473012,-0.000359358455167543
0.0180441352103267,0.0559808840558787,-0.0841538212537692,-0.000561411231869348
0.0301145670889129,0.0481838823275401,-0.0222224356508987,0.000455379839690918
0.0162042051086706,0.0581241321827949,0.077071646198573,0.00594206891527499
-0.0101088997831972,0.0741194145288226,0.155346071139512,0.01548502632435
-0.00466801189788366,0.0613948431201713,0.137252532592044,0.0235972559320504
0.0372726127519832,0.0147321024839408,0.0473785116690283,0.0239710216151114
0.0643394893859238,-0.0497299096881021,-0.0273942770223389,0.0153739028009524
0.0639300941454621,-0.0947926427344135,-0.034642811596438,0.0026658032715687
0.0614576111321738,-0.0844001988213539,-0.00272069027310733,-0.00736073111369125
0.0634942312647627,-0.0402522410704594,0.0189299027698486,-0.0123034298320686
0.0665921968501496,-0.0155422925706152,0.0259725153882084,-0.0149409494461199
0.060468468289692,-0.0242543739355774,0.0261299360378416,-0.0177288661942724
0.0420899403604611,-0.0480056637212057,0.0153528291294304,-0.0197105136592108
0.019028155626911,-0.0717153329046718,0.00568417999764913,-0.0181992279147628
-0.0142340753949228,-0.0833987134028025,0.010067223373635,-0.0122216037314274
-0.0689679824973764,-0.0664400541175535,0.0203496180229649,-0.00449083667748053
-0.140220967355187,-0.0159404807276722,0.028769915593571,0.00197507666255045
-0.183723050199408,0.0397662371311563,0.0354447544296359,0.00709218890146514
-0.144591468365725,0.0561824986902672,0.0407137402810409,0.0113603118853619
-0.0369322738428282,0.034026368593128,0.0479089801955259,0.0139057565199282
0.0680694904243998,0.0173412020446238,0.0602586564389954,0.0135985071507849
0.118686628545131,0.0251353992605359,0.0734582056052272,0.0114571061794627
0.118275328921276,0.0489222479757732,0.0823790777341412,0.0105403297754032
0.0994274941163351,0.0688567550431461,0.086020309154239,0.0108491955530168
0.078355858448714,0.0603288038373273,0.0858862272399424,0.00798375323681978
0.0592597632248892,0.0298401302427214,0.0877653602667861,-0.000391574349537308
0.0440474519973731,0.00710306430421766,0.0911651726813042,-0.0108886354621965
0.0282186905596407,-0.000411298364970496,0.0896434961819611,-0.0176541800029703
0.0150221516392949,-0.00737764764670622,0.0843916893328735,-0.0171670671521819
0.00821889561498323,-0.0166769822493373,0.079725756375914,-0.0110613423755486
0.00524222399211785,-0.0238310133564304,0.0758053467252101,-0.00450101923410751
0.00444376903620101,-0.0317733905079805,0.0732354290060049,-0.00133125716422985
0.00168882943190524,-0.0394383940122324,0.0707120502188938,-0.00113461063231205
-0.00298744758043807,-0.0340305587049005,0.063443664535527,-0.00107841295645793
-0.00583810087094448,-0.0136490470020749,0.0547831712344281,0.000593029757887763
-0.00453769119082857,0.000807973281395209,0.0520853127972775,0.00377902433971458
-0.0015924893774923,0.008268229427935,0.0555348895994458,0.00777103581477574
-0.00447556359334354,0.0242800420909608,0.062202360048094,0.0117680149177399
-0.00818094517188507,0.0337116764468616,0.0687960999781615,0.0140785169399882
-0.00573996981048936,0.0157452788936585,0.0714164476457932,0.0128541943588856
-0.00624121585874295,-0.0140145423198022,0.0661047868393405,0.00797295689074283
-0.0285791152943703,-0.0278854475007028,0.0557892833231494,0.000969719989081063
-0.0724415925571109,-0.0293368497622659,0.0496222753376138,-0.00598131321368833
-0.0891898169895039,-0.0364105066133257,0.0525391306511423,-0.0111245035951812
-0.0470909775072005,-0.0412890336820582,0.0555410936508279,-0.0139981936714469
0.00578454236255256,-0.0224203555234027,0.0448004315938508,-0.0149736490077106
0.0194206435157606,0.0338277028663207,0.0285261316667163,-0.0142101438200079
0.00825306879124361,0.11973069042177,0.0228637343170219,-0.0115594456241249
0.0035657918877852,0.181536997342902,0.0233710185724573,-0.00733710672609094
0.0081278406601348,0.159173326657658,0.0108793542621545,-0.0028328304796861
0.00729025032754065,0.0730582156347662,-0.0166221352000229,0.000310691249456875
-0.00155710903962172,-0.00335822248865608,-0.0384892704274633,0.00165569096138104
-0.00658178079928173,-0.0417904863658182,-0.0419928476831139,0.00226426173529131
0.00660201255585653,-0.0578741071986344,-0.0308165049263936,0.00287619231608935
0.0383359304428258,-0.062286948875368,-0.0191787949790567,0.00329865240224427
0.0589009733061231,-0.0554889344950651,-0.019167778359115,0.00307372815912814
0.0512490962280228,-0.0438460375577274,-0.029632643511899,0.00179831584625294
0.0373100643008844,-0.0365127010336801,-0.038865499944025,-0.000237647025686026
0.0356461457227264,-0.0363812994706957,-0.0346623808223555,-0.00205317024547823
0.0423148473641571,-0.0386827302257236,-0.0244260122306746,-0.00269763039224035
0.0429539377028666,-0.026767578211651,-0.0221135937130057,-0.00216876258792791
0.0129003008766342,0.00139828149392081,-0.0208171700829029,-0.00139584450039447
-0.05147242086287,0.0252275530900418,-0.0136422504308734,-0.000857684195364432
-0.0991389436474532,0.0326363901909218,-0.0117616232103252,-0.000302523412296493
-0.0894965886467998,0.0299586866743623,-0.019577480663481,0.000429142673264516
-0.052291774304769,0.0267114499997934,-0.0273432026633523,0.00127695814873756
-0.028124271206089,0.0187331115725705,-0.0303180897266594,0.00187175390146775
-0.0195270978267668,0.00595243326208292,-0.0318774223325062,0.00169344476226983
-0.0153400430794935,-0.000592168092350256,-0.033957689940638,0.000690965507114739
-0.0127172390086884,-0.00131185485722213,-0.0361239135253044,-0.000897613559721157
-0.00792115336964222,-0.00110122724282891,-0.0376991482222291,-0.00253402720378122
0.0090331616770741,0.00111910346339766,-0.0381715548558384,-0.00325080372234694
0.0295395175178316,0.00710821792117015,-0.0400674883659809,-0.002553562012553
0.0364329663276132,0.0113821484931411,-0.0428098417518914,-0.000617663174569309
0.0317351755215334,0.00463445607696701,-0.0442115086692642,0.00205174708218871
0.0272710304571016,-0.00707707119035209,-0.0442537953602397,0.00448111061273578
0.0281612655329677,-0.013889107372562,-0.0423443406873644,0.00609116225790392
0.025628206552849,-0.0172892137218877,-0.0398373738594222,0.00707659655148026
0.0148035497228084,-0.0146461650271423,-0.0355211338336507,0.00732227494773033
0.00763642307278524,-0.00772169578365418,-0.0293898909758114,0.0066216507273709
0.00709908657986264,-0.00893038055588396,-0.0254500896073109,0.00534468386238364
0.000192819132278397,-0.0144390027463125,-0.0212905025250547,0.00398210713216603
-0.00937801114457739,-0.0136144149207401,-0.0141192131609933,0.0030921339725768
-0.00432168821371541,-0.00857791209715385,-0.00651800152783534,0.00334929759776946
0.00800607886588482,-0.00289587996581336,-0.000100834171180991,0.00479338712487143
0.00960377853426265,-0.00119608726340963,0.00653869562040495,0.00594335193117047
0.00578141767823312,-0.00293371035484135,0.0109004999692373,0.00508074620570855
0.0090212568827653,0.000416260791719521,0.00897652276649485,0.002674479786434
0.0133923125635368,0.00749636804164721,0.00463214880623474,0.000510401139059863
0.0106097723115434,0.0110312258256296,0.00216554585329597,-0.000663260282386833
0.00674978916017852,0.0109238788827617,-0.000756998620480811,-0.00128946275267738
0.00820109607421027,0.0102938254807114,-0.00423212562082687,-0.00178131661956411
0.0106025453234585,0.0110554688827261,-0.00340528533164911,-0.00197647172551375
0.00721958471373294,0.013194858225228,-0.000707984951014612,-0.00165167681111182
0.00131544511944612,0.0151018226855018,-0.000417738986466915,-0.00095324156297837
0.00114184974242943,0.0185070313967495,-0.00253020029822657,0.00031226821127027
0.00507607007901673,0.026455135884783,-0.00878425925128349,0.00253226684971585
0.00875321515444793,0.0357323280982757,-0.0158359321076921,0.00475369630363363
0.0112204932234592,0.0351340992387051,-0.0154450546693158,0.0056613870022498
0.00999295317046136,0.0144541187371768,-0.00658084638749249,0.00529120045606887
0.00828054762465664,-0.0121856543092991,0.0101803778272919,0.0043464910501554
0.00413022869376081,-0.0223876470927343,0.0278369029542623,0.00314345717198756
-0.00492335669927392,-0.0227334626314462,0.0300222940801155,0.00158588816453727
-0.00688183664487956,-0.0236305341706812,0.0173848227879754,-0.000361601070068196
0.00403156870195921,-0.0198592093091895,0.000350635963141676,-0.00250662922304951
0.0165892519915827,-0.0161395150321027,-0.01893935541697,-0.00437434099359972
0.0230557777913385,-0.0240219559382792,-0.0379815856853072,-0.00553204184640832
0.0485346550059453,-0.0463918173958136,-0.0546965895687673,-0.0061721463569476
0.110116394034306,-0.07097547652773,-0.0705006163054558,-0.00654955037646496
0.163259080557158,-0.0641256274140757,-0.0773003670856164,-0.00670384464582172
0.165133145173503,-0.0146060400435266,-0.059666726406932,-0.00657181602056295
0.122496909859649,0.0307170570573074,-0.0239784356048139,-0.00563894415296967
0.0621375035036473,0.0279580482072496,0.00806408317981504,-0.00349137316455287
0.0143679126950889,0.00419627674469493,0.0239813205326642,-2.35126302887802e-05
-0.00608345275327521,-0.00129560026656455,0.0133665275354388,0.00379700133903104
-0.0191267782897128,-0.0129865953406428,-0.0144497269718607,0.00524844529233219
-0.0450956074258874,-0.0469636623782023,-0.0244990023936636,0.00282975033429714
-0.0593393411838002,-0.07358141680812,-0.0130273174770812,-0.00117481206678667
-0.0473368464351491,-0.0636859238291731,-0.00514233197993473,-0.00326985345208645
-0.0415136757399879,-0.00536506196131985,-0.00587287344689202,-0.00238603512196886
-0.0469277913591961,0.0760936736222195,-0.00863966904244227,-4.78445103446471e-05
-0.0329200456602382,0.128788454152028,-0.0070599132841347,0.00138973525266392
0.00373110608789988,0.126267724316782,-0.00126323682852858,0.000951414813673935
0.0325725594127238,0.095268845333296,-0.00422139129629874,-0.000429870991617206
0.0402006617767084,0.0530155933088122,-0.0204084719165061,-0.00190000079790504
0.0403080356661802,-0.0126729037590997,-0.0365222408766349,-0.00354331359624589
0.0498615552816017,-0.0775701127128025,-0.0373537078740696,-0.00545156017319041
0.0581093369010205,-0.0936502996063341,-0.0195200166454624,-0.00675450407403049
0.0291522611626746,-0.055998666525492,0.00568138763088344,-0.00648684688472579
-0.0163642316887603,-0.00642889360931961,0.0227174403633817,-0.00532644892104105
-0.0289490996024487,0.0174536317537784,0.0217575174588582,-0.00421266451294197
-0.0182778938331664,0.0150171177803176,0.00357524599878491,-0.00301865643496099
-0.00777166637938513,0.00531440353828937,-0.0156351363923185,-0.00165308427792816
0.0124476904131862,-0.00747575434681967,-0.0201759725862993,5.49783874175891e-05
0.0377423198600401,-0.0218574220081927,-0.014212210110145,0.00258485372151871
0.0380571494475472,-0.0245426296563128,-0.011339002843328,0.00567216338001041
0.0138398247548654,-0.0145763486934435,-0.0136585061715764,0.00798301182250762
-0.00923105500618253,-0.0040854262720426,-0.0116093824304802,0.00828507458558335
-0.0213399129518117,0.00364539211161531,0.00126850886304068,0.0066550079432538
-0.0285491850365843,0.0142073368829776,0.0193157018501496,0.0042500260465727
-0.0322820259693469,0.0350082460102924,0.0304648278672537,0.00217349435685565
-0.0274100689155695,0.0618561938776221,0.0298700528865071,0.000577863687429498
-0.0228704107356887,0.080801105824443,0.0234892670199912,-0.00134436414450559
-0.0287075647190803,0.0854750140808183,0.0196036369097933,-0.00381635153701101
-0.0366239314566651,0.0759312121578921,0.0199590580646665,-0.00564336301180344
-0.0360893652899098,0.0619779888327708,0.0218216167712443,-0.00534207106324197
-0.0277912432791593,0.0513254707079733,0.0236233551399086,-0.0025768186624105
-0.0212489889425215,0.0392962117967146,0.0255141990242971,0.00112346644741947
-0.0242794388644986,0.0269616858602007,0.0279141574970131,0.00382269588755189
-0.0340113580259137,0.0191372972256133,0.0303597828618549,0.00471946323354475
-0.0395696669450342,0.0139458104440924,0.033983551433115,0.00409144492318724
-0.037147492378572,0.00870116470266172,0.0370143146137183,0.00269585694755454
-0.0342576490734099,0.00148889677810407,0.0345323597671842,0.00108737282482961
-0.0390037338943915,-0.00682615245710036,0.0270956101861939,-0.000527270238569269
-0.0417365432840425,-0.0121636327714094,0.0200276255030528,-0.00188534040754005
-0.0214011595352375,-0.0124766081707353,0.0158910204156768,-0.00248394424126557
0.00862013414732646,-0.00371270885232378,0.0128516962923705,-0.00192493509180209
0.0174184637726164,0.00952778485571513,0.0081227833857308,0.000399093758513044
0.0160810447251344,0.0124387970279794,0.000700906462267443,0.00524427641667185
0.0331465679706035,0.00382587419312961,-0.00545921352526546,0.0111503614264355
0.050808161209356,-0.0055608410633504,-0.00558223217565005,0.012934831618952
0.0355368050399481,-0.0112130631995384,0.00396678454600323,0.00665216179787789
0.00410891650513322,-0.00985596611088556,0.0229293049906071,-0.00332705157721038
-0.0190492609522445,0.00673226267337847,0.0365820436637778,-0.00859092572799001
-0.031958678764892,0.024987096242269,0.0287567862595749,-0.00764423608730988
-0.0284554506383538,0.00816419767750762,0.00467216915595035,-0.0054153520663776
-0.016627347782366,-0.0386183893873718,-0.0124241274699911,-0.00483733275151604
-0.013203835750799,-0.0702465303858693,-0.0111354389410926,-0.00508492436583742
-0.0225528894435305,-0.0751565926271531,-0.00550291854565512,-0.00550440313580285
-0.0416529761937049,-0.0625643764922889,-0.00540659315984574,-0.00643738483715286
-0.0563395609190895,-0.03568201191965,-0.00651651881823931,-0.00709628830775159
-0.0446529792329633,-0.0109207225225429,-0.00740484946076799,-0.00585230167759202
-0.00383316845329189,-0.00487797333454251,-0.0078781917230187,-0.00210426302113026
0.0437425345038837,-0.0131110441188564,-0.00616198227707382,0.00333946223944202
0.0692301703419069,-0.00984743970076375,-0.00444941235924517,0.0083074475771467
0.0532222732243915,0.0327440972620977,-0.000982280670276007,0.0100036630261606
0.0106181167731172,0.0957628092997043,0.00782754313415114,0.00785118852054078
-0.0214818939093759,0.108597922967397,0.0153595994529741,0.00417812070485883
-0.022613078940959,0.0433650834037854,0.0142803854747272,0.00136768951296634
0.00059422281699313,-0.031507255914526,0.00909005820831675,0.000181165911573885
0.023997349620062,-0.0497230124454927,0.00813305679078079,-0.000145402728343217
0.0266905094916963,-0.0262805531738069,0.00916503348374116,-0.00111467292853237
0.00923846648715716,-0.00621098022439968,0.00557771018098454,-0.00300919877105303
-0.00952176081002434,-0.00491646785349678,-0.00444218677470881,-0.00461058836217752
-0.0170756075984801,-0.00972395198369214,-0.0160383682544555,-0.00515890041086046
-0.0177687588929373,-0.00892501286176034,-0.0197640452237346,-0.00501641282138999
-0.0200821865733143,-0.00525743247616277,-0.0144560868624377,-0.00469444533936252
-0.0226228376328588,-0.00638583772938339,-0.00921286906744556,-0.00445272422426388
-0.0113827510428495,-0.0144426391110199,-0.0109816735856783,-0.00480168271469005
0.0155612510258318,-0.0240705435519585,-0.0198132810362753,-0.00586850735413695
0.0335873387633382,-0.0272186873207807,-0.0279947687614997,-0.00656232188122813
0.0296950636880356,-0.0232757097262949,-0.0254274599874985,-0.00537109555196356
0.0172740652437636,-0.0190225576969734,-0.0155429192208337,-0.00214313136436114
-0.000582276493529425,-0.0137528291783745,-0.00635698666209399,0.00150677863730549
-0.020645450292788,-0.00529126991227316,-4.78952170736881e-05,0.00385648053614683
-0.0225880768353514,-0.000683949525391112,0.000927630137445021,0.0042734430528927
-0.00817172412710019,0.000343624966781621,-0.0018734680250846,0.00345527942084087
0.000428459558625034,0.00170503783909351,-0.00816612842994628,0.00242810378109094
0.00309330982235343,0.00137157924555308,-0.0167660268119957,0.00151188984127165
0.00675212972662995,0.00318672790610769,-0.0193862691336037,0.00114125938662846
0.00348762689419186,0.009970325692061,-0.0172455477551888,0.00168513843603981
-0.00530362527513077,0.0155192979567281,-0.0186922866815375,0.00202565072805739
-0.00986109744029116,0.0164754338262008,-0.0251940056853011,0.000817913086212726
-0.013501033441564,0.0133430734516244,-0.032774210892383,-0.00150421822923327
-0.0221918996686506,0.00863467412854436,-0.0361907899497408,-0.00336346566721478
-0.0297646581014853,0.00725071068319924,-0.0381210912248132,-0.00396423255029814
-0.0242948912024404,0.00906501320650324,-0.0411357948735502,-0.00343420003736482
-0.00315926950500484,0.00897781551253186,-0.0421508483155181,-0.00171542393317118
0.0229697352867919,0.00583693623037383,-0.0422181681935145,0.000718025010283419
0.045862878471755,0.00339388951438688,-0.0403142713048867,0.00287120220553035
0.0671233280866159,0.00276581620262992,-0.0366678189709588,0.00442043603157114
0.0748988736466615,0.00513147157031672,-0.0354614351673374,0.00528902422945938
0.0525525581654579,0.0177127325136554,-0.030295497987184,0.00500572528533222
0.0114159337489799,0.0446873317958938,-0.018804857036178,0.00355919661835529
-0.0215123163307792,0.0720965212194704,-0.0156816899364885,0.00199482183978204
-0.0280543710851026,0.0721134304053621,-0.0263154602627921,0.00103389602417363
-0.0161163329183534,0.0321400190763148,-0.037877087192108,0.00059899052622261
0.00343144100895246,-0.0291248860879582,-0.0456769497569076,0.00064497573896987
0.0339750403446064,-0.0890466876081011,-0.0552799993377039,0.00181979286512067
0.0542624234774795,-0.151082782007887,-0.0613160215898568,0.00531396765097335
0.0390045787165754,-0.211052969089933,-0.0636200174848607,0.00954485759908321
0.0149998480450598,-0.247476029011885,-0.0708582831417991,0.00980874060191006
0.0183615946523075,-0.263080094685034,-0.0673300356202919,0.00509487438695256
0.0355920624680078,-0.260467853624954,-0.0400075766148823,-0.000425415839650204
0.0421826068237052,-0.223847682037541,-0.0232815501292725,-0.00427073000361511
0.0504874274507175,-0.15398950681024,-0.0468524198675162,-0.00729876135800691
0.0801373625321573,-0.0696342280102973,-0.0717613354292249,-0.00908966991937825
