0.0136587384260152,0.00100577753425038,0.00915932850513544,-0.000627220594376733
0.00872820917348669,-0.0116651244803628,0.015168834673719,-0.000817941850975128
0.00639858945355236,-0.019354735630122,0.017330700860459,-0.000400259624888729
0.00163268351240213,-0.0197483524246907,0.0139242761952407,0.000393512675240234
-0.00408388573240076,-0.0248589805860435,0.0103052926204233,0.000857541177564702
-0.00732361753413223,-0.0359849479448695,0.00879527519845925,0.000898504483663279
-0.0134364522458467,-0.0309478206747659,0.00491699757324211,0.000857097687497999
-0.0195712506735462,-0.0104091434026853,0.00169680744139994,0.00077054947503202
-0.0190046776195068,-0.00418210463635865,0.00382534352299946,0.000599223959663713
-0.0142016820282986,-0.00726227197580236,0.00307152604800489,0.000435045818130614
-0.00927691660097472,0.00663599321515878,-0.00754591773091911,-0.000206732211312455
-0.0036353539965953,0.0198200388761711,-0.0127331323318634,-0.00158800296667994
0.00450661598940081,0.01031971254444,-0.000858406553807207,-0.00219228277551107
0.0135262015656381,-0.00203693475818394,0.0123501775259792,-0.000535637645874247
0.0209118466100969,-0.00150866404987006,0.0150600845371654,0.00218841388393661
0.0270396477042391,0.00739897667557447,0.0118237058644372,0.00347331797710156
0.0314888458748277,0.0154729603851482,0.00782760919867734,0.00255458806674085
0.0295111768414893,0.0192943767194288,0.00372255495863391,0.000701144180466493
0.0204198021025043,0.0282887929841895,-0.00222624021139943,-0.00067951658361213
0.00801657810811285,0.0438781707724801,-0.00944166905767604,-0.00131729899427929
-0.00469386573678952,0.0518120892679863,-0.0148460323338255,-0.0017900066487487
-0.0123066977402953,0.0393035063453046,-0.0151688219321193,-0.00234719885111745
-0.0141907958798588,0.0105053623719185,-0.0105212413121426,-0.00248861860773649
-0.0158600884475748,-0.0165431456100872,-0.00497743955255669,-0.00183926068341281
-0.0201367762718275,-0.0315389457281869,-0.00316322224002793,-0.00086507210859531
-0.0237718280709967,-0.0355442948234804,-0.00635183202080851,-0.000274717858489337
-0.0229890009002173,-0.0317588067917036,-0.00882345099467704,-0.000113156764911748
-0.019803068792669,-0.0267429961755691,-0.00830088657874363,-0.000113951829140427
-0.0160097857920658,-0.0255874238849201,-0.00922484889080255,-0.000228433375805271
-0.00828737041503533,-0.0248901532117518,-0.0111951769381455,-0.000467220061684527
0.00296656106710813,-0.0217766757996807,-0.0120648343426502,-0.000809323715296388
0.0113669536722368,-0.018174318984162,-0.0132226891082321,-0.00114709653087358
0.0152795983662814,-0.0076378497628446,-0.0175498348324227,-0.00123306893736638
0.0189251148948631,0.0267248024170775,-0.0259390974122419,-0.00104163558076238
0.0239061847963648,0.0756256355405905,-0.0348477925442138,-0.000907472449942609
0.0253726247049574,0.0939501361329643,-0.0379267459970554,-0.000915054274146147
0.0245398554133532,0.0702884964628421,-0.0327070532662332,-0.000745631978083345
0.0274253807347725,0.0449566790959752,-0.0238110915627918,-0.000330513529162812
0.02658428135625,0.0371134480115845,-0.0146182051857074,-8.87942629578163e-05
0.0137117297698553,0.0293709142517857,-0.00743986916907933,-8.95095566162213e-05
0.00450112573958456,0.0119277880943281,-0.00507472820884238,-0.000143619316222327
0.0122861336064391,-0.0103534958395616,-0.00450063248687333,-0.000469105533622418
0.0181914967874681,-0.0294643765504072,-0.00171077038894316,-0.00104445829411939
0.00960348492811505,-0.0432731096233393,0.003191065441474,-0.00129642095374836
0.00254208907961122,-0.0530804152844138,0.00331743077120579,-0.000619581483169341
0.00612974503515135,-0.058218864993783,-0.00401075813591786,0.000738289448574194
0.0115871607638049,-0.0590698707338382,-0.0104232852571171,0.00181112210281673
0.0107441337978214,-0.0585962599279249,-0.011438469395435,0.00217101280676737
0.00246861425259923,-0.0592139536868584,-0.00622243388184565,0.00184118556590912
-0.00624845786111569,-0.0541258288972718,0.00027011783250225,0.00110675114145949
-0.00425154650850232,-0.0331519534210052,0.00170341380894702,0.000550427048642861
0.00301764524808017,0.0017827017311421,9.23952145388918e-05,0.000364700823738367
0.00116121490155188,0.0330424013363063,-0.00174985239032097,0.000401977561232942
-0.00666071918575353,0.0470926677355598,-0.00174069287035285,0.000422980071308899
-0.0121673223951964,0.0476788349031164,-0.000635500790239171,0.000279342511195914
-0.0155602262552362,0.04375228257644,-0.00148239042565601,3.01271309310195e-05
-0.0165866613774865,0.0447825975790982,-0.00557783647392628,-0.000367246490416891
-0.0103714823462133,0.0587649032392994,-0.00891851684109006,-0.000571182084583859
0.00676465201818672,0.0712172145476142,-0.00699521767385172,-0.000118690489157642
0.0260576851573938,0.067036979948226,-0.00176968938769463,0.000326601724535091
0.0303276324661773,0.0596713667180725,0.00253717944988328,1.6571418960499e-05
0.0255601326240266,0.0429921244341061,0.00290143575275246,-0.000589807442699467
0.0287611012461846,-0.00155342599027694,0.00274939657982192,-0.000911806577667259
0.0318927958694396,-0.0460469094003249,0.00486213351894343,-0.000733593838733738
0.023749229907887,-0.0593007034920009,0.00652307586280392,9.00091025818118e-05
0.00897795004682625,-0.0537619124211537,0.00703770510585657,0.00115269462001003
-0.00794122082145628,-0.0443596412799685,0.00488930930808695,0.00212395368377012
-0.0253832843389918,-0.0318600891100102,-0.000392145843488985,0.00290487332130563
-0.0380601028357497,-0.019417657821753,-0.00355300662166937,0.0030885857661978
-0.0411089236357377,-0.00992806531430626,-0.000610150095169622,0.00263785443248954
-0.0354811372406222,-0.00632103816184921,0.00568850903272969,0.00182626120036863
-0.0213561390267614,-0.00603549893920176,0.0109802352615302,0.000912788681474181
-0.000904571858354651,-0.00197720279128025,0.0143972209082999,0.000223544633003089
0.0206216379019056,0.00560677196260213,0.0152589630682153,-5.97064127704154e-05
0.0388352100155287,0.01101043367599,0.0140119976212552,-0.000217378334112867
0.0385263284974878,0.0147476400304366,0.0110282253436839,-0.000470398013960372
0.0191282582094807,0.0199534468653992,0.00660524031345785,-0.000520633559731347
0.00554434858151389,0.0261644602227149,0.00483331899763511,-0.000532714253594684
0.00413953020931701,0.0323235728707794,0.00706022269976969,-0.000891586546312092
0.00268558299829556,0.0309051899841058,0.0105382272891624,-0.000864230131432737
-0.00069848936779697,0.0190662315304613,0.0126682046120417,0.000448561319369006
-0.00469203335584629,0.00715930901744175,0.0126068472979852,0.00230413326441541
-0.0144087520866895,0.00175035465967361,0.00766143901585296,0.00321615523799882
-0.028414561959009,-0.00315800664243862,-0.00242527649350591,0.00261595531707817
-0.0369484771061374,-0.0106832595250812,-0.00909180811353707,0.000838663423192377
-0.0297866578421046,-0.00713098884709445,-0.00900497008053242,-0.00137627313005868
-0.00229677489861227,0.0112852560387389,-0.00575482109594725,-0.00330871532989299
0.0268843762150234,0.0243504772886518,-0.000958015011502333,-0.00444423473007749
0.0330131288455045,0.024745868985061,0.00120099275311831,-0.00437984164860125
0.0139995599834156,0.0342042730362329,-0.00585509567487417,-0.00342710432691151
-0.0189319244435125,0.0604818076073741,-0.0238269844044926,-0.00282815709390492
-0.0423820595842186,0.0708703376963282,-0.0409766801157952,-0.00293300804250062
-0.0293677762209122,0.0452462133324869,-0.0397466003958967,-0.00238625785885142
0.0105346923960883,0.00777443360092396,-0.0221379289678311,-0.00041803100252082
0.0377900439432164,-0.0150253633303744,-0.00592491778371473,0.00185896130076935
0.0386184539338798,-0.0219474703818495,0.00138788209457235,0.0030928983627467
0.0262497511376327,-0.0222315827751076,0.00359184873263234,0.0031221804945825
0.0140866685860569,-0.019605246279566,0.00495908470497056,0.00271296303969889
0.0118745100556633,-0.0148205444648282,0.00606685360058844,0.00242556018931984
0.0160048820873574,-0.0103603123220721,0.0043699821762918,0.00216430160841644
0.0184487142201018,-0.00673751614263004,-0.000162280251079739,0.00153445455936511
0.0210816648893834,-0.00192395935875596,-0.00505706774320225,0.000383908574985012
0.0260133091306174,0.00223720454729075,-0.00935004043565733,-0.000952882933449858
0.0291175412328259,0.00306561349683251,-0.0112841072878819,-0.00214973170808839
0.0256417856319649,0.00255924677404417,-0.0104518029708587,-0.00301967904231693
0.0164105111123056,0.00243498989523536,-0.0107097550367284,-0.00333939428992443
0.00429507734733308,0.000706980627971615,-0.0130552288721698,-0.00291383549549046
-0.00785231909267892,-0.00435932122117547,-0.0159703557935287,-0.00167799220351668
-0.0136535378587465,-0.0154167076997671,-0.0184212489408244,-7.24939981840641e-05
-0.0134212785070696,-0.0306436762039113,-0.0189863236686144,0.00106164103003486
-0.0109442662537976,-0.0381581856247552,-0.0176934458753859,0.00135785439038657
-8.82448022662269e-05,-0.0345022890413026,-0.0140275756310922,0.0010060881282841
0.0155931897566553,-0.0252266661624652,-0.00875976679192006,0.000274064131059412
0.023436339936074,-0.00875775140341072,-0.00460038045859893,-0.000371878715987532
0.0236638873756556,0.0142701044914854,-0.000816809338369086,-0.000645493141031068
0.0218510416876366,0.0333249689523549,0.00274011377988351,-0.000844548804439025
0.0203218868638672,0.0403064510191248,0.00346977555439886,-0.00103841088797637
0.0149234275268975,0.0402025707091914,0.00288929028865748,-0.000948669595836737
-0.00619320130977217,0.0392711821255715,0.00239892802615673,-0.000538893158820168
-0.0433651286132819,0.0318257692334249,-0.000674666480770327,8.13276357972577e-05
-0.0679467744469164,0.0122848231973238,-0.00638677382727339,0.000609169428720712
-0.052617784887102,-0.0137079075268292,-0.00857001264768581,0.000818114279789422
-0.0145779946631174,-0.033404998477097,-0.00444655804497684,0.00104992352647497
0.0103092274622426,-0.0386904522601893,-0.000412592188095724,0.00158743798288684
0.0158781958344432,-0.0332138105989139,0.000972178985712203,0.00216746238332203
0.0158060060875897,-0.0277819137809303,0.0028447694777812,0.00240897389015271
0.016459281235261,-0.0279376586544763,0.00522311337870977,0.00241013139335703
0.0157961081758665,-0.0282126686605476,0.00804631383617325,0.00244646107823798
0.0121935629289934,-0.0250607051668177,0.0126229013631764,0.00243146231173004
0.00705918355963185,-0.0221066655831436,0.0163834480907251,0.00234196601086735
0.00304262781302152,-0.0168007377204429,0.0168072324893045,0.00213073720251545
0.00204795064213275,-0.00425119043371792,0.0149011734252155,0.0015853146703971
0.00434345835011732,0.00719329356964767,0.0128164020971808,0.000777890471868924
0.00840372143312471,0.00822901709700332,0.0114116579371722,-3.99240815771714e-05
0.0112246191551815,0.00342393046967025,0.0103603216524397,-0.000786405612562594
0.0094683525424848,0.000204333966540945,0.0102067654397671,-0.00151224320663415
0.0013180625092011,-0.0015383548690493,0.0110117389971908,-0.00207785108419758
-0.00820286802954923,-0.00441997061979417,0.0114598110120966,-0.00210422598114316
-0.0134497948094964,-0.00726497268356973,0.0106096933617911,-0.00147341758954336
-0.0157917079620824,-0.00629990531127052,0.00783597401840732,-0.0006254022853892
-0.0190366000755241,-0.00314986913805447,0.00341434323159137,0.000189722009585929
-0.021824758241614,-0.00383844619507853,-0.000486866262189772,0.00102267953566246
-0.0205418517027915,-0.0083057956479596,-0.00269615693270353,0.00140792370133899
-0.0183860472586267,-0.0138933917334891,-0.00176104202233247,0.00108091562029859
-0.015516183274823,-0.0206536624409949,0.00190872033238763,0.000649599971483311
-0.00920236942853959,-0.0244166105067977,0.00477334642785573,0.000601719613852103
-0.00341904029924637,-0.020590654944233,0.0062984238231727,0.000792383904912577
-0.00139116486448418,-0.00853646183161116,0.00487903739165658,0.000940327841293792
-0.00332928355261202,0.0225116075336586,-0.00245716266216655,0.0010704697703155
-0.00539926706259607,0.0681094013395088,-0.0106102266510188,0.000986499122477434
-0.0008140341352055,0.0855906364165807,-0.0137466859750773,7.14609871478088e-05
0.00776674677467779,0.0569801561199295,-0.0105392626778176,-0.00141369842542761
0.011850892490868,0.0163950192066187,-0.000992377606800647,-0.00227311852077723
0.0098133543039535,-0.0078452076346513,0.00869057682282147,-0.00197386686301396
0.00672005481735757,-0.0177731156684873,0.0133815479641438,-0.00106290763448455
0.00742105769213885,-0.0218238054046891,0.0139995622369374,-0.000246137145596563
0.011490309361665,-0.0223963224795117,0.0114151789644061,5.93566072045891e-05
0.0132103043665386,-0.0206357241246498,0.00736332262305164,-0.000284423521400056
0.00866134624635632,-0.0168437377391628,0.00343625705592544,-0.000927577761256166
0.00361258918266808,-0.0127388355859584,-0.000536109008142698,-0.00136756472044389
0.00264150357161166,-0.011666205123524,-0.00277295500245145,-0.00151201666669667
0.00242352443702614,-0.0104971062910184,-0.00122535785601299,-0.00132181535581657
0.00193212085294247,-0.00734865177148981,0.00054837328713664,-0.000709517400327186
0.000873116413604214,-0.00223148131453154,-0.00397022690909199,-8.77060487168282e-05
-0.00392573049717015,0.00285050034570974,-0.0140725247529752,2.72706332970631e-05
-0.00914397927264115,-0.000371153484901264,-0.0211917545914084,-0.000382120658995504
-0.00750056015474958,-0.00826575051963283,-0.0227070094728756,-0.000889752770960031
0.00268176557018241,-0.012646859821373,-0.0197189348631894,-0.000965454170729339
0.016207522503437,-0.0139133203425703,-0.00943847161600884,-0.00065408304993046
0.0237842510342657,-0.011987969739075,0.00372919168506352,-0.000434426831201038
0.0226107079487859,-0.0068870325410635,0.0122192526429384,-0.000622748670605111
0.0182177747725413,0.0063911105759845,0.0131358827895275,-0.00165295096394509
0.0132499691905668,0.028443692929302,0.00879565108025976,-0.00365591216422074
0.00643631006114235,0.0395195465995374,0.00434659813042799,-0.00532070567354447
-0.000414007282744154,0.0380850170561656,-0.00286970373853012,-0.00494318521057491
-0.00316432175316757,0.0400069415169148,-0.0132536625060077,-0.00258163069226686
-0.00109247289971899,0.0360661760807681,-0.018668833075368,5.01879300683801e-05
0.00109918100627305,0.0192406438473539,-0.0180786033563047,0.00145261206580877
0.000936084916697452,-0.00240699874430102,-0.0148031276431131,0.0014888948319242
-0.000762365212260653,-0.024120848750194,-0.0077656441837937,0.000803420637002983
-0.00371955028413601,-0.0346523286809887,0.00047747918087284,7.53426205705372e-05
-0.00696988730400501,-0.0265105595288949,0.00445189311853358,-1.22312616196317e-05
-0.00825030918019161,-0.0114198925424163,0.00366030384461485,0.000592825260082752
-0.00654619609541802,-0.00140949999322035,0.000586776839370905,0.00125675663897283
-0.00421954240175099,0.00314613292762084,-0.00247742826671586,0.00145806019150563
-0.00169665569339677,0.00416049333140713,-0.0037076927851402,0.000879476969330215
0.00253680872444056,0.00176605914359577,-0.0022009402626268,-0.000415905933860234
0.00481796236217422,-0.00322679991951057,0.00165543145047553,-0.00174092797750013
0.00326059680468782,-0.00783908987569725,0.00551096018934322,-0.00233653362538401
0.00239653159479306,-0.00914035938324139,0.00768822180600217,-0.00201185446208753
0.00359683142119875,-0.00648673391025582,0.00739125701838533,-0.00113623576849708
0.00375862908730889,-0.000570450680067381,0.00235650381425491,-0.00035392972221955
0.000295787013539585,0.00875881672073625,-0.00481929888919953,-2.89876924099538e-05
-0.00387729606639549,0.0216165974722739,-0.00777686146985678,4.64715699153876e-06
-0.0046989207027232,0.029407397392946,-0.00627297273763494,2.15919221517234e-05
-0.00425749083209812,0.0239500786637883,-0.00380453762046203,0.000171170300481989
-0.00458887465937232,0.0134878469742945,-0.00210947107267756,0.000472780189540776
-0.00465591242577368,0.00648576624793564,-0.00209110695704281,0.000792487398698642
-0.0044497838822153,0.00142401293399675,-0.00421595053012786,0.000955191971658981
-0.0040266964747298,-0.00277024043279341,-0.00700387214836,0.000923448465619501
-0.00492891477662531,-0.00636190330918345,-0.00731170097142473,0.000759618697930606
-0.00859793184990434,-0.0106897712736888,-0.00481920915857103,0.000579258861238413
-0.0108183892369353,-0.0151085630814231,-0.00115467931326701,0.000872177690933745
-0.00928529176249566,-0.0119346485531046,0.00124201380374447,0.00195341539878302
-0.00883564139545373,0.00156488798567622,-0.000233070667441184,0.00287065578945164
-0.0111678276634727,0.00160472855744965,0.00195350675555222,0.00235559310339383
-0.0123552115277629,-0.0213278395170952,0.0121406534223636,0.00120110987627468
-0.00960476946665881,-0.0357527773098446,0.0172884164051194,0.00121636859374658
-0.00601242098871815,-0.032293101121572,0.0148276818256453,0.00195105644751461
-0.00612026258798345,-0.0259289360391934,0.0159137592362409,0.00209241258374957
-0.00440959792188463,-0.010462906899974,0.0169640596318079,0.00194712015130003
0.0080907056995649,0.0122147151146693,0.0103360108249226,0.00209628986772408
0.0285106421779722,0.0186726770698953,0.00408402739457898,0.00212810726995838
0.0428375712817609,0.00614217351958683,0.00743868398456485,0.00164278928486651
0.042777379651817,-0.00838278571424112,0.0165061580425252,0.00152587370817602
0.0366681742633843,-0.0136794046799489,0.0205508533594071,0.00244245842299763
0.0340327147085442,-0.0114382665736201,0.0163926738303566,0.00309731348565686
0.0342907792203181,-0.0111261610765097,0.0117007794813213,0.00225915469246082
0.0336271257295708,-0.0172045191981494,0.0130327381248401,0.00061353787664513
0.0281678223345812,-0.0222639704851289,0.0157140678098692,-0.000586541358938587
0.0172784739523215,-0.0144143266231571,0.0132668776421117,-0.000921644602279718
0.0010876247240754,0.00056221263841765,0.00604335852172399,-0.0004918146130659
-0.0190757720040138,0.00563171102002977,-0.00637371727196961,0.000477506607448156
-0.0375367891028167,0.00144039218732606,-0.019110675696616,0.00154718988224599
-0.0546184917891784,0.00417933413218596,-0.0212141424412434,0.00196800900464373
-0.0740945623362379,0.0205505707730317,-0.0112122764374579,0.00140835143711809
-0.077513320218618,0.0359987440573321,0.00222059546838088,0.000563026929357063
-0.0437139229935576,0.0370317699175919,0.0109577904252279,0.000290863909010944
0.00464782294259079,0.0312221087395364,0.0143856513498518,0.000567236294741052
0.0355229807638798,0.0243202947871495,0.0167015104849193,0.000585272396595989
0.0474431773048247,0.0123046209806014,0.0212056324258085,0.000127725462693072
0.0466953464500766,-0.00172684346101194,0.0262613462987401,-0.000112435572903423
0.0348100919163505,-0.0129960057481162,0.0281826725984187,0.00028348722106368
0.0177472853326129,-0.0222205825619487,0.0270479895346685,0.000941422530961332
0.010802971015903,-0.0276603126498478,0.0244036376708703,0.00125030423497487
0.0282862236809058,-0.0241677728862242,0.0204299915682982,0.000909322237894355
0.0538590038969419,-0.0138809105729253,0.0141973692973889,4.96026646588769e-05
0.0546297319080563,-0.00767910289568426,0.00715419047011083,-0.000844172015674865
0.023902943180153,-0.0156516964292781,0.000587078317744259,-0.00135219049695699
-0.0221903294508747,-0.0300357536998864,-0.00902539073598006,-0.00135495775458078
-0.0607581630116035,-0.0293355598474152,-0.0219645821532431,-0.00133157450669928
-0.0800019584970958,-0.00956173731924703,-0.0320609063794663,-0.00197115406988863
-0.082107213315575,0.0132269419164885,-0.034343916702238,-0.00309370118209723
-0.0639210929271801,0.0244681756012671,-0.0258127005661392,-0.00392658826580809
-0.0290904695066257,0.0287949522837335,-0.0105180044828798,-0.00371155072461719
-0.00149447447351914,0.0444654814105148,-0.00138837393846641,-0.00241778510678328
0.00430022952583864,0.0630807567219747,-0.00131747932377531,-0.00126983822670315
9.13964692594686e-05,0.0531002848189728,0.00192677776163652,-0.00126555454543619
-0.00125241101690372,0.0202976535862577,0.0128891882652961,-0.00203469909573055
-0.00150869820653638,-0.00766106748238193,0.0239425363262121,-0.00244969016265438
-0.00619132836828195,-0.0279283624926575,0.0295721662583126,-0.00153018187687571
-0.0138943952554869,-0.0412479262630106,0.0266139923034389,0.000580369938654503
-0.020379899565892,-0.0470816669948468,0.019212109370587,0.00219900285088457
-0.02217631019789,-0.0506722403124448,0.0130551159155621,0.00200957682349594
-0.0130840389963771,-0.0493445051640941,0.0058135640910943,0.000746149893511775
0.00583321645294045,-0.0461440499417567,0.000302373767267956,-0.000499185896336801
0.0200953018251949,-0.0498252246143786,-0.000929793119212258,-0.00145975334076493
0.01922549289878,-0.0516894354403828,-0.00308041434519861,-0.00200060037578068
0.00957354727416804,-0.0421727338048476,-0.00734616351725185,-0.00206841101536981
0.00028208802587968,-0.026115482859647,-0.00988025252553738,-0.00185466425614902
-0.00453394913407854,-0.00660850697771051,-0.007787194285636,-0.00167630441709584
-0.0046075383827064,0.0186545733410846,-0.00433968001385226,-0.00159515067239314
-0.00867170633754373,0.0380762332630145,-0.00378236938379269,-0.0013088899620276
-0.0281803265773945,0.0355889527749073,-0.00343417334820085,-0.000764797632542995
-0.0618454259612988,0.0201261360983737,-0.00120767335296625,-0.000143898405847654
-0.0837621081214793,0.00889248460031475,0.000946184544756274,0.000437557391524575
-0.0730618333566511,0.00386506854570529,0.00560717263976313,0.000594595852743307
-0.0456475386175931,-0.00347445028856838,0.0137618684090377,1.67231312276934e-06
-0.0278188470482241,-0.0169318358813061,0.0185535545766342,-0.00098863962867318
-0.0232126059262486,-0.0344656678426418,0.0185808204414908,-0.00175451527362222
-0.0220522839433052,-0.0559901083236128,0.0169640797600907,-0.0018871901140847
-0.0227818740219118,-0.0693800124670091,0.0154925104502703,-0.00102326516561344
-0.0260141302656593,-0.0574566201454932,0.0149197324646132,0.000911441959169159
-0.0260187882743493,-0.0369849381827033,0.0144474005721228,0.00323837085627953
-0.0184079376644953,-0.0363955842076293,0.0142641281003107,0.00486207474183968
-0.00704834746525455,-0.0421561397161686,0.0112381846752071,0.00508589164810041
0.00559465458562626,-0.0308803923149986,0.00415938293154972,0.00408342365259878
0.0209447266879913,-0.00551544739744861,-0.00119994925351245,0.00262278603425144
0.0338981666540488,0.019502826410526,-0.00299284785018943,0.00137902668465141
0.0390202426860879,0.0284239226528438,-0.000704426799048937,0.00047633611544977
0.0316168481776785,0.0178783370955585,0.00601247179951367,-0.000239155189891797
0.0131048728964268,0.000847752350747581,0.0106525250545692,-0.000743903102846892
-0.00275783301002516,-0.0062842147849526,0.010686636644839,-0.000896601002075785
-0.0111089766094705,0.00256985711196454,0.00880029317802975,-0.000608877975449934
-0.0203682572643088,0.0237067173333055,0.00380125000566015,6.06726594562371e-06
-0.0335419833261107,0.0555781873511545,-0.00374502930497753,0.000284648920547365
-0.0455677182540336,0.073195305518025,-0.00843787682336823,-0.000375370380850762
-0.0515852837706808,0.0456144662817814,-0.00711969768296827,-0.0013934020598953
-0.0457111747221277,-0.000630046811097268,1.67774108036541e-05,-0.00162093247681451
-0.0282848322650737,-0.0261903168102955,0.00976401504653771,-0.000861333482003499
-0.0106648209814886,-0.0260367996233204,0.0147893949198841,0.000196355635276811
0.0015464968306579,0.00224103747734354,0.0107681044483996,0.000781494569747722
0.00365861402261805,0.0507493179254144,0.00247253181128198,0.000237537630620953
-0.0131187095894403,0.0830576197677,-0.00378182064729613,-0.00112560012369288
-0.0358419882920675,0.0783725212817442,-0.00761308290676719,-0.00206131692207946
-0.0338815082751901,0.0571453802452683,-0.0105128178062857,-0.00200594294354566
-0.00662477609917612,0.0411613500436687,-0.0116709933366562,-0.00148092960074352
0.0154509223000501,0.0301875712140253,-0.0101098176410958,-0.00116812867933661
0.0182010409269195,0.0192881230684708,-0.00512253156926701,-0.000972584371986445
0.0144016809667083,0.00881692802085215,0.00170341915109758,-0.000442004595439525
0.0156179706957683,0.00185942926257641,0.00366880678673933,0.000279933090848129
0.0168048118740098,0.00220650741302892,-0.000973299752843007,0.00101240963692142
0.0148292217290441,0.00945630068777563,-0.00576960688763211,0.0016975974883971
0.0164850248980607,0.0185274163554322,-0.00501014446606799,0.00213756516988161
0.0221682264222036,0.0249746956581451,0.00101015785720571,0.00223671524257099
0.0249351699791038,0.0278975710351797,0.00640597881413277,0.00169762604624155
0.0237562238165257,0.0282540274693903,0.00820634525152232,0.000507154917520377
0.0233720070258624,0.0268022192856209,0.00884846290997675,-0.00073583798777396
0.0252778023755219,0.0255442458398225,0.0102871061802322,-0.00174019343220954
0.025406021533329,0.0227312202239354,0.0120794272689744,-0.00237370513699062
0.0196289047683115,0.0161915040660978,0.0119788018936885,-0.00241474057907521
0.00983122970554912,0.0161071570970048,0.00714795015975274,-0.00207487974100028
-1.59292166555594e-05,0.0301179018230055,-0.000289429309325254,-0.00179949158631742
-0.00878271356414924,0.0421411645424189,-0.0037480322068997,-0.00173002332694213
-0.0151662881024661,0.0344434022983238,-0.00542791413928687,-0.00169324149828123
-0.0185721115308401,0.018855481914071,-0.0146684176893036,-0.00158483296786564
-0.0173751235062337,0.0160250705120841,-0.0332995522687761,-0.00136855874808966
-0.00794624907796729,0.0259783060256114,-0.0452039999481484,-0.00100788891871811
0.00401805651854833,0.0352379476352077,-0.0354775178273488,-0.000627683183374648
0.0106113093066405,0.032909721795642,-0.0156777993303123,-0.000168628310012422
0.0138313062829112,0.0216075111173938,-0.00202327652128239,0.000528595612360988
0.016345972944268,0.0105278349593875,0.00234579981667042,0.00116068209690899
0.0175538162448193,0.00458862352834951,0.00116786077297399,0.00145817231703249
0.0151745987319215,0.00403409811253643,9.46438778684153e-05,0.0016018329897903
0.00871897565175255,0.00385192327379935,-0.000170659342153795,0.00174761075097574
0.00244449959493487,0.00124080800320283,-0.00183663891872655,0.00187558399151845
0.000318316788270916,-0.00107017949789666,-0.00391228696095498,0.00180535840406841
0.00262933164048586,-0.00334709376085378,-0.00499726292913718,0.00149492430617288
0.00511777498264585,-0.00735086315605261,-0.00603924763247043,0.00126549921355205
0.00516749127742248,-0.0111786971078435,-0.00758918566176133,0.00120195143734578
0.00564862699623059,-0.0120145799752496,-0.00899491168683532,0.00106705708420605
0.00692513942273857,-0.00860076369539879,-0.0096614500718606,0.000939454337516232
0.00492065528023919,-0.00388540686829536,-0.00894625779858316,0.00110085356876896
-0.000947789841887459,0.000921648046393169,-0.0095917328785904,0.00157419351574397
-0.00631335914078341,0.00411148011747427,-0.0138996842268482,0.00201346768777421
-0.00868280032299552,0.000450455785640401,-0.0161683389041314,0.00192125508851444
-0.0110907188054577,-0.00585205701724207,-0.0140969031511342,0.00127439225517629
-0.0144957247501655,-0.00800925289849708,-0.0135531759509737,0.000171769137670915
-0.015637922214562,-0.00873357167504293,-0.0139255321343586,-0.00120881142409498
-0.0134768026349662,-0.0130808252688387,-0.0105745267930169,-0.00225082345813435
-0.00990310382146492,-0.0181866311901447,-0.00630983796324327,-0.00237913953966566
-0.00858773444705703,-0.017259109515421,-0.00499782040728395,-0.00136300153498105
-0.00941088226196269,-0.00733742085426464,-0.00559272541721508,0.000239380025762955
-0.00953198979749919,0.00976413178075273,-0.00605359401252847,0.00151454041407844
-0.00598129679586338,0.0234268436037586,-0.00549606814166761,0.00199811450501895
0.00176859869678357,0.0218075922298107,-0.00658989066516877,0.00179561523518826
0.00889181971655953,0.010011652862643,-0.0121720199893292,0.00135875811870911
0.0126124882271473,0.00104163003484419,-0.0177286449803395,0.000900201424711821
0.0140801118701821,-0.00560682320049932,-0.0147437589094163,0.000453241541703798
0.0132349060053512,-0.0146729520811683,-0.00298391382803843,7.30126774018521e-05
0.00828991193939971,-0.0222112157294174,0.00707169433745118,-8.90017780811629e-05
0.00308750999904246,-0.0233211891444049,0.0100783771878425,8.76747797157757e-05
0.00193131864787513,-0.0187449808467396,0.00801968078325072,0.000192835265369706
0.0029591452044667,-0.0122644075148327,0.00402833165783946,-0.00011461081599473
0.00407609668859713,-0.00620137177971442,0.00198227420747582,-0.000539164254441804
0.00412655541783961,-0.0012728168395366,0.000413804102714955,-0.00075258516730702
0.00362359320821631,0.00246526562478213,-0.00247280326714173,-0.000499480448157979
0.00378754415590432,0.0049499491264904,-0.00263782438441576,0.000172348110406242
0.00471867974669997,0.00671661427030541,-0.000324574494925093,0.000570437574972666
0.00553765286275644,0.00520082900613453,0.00124719830454403,0.000491264048476971
0.00681215265244024,-0.00567757482168241,0.0045133796348242,0.000452745868129446
0.0132791834473458,-0.0207167988444095,0.00858084486015614,0.000659722996948473
0.0230959798193353,-0.0281998653332939,0.0086347619627794,0.00083726504537878
0.0261381460628996,-0.0265534129271006,0.0063371713695492,0.000549177793640759
0.0216220581948541,-0.0203646120156196,0.00550429378700752,-0.000163878869252899
0.0173604420217779,-0.0182204155355508,0.00605268002904379,-0.00090529305008521
0.0155280422631138,-0.0248724214311454,0.0103666167976685,-0.00157977148678195
0.0145097429304611,-0.0286988037252974,0.017559454517259,-0.00184536157027615
0.0146770607914824,-0.0193534749839525,0.0200114417409515,-0.00129775893517619
0.0153649452228842,-0.0025290534517045,0.0188566336761411,-0.000466954735548144
0.0102302416481793,0.0101233127770547,0.0210870946791433,-0.000143720362763086
-0.00675117149290179,0.0125351658354269,0.0261042532674537,-1.73895304131268e-05
-0.0241250625021246,0.00170431830333468,0.028534278936524,0.00105285703194244
-0.0260135643304311,-0.0232511876406725,0.0264946337869398,0.00287002516525866
-0.0178719334890273,-0.05088546006095,0.0234524124520975,0.00364554280488706
-0.00897392022306168,-0.0662497219592858,0.0213710873214111,0.00241719801058568
0.00124629633736181,-0.0677475193055118,0.0181526925865727,-2.30431893310868e-05
0.0127170612128323,-0.0580106229286347,0.0121166877663568,-0.00228601087935789
0.0217946024411735,-0.0363458272132334,0.0036378100416538,-0.0039843746739892
0.0246099707673288,-0.013371836895224,-0.00536387812436483,-0.00517494141937608
0.0254952005234963,0.006946490513913,-0.0128837513243005,-0.00487960975118828
0.0262005450457509,0.0392202386103591,-0.0172340009153089,-0.0027975285601919
0.0192090921175676,0.065553971917829,-0.0171935274806648,-0.000167465268093216
0.00596123475053996,0.0529767269719122,-0.0120192049163085,0.00206965343467842
-0.00285553825291265,0.0189352084721218,-0.00369351435189012,0.00347559036132387
-0.00238583657459243,-0.00527535080791364,0.00495612600416076,0.00384352218303448
0.00614573821746235,-0.0163299572358955,0.0107330796442094,0.00336049796576083
0.0187831701107898,-0.0207519365642931,0.0120289700814299,0.00240696525925092
0.0256749218375298,-0.0226319398567388,0.0130100474402428,0.00132226496045259
0.0224109442575008,-0.0254950768891749,0.0143715932849227,0.000185395332661715
0.0164632686573377,-0.0288698222440754,0.0129756181446094,-0.00078124319271962
0.0147246341932819,-0.0270495849777372,0.010216001841241,-0.00136178752761969
0.0164994652855282,-0.0194973890127335,0.00748654434683729,-0.00173572477471246
0.0169659604845644,-0.0106319335153574,0.00386270997675493,-0.00189805257110148
0.0128568519003874,-0.00448021499385545,8.07115106118261e-05,-0.00170383435226802
0.00592559112201598,-0.00182849214047169,-0.00232762416840758,-0.00155242269250736
0.000511377120779477,-0.00194198359313872,-0.00268792907453273,-0.00163779710396814
-0.00483567039841834,-0.00742219465846324,-0.00126644702068385,-0.00154048397192714
-0.0125166820310851,-0.0197724148086791,-0.000651198839652922,-0.00118021392370872
-0.018130744169469,-0.0322462063484682,-0.00228856309168346,-0.000753425617446551
-0.0187438923364552,-0.0280473633084207,-0.00320879933776043,-0.000622629601077777
-0.0170595145343445,-0.00383887091309115,-0.00155213989525332,-0.00120736851749763
-0.0151441431619372,0.0165613483360485,0.000887744277687976,-0.00200239526301658
-0.0145777208738866,0.0168860327230256,0.00239180477143925,-0.00215632988729402
-0.0203074726543014,0.0078867822614144,0.00169480716968234,-0.00168106825636973
-0.0284366599019703,0.00338398138513287,-0.00262452053474032,-0.000907355329100606
-0.0271317889299141,0.00541945114814133,-0.0104677649319871,-6.83783739121244e-05
-0.0155214460854886,0.0136299444080878,-0.0230103427761055,0.00061705700116252
-0.00319080487503295,0.0232778440904511,-0.0347528821612039,0.000962780107551146
0.00468519318899049,0.0261158444750839,-0.0351893093839161,0.000739387115851417
0.0135004609103918,0.0183566612835524,-0.0278566757690204,8.67963437943966e-05
0.024394494876129,0.0036724458621176,-0.0218246315374983,-0.000454716334167874
0.0275418600794668,-0.00442066156731049,-0.0187654323119519,-0.000738293661806081
0.019163871640328,-0.00323164742107335,-0.0183372151341371,-0.00104416275371978
0.00645595750932169,-0.00464884977525326,-0.0181182716162964,-0.00131012290877524
-0.00310434293980449,-0.0114042183684999,-0.0156220910957731,-0.0014170387231432
-0.00588881498989411,-0.0170539802178048,-0.0109231169530369,-0.00156396665769355
-0.00292294930160815,-0.0188700230091982,-0.0029105393359304,-0.0016019936326889
0.000937726285142977,-0.0186404930221582,0.00646199360543267,-0.00111089642187187
0.00143155380860299,-0.0186527020337085,0.01179543906518,-0.000122878931706284
-0.00266522357072793,-0.0189799352679047,0.00994502656917989,0.000874867042278696
-0.00979487851873966,-0.0172548654352277,0.00430142466876933,0.00154365892011762
-0.0150555631641239,-0.0146049010293985,0.00247844406367642,0.00201096376095639
-0.0117988427995402,-0.0132843815146976,0.00511790994784417,0.00237435481212182
-0.0028404261265655,-0.00848271193260581,0.00683798230766406,0.00240089147550309
7.04537842193681e-05,0.00626530349102242,0.00379250209567752,0.00189876051072032
-0.00766753913971724,0.0161244696135592,-0.00203714177331453,0.000843653894858779
-0.0191849153227429,0.00284543557146485,-0.00404193320061442,-4.93510246113646e-05
-0.0222111304933855,-0.0192112647408867,-0.00197379959079606,0.000362801300270255
-0.0163504758422962,-0.0330371494208468,0.0017692714643862,0.00142706713806796
-0.0120354080377189,-0.0371094067416844,0.00557412143314837,0.00151833893510625
-0.00958257120024433,-0.0334584211978849,0.00647758778306192,0.00062248099368077
-0.00610433524329743,-0.0276282388824683,0.00488187161998942,-0.000676677715532155
-0.00563425316558605,-0.0271276205313762,0.00335339640131244,-0.00237033764159439
-0.0124069779142871,-0.0360675970501339,0.00614088728428242,-0.00390214821540167
-0.0277061649575337,-0.0487571700922643,0.00785377645643624,-0.0040763744274834
-0.0423893136447649,-0.0615576871837986,0.000415224854973556,-0.00248794945453897
-0.0415511745336133,-0.0680218170134965,-0.00819764997262206,6.4336748753259e-06
-0.0242345110486653,-0.0490048519817235,-0.01180980627015,0.00230429771577105
-0.0018980505424919,0.00315449876235541,-0.0178370927258715,0.00361688957461443
0.0112609697941144,0.060800187291197,-0.0285677124067563,0.00352723086286191
0.0139424670927233,0.0812750857374392,-0.0333743690542629,0.00249416624731084
0.0182404293848103,0.0594710599275293,-0.0265532805293929,0.00168435722684609
0.0243000071330322,0.0227711976700144,-0.0143744048733582,0.00193364934684019
0.021008079883207,-0.00461568634412801,-0.00397608943204064,0.00281993141013635
0.00895496386715344,-0.00390703746662439,0.00423037996461469,0.00344073625128047
-0.00228530680084722,0.0201220157877895,0.0143088399810912,0.00397534473699709
-0.0110990527774118,0.0297055419978173,0.0278626332616317,0.0048349143931487
-0.0169885832202648,0.00519715190545451,0.040869193515635,0.0053856404609023
-0.0190496932319508,-0.0270131563959014,0.0415836981100625,0.00456481753899922
-0.0207516458617511,-0.0341264980047954,0.0238283088493811,0.00190138622553238
-0.0236097210034824,-0.0173086830350454,0.00492743016000519,-0.0017597865331483
-0.0272659224417191,-0.00285454699303877,0.00535262000912433,-0.0042349246221622
-0.0279724821652369,-0.00694341844228203,0.0201690843536874,-0.00409127919532833
-0.0207544596031702,-0.026260981574385,0.03412039728399,-0.0023680180225243
-0.00615247675148425,-0.0389535150441219,0.0393441966978773,-0.00085651805732597
0.0133615398620863,-0.025709354897489,0.033618623877712,-0.00042182084723739
0.0341150520764459,0.000745800151314032,0.0219175345763313,-0.000884972008202273
0.0480475223819531,0.0204932297928752,0.00879703600350634,-0.0012171528458722
0.0448536056404004,0.0353591986604508,-0.00372183531407105,-0.000959301107223511
0.0287449100032856,0.0462495723291119,-0.0111302881745715,-0.000617387338103968
0.0181329431993092,0.0430459665899338,-0.00967526632591432,-0.000380562092805933
0.0164684062121365,0.0324782378635754,-0.00414908425321994,7.55093205994884e-05
0.0118759179167434,0.0295163305538697,-0.00629247417474688,0.000983686055964407
0.000287005591559641,0.0319881245033874,-0.0153746510600385,0.00188452117459855
-0.0117535159736012,0.0310515342633081,-0.0191435842740319,0.00207726174950406
-0.0239509653793082,0.0223367690795531,-0.0162661873775928,0.00158598130064929
-0.036775570945405,0.00685104756703775,-0.0166799698175194,0.000898670156080443
-0.0404676853982775,-0.00886197328964418,-0.0214298703725406,0.000401151847810891
-0.0335620790773679,-0.0254224648732445,-0.0215484064180844,0.000252248127556079
-0.020242160416759,-0.0457693974007758,-0.015973746968044,0.00025873645081504
0.000409452042361553,-0.0489857704383306,-0.00854770522113887,0.000204407862533017
0.018057956085164,-0.0157039962135067,-0.000132183883080197,0.000128420872569365
0.0195305711719472,0.0234080372484587,0.00578746856983773,-0.000173136421721605
0.0143428232765826,0.0297963291820223,0.00864743493443055,-0.00115423311440618
0.019790183402818,0.02947869484392,0.0154623985717071,-0.00266203840159993
0.0349964709559251,0.0479000572008467,0.0275376192640993,-0.00362115869210541
0.0461671026758355,0.041038480912361,0.0398786605702402,-0.00331217477415387
0.0403658007432598,-0.0134903088460033,0.0476730413516272,-0.00212195043543674
0.0173763420221796,-0.0718182610318483,0.0427600170315444,-0.000672446225635429
-0.00787434073434357,-0.0994041547554014,0.0292291353056029,0.000688896256385076
-0.0250261053615918,-0.106376513914306,0.0189251635693259,0.00181036110763465
-0.0341668859427512,-0.117961765529265,0.0124567928677838,0.00262378170171195
-0.0305754517329448,-0.119097905783362,0.00924989536078397,0.0028901271379834
-0.0156665101495675,-0.0632263930694753,0.00520873794393596,0.00224029554210971
-0.00136716597297395,0.0270536972194908,-0.00342444494289984,0.000645811517629783
0.00710528039854778,0.0607019981840888,-0.00706122984300285,-0.00074112773306439
0.00690322266247424,0.0293938528067442,-0.00464740780243074,-0.000355905319714041
0.00162973339172139,0.00276936828970658,-0.00948864979404576,0.00101331096936877
0.00326044152802575,0.000599370930435821,-0.0242158623856512,0.000880226818724224
0.015534647683239,0.0304584785385992,-0.0403287352447323,-0.00165007698477526
0.0300491534226257,0.099869574738957,-0.051163242591229,-0.00545284249592884
0.0319692870447025,0.145677046270028,-0.0528051594373836,-0.00864998038396952
0.0184117712388434,0.111112143259196,-0.0409001436463166,-0.0095976314235557
0.00253423680156941,0.0377047734244416,-0.0224580421052143,-0.00783697514654654
-0.0142764440249807,-0.0149322729244842,-0.0166879729127157,-0.00440100742626499
-0.0382563172984127,-0.0456453338423241,-0.0234595648387925,-0.000814420703523867
-0.0570481481205182,-0.0667368411195058,-0.0253026609469472,0.00198527174498394
-0.0564595323891328,-0.0690860020332038,-0.0203797945363482,0.00375454102803091
-0.042511087815674,-0.048753193075138,-0.0161818198075579,0.0047402748412909
-0.0224195282494194,-0.0211608672214591,-0.0109201604417107,0.00498698783927067
0.0100466653533749,-0.00539754764700723,-0.00175859258068921,0.00421781118460392
0.0502689584880388,-0.00325378935212307,0.0081554758090084,0.00264457549031467
0.0725503763815794,0.00201532677523141,0.0112646752850541,0.000990659735673353
0.0616952911713158,0.0153300378180472,0.00357877394600284,-0.000219741183692529
0.0335624717524353,0.0317684145226787,-0.00947232411024295,-0.00081305239674609
0.0152587775938502,0.0519152547438214,-0.0171064253678728,-0.000801248858350531
0.0177137371022456,0.0699858006392154,-0.0111183343610372,-0.000400187840998661
0.0212481712681525,0.0678770378789338,0.000375397789206512,0.000233787049479173
0.000227999027665238,0.0293452013255463,0.00359365355352518,0.000676411606970373
-0.0398635237395006,-0.0315101962803166,-0.00234634177856127,0.000323781914660638
-0.077775474697035,-0.0621196995916466,-0.0117208201160658,-0.000867411739641881
-0.097489773647902,-0.0182693243531992,-0.0270850750040392,-0.00264591770702083
-0.0929321847651689,0.0596995667935405,-0.0524625235649245,-0.00463949945952806
-0.0729761432885117,0.101783497175388,-0.0711689365181608,-0.00610208389211998
-0.049075208422156,0.114777538872278,-0.0684881376509428,-0.00595589051348444
-0.0310653745987937,0.119782023643311,-0.0551981370504183,-0.00363029343532402
-0.0240706720315983,0.101592540685108,-0.0420467276041383,-0.000370604887741347
-0.0148284233552183,0.0647382614238189,-0.028473961143007,0.0021062908724294
0.0106549006312183,0.0284022266173685,-0.0157303628803752,0.00373900224341711
0.0470326212266967,0.00359924868494334,-0.00857976400054996,0.00427653268581364
0.0781443789557177,0.00216991497567263,-0.00860274371534735,0.00189062439977435
0.0894864615619518,0.0168653795930559,-0.0102909449415777,-0.00326415823710292
0.0758878689191389,0.0281712684194385,-0.00583232759881908,-0.00742185289542784
0.051368376377966,0.026689721432505,0.00487726760397521,-0.00749472798666702
0.0370491809797631,0.0116863032490672,0.015151124714078,-0.0037598523997393
0.0319531910932193,-0.0031969775729078,0.0196355489454608,0.00158501101386335
0.0218571896408229,-0.00634125152695394,0.0189981093154903,0.00613516976181518
0.00483222251858685,-0.00136752652215805,0.0154259164166332,0.00848415347600107
-0.0133235260675988,0.00501799635017753,0.00880734480531094,0.00856049818220563
-0.0342271013312294,0.00384022360475131,0.00277811938104645,0.00687373557304885
-0.0555106283384436,-0.0107608058457941,0.000106079114442385,0.00415961841754047
-0.0673125255392259,-0.0267740163660466,-0.00289926990661954,0.00216287808384825
-0.0714192183041452,-0.0293185997640095,-0.0070857072841794,0.00309750538524874
-0.0688834400607261,-0.0228654246955822,-0.0101870677642235,0.00713070140338454
-0.0532695910252393,-0.0155388276366238,-0.0148997562647383,0.010495556173049
-0.0348831523517385,-0.00736676994517568,-0.020808319182639,0.00804624389231037
-0.0266696973587794,-0.000791063625686445,-0.0214723226461948,-0.000307001430622369
-0.0229913283894849,0.00307906192073899,-0.0149499421916873,-0.00913269930718241
-0.0177652423824088,0.00688697295052753,-0.00559818881896415,-0.0137400556932014
-0.0109880937318576,0.00533305018565607,0.00289086272090588,-0.0134076266978441
-0.0026910708090359,-0.00380369759408335,0.0116908682907969,-0.00955877762582943
0.00801146521588953,-0.0123863975498977,0.018962846033722,-0.00399618245274863
0.0289620562675983,-0.012293244071593,0.0199455891955005,0.000978584891548475
0.0557010738930645,0.000857306995314756,0.0138971068468942,0.00340304659937335
0.0682009510886256,0.00440976623774995,0.0102880188926303,0.00319215172791722
0.0636269689814123,-0.0219936847213742,0.0180260186479115,0.00226838723274296
0.0532337932649806,-0.047434309961199,0.0255065426304064,0.00271783189450663
0.0406156740723421,-0.051066083350275,0.0226375006708961,0.00454945553967668
0.0249354681447412,-0.0510132662425066,0.0172400329749116,0.00613407368474195
0.0180736477004947,-0.0586541742269661,0.0159999576614676,0.00658050081446476
0.0262604984274094,-0.0660144836932052,0.0152205307826647,0.0062547006757699
0.0292636959656536,-0.0606210674011085,0.0107899540186966,0.00555266223403876
0.0155507023463531,-0.0472924000513059,0.00552692993992187,0.00437188002892069
-0.00310963276468158,-0.0347254590273993,0.00169317898733948,0.00252943838879315
-0.0296736663559857,-0.0126795752454144,-0.00271086256896108,0.000436137323410712
-0.0622502362942704,0.0113721344945551,-0.00698864584471237,-0.00122632221958226
-0.0639850872257076,0.00967394707506623,-0.00819806606599183,-0.00223969685864558
-0.0327223102683453,0.00701024859387675,-0.00882509989647552,-0.00298018176417718
-0.0114137189940504,0.0343760243791376,-0.0124335198817078,-0.00411823575824635
-0.0145709840005759,0.0480287049376052,-0.0128803828559122,-0.0053028718921379
-0.0235908938385547,0.0152485407233449,-0.00405785176392029,-0.00446335861889371
-0.0131963510062859,-0.0188454481299508,0.00485404254568837,-0.000606737813474157
0.0292516795211408,-0.0134407425810124,0.00374910545008218,0.0033466658730314
0.0800329322726337,0.00411456047485054,-0.00192639842384072,0.00370071354869376
0.100676448770662,-0.00331059969243783,-0.0030044639369275,0.000487744762944083
0.0885171836323588,-0.0222368047858537,-0.00216544838157993,-0.00349879598084426
0.069623496548909,-0.0275898678280128,-0.00424212427646401,-0.00589145088687216
0.0534656120806041,-0.0195893410008722,-0.00632274045913354,-0.00602054563529036
0.0343838205382586,-0.0060260115520039,-0.00577136604091624,-0.00465724745904263
0.0152834067777498,0.00076361508923278,-0.0026405162928132,-0.00304704387056834
0.00297481199019487,-0.00583112402073909,0.00029496657440365,-0.0020000177588494
-0.000461869910971562,-0.0144957589077974,0.00038621940381469,-0.00142741386923194
0.00121313896906333,-0.0120962473365373,-0.000888868499072154,-0.000714198066459669
0.00166446962844352,0.000296401754484176,-0.00230394195059755,0.000362990132228847
0.00120328030354986,0.00907402260838804,-0.00411389749573968,0.00149247800411151
0.00555073087941188,0.00896757844697341,-0.00480352215877482,0.00181315877034861
0.0148278591668372,0.00507978854292929,-0.00452735335077593,0.000615353242014955
0.0200888423772457,-0.000184839458347548,-0.00411974622392509,-0.00127461901701846
0.0164934057118652,-0.0031767123439097,-0.00230933767270175,-0.00251364967369408
0.0101053072087717,-0.00243416361268914,-0.000288495888787723,-0.00272132699890646
0.00685115366809499,-0.00146026228609391,0.000943068724093675,-0.00202638089098081
0.00607593705980929,0.000781649409827914,0.00266506275131746,-0.000823121492591146
0.00690292016500481,0.00573095567226733,0.00512965367895188,0.000307391073860278
0.01135391796185,0.00876379163712053,0.00613648326548727,0.00101373935100811
0.0166614032530644,0.00513383589588913,0.00653170696849568,0.00129528259900793
0.0186595880244585,-0.00521695283954235,0.00972758166918429,0.00121332766506105
0.0192458854890305,-0.0189658448950575,0.014496508900634,0.000769956893930034
0.0218954184221232,-0.0310586286229201,0.0173765996627521,0.000119530496848921
0.0278574581306423,-0.0350058533971163,0.0170789071682504,-0.000521283166903097
0.0343339831483004,-0.0283487813294309,0.015648440313905,-0.000837862900399776
0.0356826759450517,-0.0130387764514116,0.0111439886225975,-0.00042338984593704
0.029105576495968,0.00606089010336831,0.00163526366985038,0.000624624378648716
0.016455401804819,0.0239246129800209,-0.00946730172484773,0.00146006931944832
0.00385830835132572,0.0599623462161567,-0.0228366588422742,0.00145230083301523
-0.00277276619785766,0.108177348913839,-0.0326578794987077,0.000699669369580176
-0.00106385799693469,0.110873399912325,-0.0282116843710753,-0.000318633466274593
0.00840589760834955,0.0702069315792645,-0.0153970905347408,-0.000984355725317276
0.0215554956528547,0.0376172941598747,-0.0045925541467631,-0.00118191039150563
0.0355130973020754,0.0196369324244137,0.003110846191777,-0.00159439057232581
0.046980179000272,0.00675357264414347,0.0052411877378689,-0.00256195252370083
0.0405397750079034,0.0018095627688042,0.00127103618846631,-0.00317092686651676
0.0111568307540254,-0.0107044127383239,-0.00213208059820598,-0.00261886633558597
-0.013426957168947,-0.0382096084904758,-0.000553455452674254,-0.00093555622174985
-0.0126962945595612,-0.048177053929657,0.00683867666030565,0.00160233448420523
0.00529968447306364,-0.0313381721727225,0.0189010767587688,0.00415163803934396
0.0252260110055355,-0.0209784527223863,0.0302843973261985,0.00557001280361958
0.0318184442189573,-0.0311024561587695,0.0365669585492943,0.00518541982743797
0.0238832744360645,-0.0428270830970311,0.0387298080180021,0.00350666407459315
0.0219725338085477,-0.0424507043292313,0.0388682408569821,0.00206303664034805
0.0319234939467807,-0.0406338441515176,0.037801268872281,0.00186425245159073
0.0330189530950864,-0.0443880295255607,0.0364219437474084,0.00265759448115508
0.0188655868849477,-0.0387237645924539,0.0337547778828188,0.00361940598529518
0.00419330818530167,-0.0163703012996403,0.0280440147230186,0.00416892251645022
-0.00420198273081582,0.0106809961685589,0.0184346973377168,0.00401136914353078
-0.0111873301577055,0.0320078038293568,0.00541489774174132,0.0029670376384778
-0.0213181105900495,0.0472983247502409,-0.0105912981648376,0.00118175785176073
-0.0348997403911811,0.0531344758467708,-0.0321189511769051,-0.00107313205471328
-0.0445926864530054,0.052311353277139,-0.0512773317118154,-0.00362846622000209
-0.0336794612104851,0.0584463887456754,-0.0540275021831357,-0.00580423509865524
0.00766698133740765,0.0558328527516328,-0.0430901495011235,-0.00654244814384625
0.0651042727336673,0.0280755360455298,-0.0278103844109668,-0.00539156286722616
0.109692123600617,-0.00703372954937248,-0.011378691380975,-0.00280404743558674
0.12274017837462,-0.0316700648992818,0.00447160893989104,0.000178050955652332
0.0985809833438852,-0.0435966789709807,0.016013536390329,0.0024239841767391
0.0406232409005709,-0.0428020156246319,0.0179231048989237,0.00344322560964534
-0.0246550001163079,-0.0230939340383654,0.0138437429651385,0.00353880154831328
-0.0622714937239581,0.0184350792504103,0.0123240549655318,0.00297661182475982
-0.0631535437296571,0.0631772389318957,0.0165855830703504,0.00177905355932426
-0.0456138381259757,0.072082536037415,0.0285410821457574,0.000291473793733196
-0.0356232415764524,0.0379741240733091,0.0440772574587315,-0.00100205444558107
-0.0493622457764522,-0.00345235232189327,0.0508301226138397,-0.00184020354236742
-0.0726475175398188,-0.0427079403694665,0.0413190586374415,-0.00220773399311305
-0.0820483903485212,-0.103673946820634,0.0261247958111514,-0.00207187245154957
-0.078472749036834,-0.162310905358407,0.0197349112944129,-0.000881317576765477
-0.057416933378076,-0.161358659978302,0.0189268909558215,0.00198386367309045
-0.0188282157845962,-0.111407901778837,0.0149879568445224,0.00670781934166088
0.00395373975914347,-0.0649418669613087,0.00627006890478857,0.0118670960022952
0.0191347945966902,-0.0451813113310825,-0.00301202566103982,0.0138861436516701
0.067968852482034,-0.0403935839076283,-0.0108419958390215,0.0108082637796893
0.11529143738337,-0.00521227589047332,-0.0243367352837708,0.00445699248496078
0.0999578082229237,0.0827475588205112,-0.0411138171837264,-0.00259414717791242
0.0424380825573097,0.180126814771241,-0.0460940310508491,-0.0085628182240792
0.00461796640282879,0.216204275727233,-0.0346673786332352,-0.0124163814946644
0.0015068038678116,0.156914606435908,-0.0192168818023864,-0.0144901620304913
0.00949210295276245,0.0583264852591532,-0.00903007548590268,-0.0151746253111716
0.01299063969113,-0.0154125979234988,0.00409354621856944,-0.0138688694147455
0.00638110069865641,-0.064725339116094,0.0231084714560468,-0.0096507039018223
-0.00936188186915376,-0.0937914696350449,0.037729840388484,-0.00264633548863905
-0.0280894652524829,-0.0960164733983493,0.0429156899251722,0.00476589591185299
-0.0448137342138983,-0.0816333196666912,0.0406677451769008,0.00946844417626026
-0.0512218947016244,-0.0667863763446423,0.0347358326774006,0.0104302204427177
-0.0489005838952315,-0.0517950342317723,0.0268869240033953,0.00881889807533386
-0.0458687487599521,-0.0361817825893159,0.0188977334108781,0.00626033787693417
-0.0343627257138587,-0.0276688974416487,0.0137802655624487,0.00426148915504913
-0.021034163617347,-0.0133465628070974,0.011592408307929,0.00355515981519067
-0.0316038968473636,0.0240815842596671,0.00635573607507017,0.00316286555075765
-0.0621220756466615,0.0518431702049574,-0.00520458880742414,0.00153296761589874
-0.0903289313399154,0.0441228336326137,-0.0152990427515188,-0.00137646692976173
-0.093949078878761,0.0492538767078838,-0.0198902962249158,-0.00433222875201281
-0.0436317333495486,0.0849018623143001,-0.0209847578328093,-0.00669424994748512
0.034025209323452,0.0872003277553582,-0.0113439232532675,-0.00848690182437438
0.0649181649226452,0.0327326047833642,0.0102364110689933,-0.00910281742869916
0.0431279081043912,-0.0208829853988818,0.0279130664004491,-0.00770437459755097
0.0316429318280899,-0.0329131790266648,0.0344322243830956,-0.00452710603836905
0.0450789306205494,-0.0155815094940836,0.0337521489144832,-0.000890310644692853
0.0346394555109691,0.00342516260337686,0.0278743247664764,0.00145316007835558
-0.00138947381889023,0.00488603702665454,0.0207039913508418,0.00140995461427635
-0.0210118485496323,-0.003290553563008,0.0150548839041536,-0.000824272075850601
-0.0198843730941088,0.00175487863926698,0.0103185626213839,-0.00424145959157676
-0.00880905578952695,0.0170405519617751,0.00856818186513769,-0.0071269646059356
0.00415679912190648,0.0247559580654895,0.0103656423475458,-0.00763042553988143
0.00238707257024472,0.043542011878541,0.00792069056361696,-0.00543501099904349
-0.00599201186353378,0.0834335939609138,-0.00377128805744489,-0.00191293489003396
-0.00732572589485075,0.0976084327087653,-0.0171566971721026,0.00134762914652416
-0.0062342551146843,0.0641302382433799,-0.0221269718738217,0.00347655616466404
0.0026271623623521,0.0186963895711972,-0.0145255009681151,0.00498535212725841
0.0150449756786623,-0.0103928817215726,-0.00166094377732656,0.00672700884059501
0.0073897801818708,-0.0234284536616614,0.00683627987708535,0.00789851585752092
-0.0134716804429371,-0.021859221475398,0.0123550641878056,0.00710820687849993
-0.0292792512235917,-0.0053629314646584,0.0137542535351322,0.00419758822306314
-0.0436942145108484,0.00804072946587836,0.00998110744141643,5.93732045089355e-05
-0.0426666793365544,0.000362836529437178,0.00976248584602711,-0.00351268317461548
-0.0191085074997227,-0.0147282178341398,0.0153266796749035,-0.00472190522397517
6.59887216553287e-05,-0.0171075645159889,0.0211552427781634,-0.00374331411274413
0.00526358273585067,0.00097279858851099,0.0224663694978319,-0.00210037906059371
0.0120403039560931,0.0459376977091214,0.0172225360650019,-0.000865289677475142
0.0330981046556175,0.0980085333196847,0.0100096146187194,-0.000450300404711852
0.0591214653087439,0.112035657383766,0.0087521369226603,-0.000657161743349761
0.0703072947734331,0.0772243393524709,0.0142182917754642,-0.000499736689269689
0.0669938908516282,0.0273286787453988,0.018959607493605,0.000751561416823726
0.0532356780494703,-0.00779600759429996,0.0181008455603909,0.00249851309341623
0.0293802400476573,-0.0214499297817213,0.0140634000578678,0.00401412656060807
0.0128299526369985,-0.0236666448963265,0.0120089052492968,0.00539586797934547
0.01133536231348,-0.0244909280334731,0.0129122554016735,0.00668853642103817
0.00628819684711795,-0.0253431556449595,0.0131017715182464,0.00707730133659971
-0.00369713716191624,-0.0314925895936962,0.0100779270784485,0.00573051888516322
-0.000343223568350202,-0.0453421273253139,0.00350244820775808,0.00325193743680862
0.00331574249444029,-0.0432853264917813,-0.00824603999248497,0.00131788958411778
-0.0200595127524654,-0.00689464618404051,-0.0219266650865114,0.0009339992853312
-0.0482507798245749,0.0305402789787013,-0.0275156615489617,0.00166420943945916
-0.0356597884287649,0.0385115963274546,-0.022083163343661,0.00255095317374653
0.0177973982467837,0.0235874798220859,-0.00948496567613734,0.0027674218826917
0.0728652340569618,-0.00407029345995664,0.00552434343050052,0.00205596349001496
0.103595003269711,-0.0275903901149827,0.0123789564108013,0.00127464208514327
0.111283069235519,-0.0406275080175769,0.00839790625404768,0.00122957955861662
0.103011286158509,-0.0437461125621784,0.00834459433750569,0.00158824734759029
0.0848919990419974,-0.0254933802545197,0.0194856821077554,0.00164739102729101
0.0584102789192381,-0.000745368954366901,0.0307086544999418,0.00123996043397638
0.0147365851305146,0.00402654978999602,0.0295328711103486,0.00128527530855458
-0.0470602771961174,-0.0118511077383061,0.012382844525703,0.00272547370552562
-0.10199353528614,-0.0178452230992022,-0.0134814680065905,0.00444487023485886
-0.123074128030224,0.0157272609706355,-0.0344327476768037,0.00425719895562922
-0.107195693231151,0.0457370257779118,-0.0429836231344463,0.00149124700525337
-0.0696288704306873,0.0107737291548928,-0.0391123962381203,-0.00304568888864049
-0.033429475597758,-0.0541351465591362,-0.0242490872835045,-0.00830727084815445
-0.0201731261876113,-0.0796678200365615,-0.0086203346669679,-0.0125189316585675
-0.0191307207373056,-0.0759010432052703,-0.000888325666468168,-0.0124775677028661
0.0083720396607429,-0.0769805108989767,0.00243128506694658,-0.00633804154649405
0.053529591196111,-0.0626090560874355,0.00096633609121154,0.00303764529656581
0.0736713102992346,-0.0251551490809995,-0.00525759203809134,0.010628183220886
0.0712296513729559,0.00782088145077321,-0.0112889413380604,0.0139308921861231
0.0648557961070567,0.0257511893974084,-0.0156753258947383,0.0132303524554765
0.0487416778591298,0.019043400785994,-0.0157647591719065,0.00989504616445867
0.00979217900916159,-0.0165967465736013,-0.0105343135827178,0.00606455903860905
-0.0430613753892835,-0.0528612913868371,-0.00831406149704886,0.0035720007308202
-0.0717185171094212,-0.0592135979609166,-0.012473911496142,0.00187670882051633
-0.0676570962517183,-0.0527510305060817,-0.0126718158562079,-0.00121758153911337
-0.0516653183225672,-0.0709957735292142,-0.00506792361801233,-0.0059723860230094
-0.031040542942685,-0.101179769845541,-0.00109194884796233,-0.0102723632059014
-0.0280797957893687,-0.103044844165937,-0.00698335045238517,-0.0128879256156192
-0.06356141303957,-0.0654024252937936,-0.016564410439063,-0.0132152807406306
-0.104299921853269,-0.0135595418831323,-0.0259038746281595,-0.0101031370956193
-0.100567397552845,0.0101044397431726,-0.0341924748364283,-0.00531588200907911
-0.0653296758437114,0.0117482463617985,-0.0406654935878626,-0.00338598822517479
-0.0489994776355584,0.0440123359627629,-0.047499004929141,-0.00654905048467702
-0.0410449239119687,0.095585426096937,-0.0541832717475776,-0.0131808065671739
-0.00677498431211722,0.0984814274351167,-0.0534485002383194,-0.017434603601592
0.0216734339577146,0.0509382710167933,-0.0456414973671898,-0.0123376520919474
0.0272555849257446,0.0114658006564492,-0.0403540859585021,0.000748580538159307
0.0527630424816543,0.0127448143193198,-0.0407038166377998,0.011398071395317
0.0786212488931179,0.0387211679902089,-0.0440621893642233,0.0123422316843038
0.0480640370255617,0.0467648780082107,-0.0445459196291004,0.00645384533450988
-0.0174222400284827,0.0273273487254044,-0.0375618911140527,0.00099833797415959
-0.0529793345919431,0.00147800769038874,-0.0273641827053635,0.000179758396090737
-0.0273705708907249,-0.0157583365223316,-0.0200485253119553,0.00296852988197081
0.00836119792745275,-0.0137463002702994,-0.0154195703300725,0.00528858887872496
-0.0105029045101609,-0.00986067478590533,-0.00988172931506335,0.00484570890741262
-0.0528741467655592,-0.0258989272332895,-0.00253369060260247,0.00323498158883434
-0.0675378948239395,-0.0414863964708056,0.00108062372883101,0.00209139403033397
-0.069176717150772,-0.0383468756117423,-0.00261819528143683,0.000368663494865073
-0.0726879739789292,-0.0328417857428548,-0.0095304272827027,-0.00319476919958549
-0.0687491135576921,-0.0406833358894677,-0.0146121947778471,-0.00793738538035674
-0.067443876387048,-0.0528338559985129,-0.0144025570502204,-0.0116170330397872
-0.078627651426744,-0.0504134101538405,-0.0106703618743783,-0.0122683971206794
-0.0905609094474317,-0.0323818796475776,-0.00954512152906874,-0.00987498774004177
-0.0822213607123305,-0.0138191335668858,-0.0147016933094951,-0.00601142679588057
-0.0473797430967088,0.0176689798445852,-0.0244870277051748,-0.00278169500927614
-0.00118798418860661,0.0936369403604652,-0.032878613434226,-0.00157954554683616
0.0447735487811964,0.179229607754885,-0.0339872718715466,-0.00227316522644402
0.0795955265074664,0.202557606157778,-0.027194187841963,-0.003658034281599
0.0923217469724263,0.157684272870506,-0.0193870706846206,-0.00437448995423387
0.0743867024932799,0.086770625608993,-0.0142785186929972,-0.00323174133336394
0.0269627230329192,0.0294451658096525,-0.0101645089568054,0.000618550782145541
-0.0124873051669932,-0.00439606491531766,-0.00694474481886263,0.00582707489490725
-0.00226837415268395,-0.0362770223481648,-0.00379178898386983,0.00925390984332848
0.050161755264006,-0.067611432630639,0.000547372935811206,0.0093881386228533
0.102763417973178,-0.076124087131038,0.00945740504149681,0.00697263120433709
0.143012345125888,-0.0654934222203082,0.02362738888337,0.00392281199740327
0.162317287260161,-0.0664476311099993,0.0366133308168375,0.00231204551476949
0.123382101540001,-0.0853429951968896,0.0429533312362446,0.00306550140003384
0.0518173208220759,-0.0879014883866776,0.0430316312346864,0.00579834696334245
0.0130147068616457,-0.0580427087789774,0.0396792199676428,0.00909365384091643
0.0140813923211044,-0.0308867855809362,0.0357352645735888,0.0108231651996521
0.0381066601367174,-0.0254125380207145,0.0337852547748115,0.00907944200840845
0.0710614576221573,-0.025484848843151,0.0368667968822104,0.00342392964770504
0.0754903599223462,-0.0336624861666636,0.0476999039760108,-0.00378345407712001
0.018331969425686,-0.0544722494661156,0.0578150582298417,-0.00775406772937816
-0.0792383055051415,-0.0557153141312688,0.051842444676924,-0.00564253018725925
-0.163400558931855,-0.0121796780780791,0.0284934960088058,-0.000830215422484369
-0.194731551380385,0.0368921939506412,0.00311163791139908,0.000851908357526789
-0.163383583621723,0.0541420602910408,-0.0148554715843771,-0.00110626625894036
-0.0835693407357518,0.0698322480269205,-0.0361829890600518,-0.00299734320697736
0.00177756359520137,0.0908941570501525,-0.0683212093330961,-0.00353903219819764
0.0478700293713417,0.09554267777218,-0.0880663031964234,-0.00368585650396358
0.0568200114413568,0.0957163107620928,-0.0674123645680016,-0.00302454994751278
0.0580366713332968,0.0718782829083064,-0.0161648785527995,-0.0001249742126477
0.079550475140005,0.0121413536172613,0.0308553408802505,0.00477293462157368
0.110674820672424,-0.0438413276189488,0.0551841578124741,0.00924403929226479
0.118625685416565,-0.0749319963117333,0.0621020569194624,0.0111195785054302
0.0862001046169117,-0.0806340081747642,0.0604559436844443,0.0102235550111906
0.0252835090825421,-0.0719272310109615,0.0520751571766224,0.00784534069944315
0.00723376862253462,-0.0667542332102597,0.0401704614075505,0.00544426292681908
0.0483202703318763,-0.0650915473294875,0.0327417922666534,0.00349824086559406
0.0746861191205824,-0.0589695592616972,0.029117191847347,0.00143174518394379
0.081293685889945,-0.0420359673457732,0.0222317375418301,-0.000952791175070863
0.098901820333324,-0.00338986080273477,0.0112093511542032,-0.0026781058517757
0.0935471320968947,0.0465560147014462,0.000926367391938576,-0.00274106594222605
0.0423499571709463,0.0653808341597646,-0.00224456963264688,-0.00149342467425263
-0.0178044705940767,0.0444851440627548,0.00371451789667129,0.000324080440421478
-0.0511460764735303,0.0240229522390995,0.0135823479612384,0.00246148920047194
-0.0702242225458905,0.0148183932432952,0.0192963375174201,0.00347964665684558
-0.0961254903909324,0.0052842897517682,0.0154084918704885,0.00146546311938611
-0.131175261888897,0.00771817781333375,0.00556464794442774,-0.00274740359147193
-0.175920727102256,0.0217860034391795,-0.00324119329961187,-0.00621167374101616
-0.194034299514066,0.0129419382592675,-0.0107984898466572,-0.00722419148644677
-0.151965587458748,-0.0208594716412402,-0.0147939904181074,-0.0063225139151488
-0.0941068339090619,-0.0456651957270277,-0.0104201480972017,-0.00490158650088042
-0.051744530198758,-0.05524849462699,-0.00219455656190327,-0.00346401890916938
-0.00300308838575532,-0.0462617259791238,0.00395727095242814,-0.00185358110765165
0.0513780640209212,-0.0180669792556136,0.00611331325748293,-0.00111278092478448
0.0947300503708218,-0.00586873802486594,0.00419789584638682,-0.00310424432669563
0.118276706519659,-0.0186581305795564,-0.000889342017499357,-0.00679687338821066
0.101437340735691,0.0100971041773664,-0.0143225995479627,-0.00747046244920148
0.0437002274698652,0.103283863105419,-0.0320777084844625,-0.00294847582232855
0.00147012936362431,0.159011604890295,-0.0313747275113331,0.00308141293505026
0.00268642809133577,0.122865907083859,-0.00567989392276013,0.00662308778906312
0.00801846189122853,0.0650807248250921,0.0215202532399662,0.00801177798875019
-0.0175915701895604,0.036624925992388,0.0315034726390966,0.00975495184587429
-0.0691625121814388,0.0174342129481945,0.0266641777777416,0.012263575930965
-0.103938513260359,-0.0214580626116979,0.0179551287489986,0.0122286152858486
-0.0864447231006952,-0.0797834791767664,0.0151536900881221,0.00644776497985035
-0.0366580534687686,-0.13326244851162,0.0180795666874589,-0.00162951935935675
-0.00716917004154569,-0.15007541359645,0.0199094295549077,-0.00389793697107241
-0.0176780613567543,-0.132237976740062,0.0204874258286873,0.00155616386580277
-0.0292070422132343,-0.129998916449596,0.0248608725774013,0.00811204990489333
-0.00264869915831616,-0.151582908387289,0.031468993607779,0.00943370510727905
0.0211112212682844,-0.130016412234757,0.0273185869496854,0.00444319050399087
-0.00294881821726985,-0.0283362249791073,0.00946904377058413,-0.00375832109413683
-0.034425283551188,0.0960900557984534,-0.00792929884480249,-0.0104454428786832
-0.0401670011939573,0.147822101043833,-0.0149530990460058,-0.0139464692710957
-0.0296348084138746,0.110177409754979,-0.0142674818623583,-0.016873275162925
-0.013373527127588,0.0721335520245681,-0.0143835907773213,-0.021042047371131
-0.000112386653524629,0.0959436754636649,-0.0175988151645131,-0.024266257384958
0.0185438396812188,0.135093058438171,-0.0190210465723986,-0.0225859663233985
0.0325286506783194,0.119935539838294,-0.0154817432134477,-0.0138355897293351
-0.00277726119322463,0.0671938458183975,-0.0106752005863502,0.000394153144612761
-0.0749578896558266,0.0338256371860097,-0.010799739961153,0.0149801828824099
-0.118530593090793,0.00666643714204923,-0.0137735207894544,0.0248066831218592
-0.101655001509972,-0.0470241902075767,-0.00935821849970139,0.0281256906073957
-0.0403019073886134,-0.101963407636614,0.000568077138587569,0.0258155830632447
0.0134896851482626,-0.118963910997599,0.00520486136418039,0.0195295098465344
0.0149298641772887,-0.0950273244756521,0.00498389942649086,0.0110810274141207
-0.0315136119301173,-0.0531651800852019,0.0060633416540283,0.00329276937008732
-0.0760989017081839,-0.00130382044708605,0.00419246788661833,-0.000678482562633571
-0.0740548860600359,0.0713519381532405,-0.00966831427628346,-0.000834034069175659
-0.0464821158893492,0.128595637539148,-0.0253819923492776,-0.000784372110059014
-0.0205763232908569,0.10993370882567,-0.0284109838663292,-0.00425483047242665
0.0261844374177646,0.0466062524355119,-0.0234818062618314,-0.0119408265817734
0.0946407234899607,0.0213820112553335,-0.0189792618941935,-0.0206250267494185
0.130571895983834,0.0405118597468013,-0.0132748896381154,-0.025767287058637
0.0975153410396515,0.0456515292307194,-0.00292388471119069,-0.0244296168716619
0.028915718584587,0.0151719079676486,0.00562020456629113,-0.0162312586190257
-0.0331680634589047,-0.0265766457479004,0.00312320910279873,-0.00408207658201463
-0.079958826803974,-0.0652712219488294,-0.00812122182973258,0.00684434850132092
-0.0993849976329158,-0.0798677403631588,-0.0170810249832894,0.0124950524671934
-0.0873033505034903,-0.0342886603805898,-0.0219432867124047,0.0125481838468148
-0.0777555307623842,0.0529472369096354,-0.0300102945239336,0.009106575575133
-0.0881309792067336,0.0931070028800013,-0.0390077701749051,0.00399390535468552
-0.0784804198070816,0.0568194725860442,-0.0422797903538493,-0.00101824271268514
-0.0353312394295309,0.0255433561012685,-0.03984290245058,-0.00365651717210379
-0.00145444420178338,0.0499147727023164,-0.036077327976176,-0.00339764593997241
0.00966278989796571,0.0964995931803072,-0.0331127182153887,-0.00266337954551408
0.0116781679194151,0.113914179006266,-0.0257344702789826,-0.00447672017617821
0.000659585792318618,0.0936228028349507,-0.014178526630116,-0.00964196825609402
-0.0147217933892389,0.0736412376168705,-0.00522141689834883,-0.0148093751911192
-0.00957173263561073,0.0639131329123593,0.00221763881071693,-0.0136386653416471
0.0105573067305845,0.047798683754762,0.00989065201905844,-0.00359710271436684
0.0194097608821273,0.0211401639010541,0.0148691932319202,0.0091889050427853
0.0136824428821272,-0.0137036921979218,0.014603590473465,0.0162463891313893
0.00457358994960054,-0.0428639166134185,0.00873353889209801,0.0154848600268224
-0.0031959228931953,-0.054119913095179,-0.00325744695304544,0.0106126668699409
0.00357023140539949,-0.0469390376714614,-0.0217878937757759,0.00577333997202647
0.0297849696696206,-0.0277502017246894,-0.0372081489114541,0.00258169938153579
0.0461672320311024,-0.0144938124374018,-0.0376010514023797,0.000547374039098436
0.0368587595117991,-0.0125000496697282,-0.0316202078157777,-0.00159046498067512
0.00927157862391465,-0.00565102398985194,-0.0331816440183426,-0.00409378905952659
-0.0285807359427784,0.0118964748228133,-0.0389132971093497,-0.00541049997743887
-0.0507426122748375,0.0329130226494596,-0.0432193177103346,-0.00496960326517848
-0.0385399408108529,0.0502687165883124,-0.0431157946771739,-0.00433228727670755
-0.0126200731483945,0.0464017482091331,-0.0300513232681125,-0.00419181957532025
-0.00270628280216144,0.0282496342410047,-0.00882517093657779,-0.00272988455540607
-0.00915672257429376,0.038399826347492,0.00103276234039624,0.00105560841874752
-0.0224632651851213,0.0671908280501678,-0.00195532774510665,0.00447702459115648
-0.0389697198001319,0.0614789731080876,-0.00121168155455238,0.0049798152180758
-0.048581152805216,0.0107313827953399,0.0140092705512619,0.00350981418173295
-0.0531157893796534,-0.0448314997671438,0.0297915418354604,0.00239459409163914
-0.060041541247909,-0.0709757785597744,0.0234462269722554,0.00272209298609208
-0.0594535340838128,-0.07559096048463,0.00207170964219617,0.00390448315433193
-0.0370210903421359,-0.0732346639506002,-0.0123102881154137,0.00436787488867906
0.00150863715578365,-0.063971721570569,-0.0131317887838137,0.0028129505460341
0.0205835034392955,-0.0542013369015145,-0.00503839937639215,0.000230925676211656
0.00746025763565729,-0.0466215541186736,0.00212184895225386,-0.0009140672371855
-0.000146987908589514,-0.0256026326100004,-0.0036324402388629,8.90988462497111e-05
-0.000195521689025824,0.00438730567113343,-0.0221639394516609,0.00199032639210737
-0.0207619166699884,0.0286224604627031,-0.0410791784655768,0.00381373376027248
-0.0291604098366562,0.0768182796597482,-0.0526446983390357,0.00539522615321779
0.0103141375438242,0.159000121096978,-0.0534901281970091,0.0061850999434766
0.0606482953395277,0.211833312652319,-0.0442753592492337,0.0054579753542416
0.0718631431905476,0.191179587947719,-0.0316139705231131,0.00334192709026438
0.0385434883487736,0.127039363759559,-0.0203362367539449,0.000893293968974791
-0.0141235828328744,0.0549130474638702,-0.0136340660118885,-0.000726369912072792
-0.0422634288575521,-0.0183414237224104,-0.00947588617407032,-0.00145657038543396
-0.0236874868225788,-0.0722043203705723,-0.00248499503449585,-0.00204095661921805
0.000867074847550491,-0.0780560410347366,0.00401378473349946,-0.00286807052633887
0.00630517664978991,-0.046213118226891,0.00542831012687167,-0.00363791194302883
0.0229608860875012,-0.0329768676449265,0.0096397808868933,-0.0037334005616212
0.0541657156866128,-0.0648485284352832,0.0165186740171014,-0.0025858052137837
0.0586174247829691,-0.0997728033904505,0.0102027819437961,-0.000440716519442039
0.0156240225287592,-0.0976409618915068,-0.00611478769159602,0.00109635898611811
-0.0405275194562112,-0.0534301120639539,-0.016895695582894,0.00114383239114128
-0.0628414966524865,0.0124154326813623,-0.0192418710256549,0.000525847556281078
-0.0496570395020432,0.0653117141718957,-0.0129920899154268,-0.000143693359237094
-0.0357787555216545,0.0891007057472047,-0.00279469795874929,-0.000783025774504212
-0.035746496245905,0.0903524115126536,-0.00067281959882068,-0.00139434569663235
-0.0284940543452064,0.0784635212125049,-0.00598258361003782,-0.00264540780527216
-0.00898800200937304,0.0647420883080749,-0.00349541037452726,-0.00467364593146344
0.00639052085955974,0.0597811886190598,0.00765259607399839,-0.00551546427584146
0.0202104377756818,0.0573788847095394,0.0129438176976302,-0.00344621275751721
0.0356872195953703,0.0349276384210133,0.0113233023689247,0.000398474153213903
0.042799253835596,-0.010419082667328,0.011914961912706,0.00374682923959868
0.0316082245550038,-0.0484088341290301,0.0145264272669164,0.00613926320408585
-0.000162333719288438,-0.0483755203597057,0.0122653952315387,0.0083351342191794
-0.0282216900572001,-0.00915462167013711,0.00619848000878988,0.00966847844398347
-0.0220788607697293,0.0273421932407185,0.0063827689677417,0.0087417972978204
0.0145270279782794,0.0291764872401247,0.0145949600325967,0.00568422016824917
0.0591400762095386,0.016063993474192,0.0233364649931579,0.00189513627591983
0.0891609711453305,0.0138018489026994,0.0286250800270486,-0.00185339703504881
0.0831272531570557,0.0296861934895048,0.0275396144049957,-0.00630264474946041
0.0440225971317195,0.0611676451737438,0.0220979509979064,-0.0122684647885311
0.00418934192033101,0.0869667232534035,0.0239929679739262,-0.0184937764509233
-0.0153383706498815,0.0753357842917135,0.0401443682659292,-0.0210513940785694
-0.0220400084294033,0.032618429064582,0.059588870763822,-0.0174333252071663
-0.0171798797466955,-0.0125457226178066,0.0691744170149236,-0.00999455877184547
-0.011469738323215,-0.0584526601392913,0.0698650520021766,-0.00138796418452486
-0.0377820160294655,-0.105142709750614,0.0640983319744077,0.00802217156351217
-0.0850121863872452,-0.130673711305159,0.0554837840109405,0.0161984879255579
-0.106236806787256,-0.115870194713226,0.0538712014885104,0.0201814057991825
-0.0847087203237024,-0.0723532361071151,0.0588931651350759,0.0195618193670469
-0.0410774113443415,-0.0332926169338949,0.0596100152799558,0.0153932826157677
-0.00653128136479454,-0.00210591732105141,0.0513880046295229,0.00887096658446921
0.00231828711998056,0.0415610827376599,0.0401305714506297,0.00173208274475054
-0.0200119898376505,0.0807744521995955,0.0325925743531474,-0.00382780574900955
-0.0490094790614587,0.0794051363079933,0.0315456118947148,-0.00637814558337849
-0.0277528724736967,0.0303576206950556,0.0406694292934718,-0.00644014376536335
0.0517929494667982,-0.0313685048976984,0.0588310439896167,-0.00587769148979274
0.142883224817994,-0.0646067707934115,0.078632609605552,-0.0057999536594673
0.195695915321098,-0.0763237451438143,0.0929535714756687,-0.00558029990718665
0.178320945870013,-0.0823684429879647,0.0972017466620863,-0.00469236207300475
0.111375305488997,-0.050066402907768,0.0899170835172677,-0.0041936009787569
0.0329755948158977,0.0377761173756103,0.0749484025696054,-0.00512948784786333
-0.0313381728806234,0.111999971866844,0.0667516844121899,-0.0059817524229972
-0.0558474660015306,0.10846988551409,0.0737030762741552,-0.00381569496592868
-0.0526916835113669,0.0600085691643063,0.0799203543306445,0.00160287755896815
-0.046532431185984,0.014595502087207,0.0703172060081423,0.00649911774163091
-0.0334592433460326,-0.0231876794948647,0.0577223087554689,0.00705321258504963
-0.0204771499108786,-0.0650324210189464,0.0597871559105908,0.00438725556558821
-0.0320684913744283,-0.125964173517977,0.0699578568961609,0.00259990930864058
-0.0658150791390643,-0.188031556295746,0.0730287249033708,0.002979775010589
-0.0671695085132861,-0.215671888995158,0.067927894922823,0.00359569078313899
0.00652537618639465,-0.177978977291405,0.0524163316340386,0.00369151985379996
0.0930098530661646,-0.0525542247247639,0.0204179326139354,0.00446435949175983
0.117419433924568,0.0940769446288097,-0.00638132443108561,0.0046356554892511
0.102474431586105,0.141546680228908,-0.00129890245907185,-4.30992897868712e-05
0.0673531343477096,0.0798215895104423,0.0220829700246083,-0.0108406148923205
0.00802486397451083,0.00931311515106333,0.0333724534969547,-0.0215578755383109
-0.0335522154757725,0.00585448072058686,0.0283248440213972,-0.0239172644137099
-0.0454969011304655,0.0737539962004296,0.0178063499459959,-0.0175437949417958
-0.0743119271788079,0.1472814669769,0.00549992156026152,-0.00850465593101762
-0.0960124699190687,0.141711469283558,-0.000607239476138881,0.000162751546818635
-0.0502623145692658,0.0584775679642615,0.010914508280257,0.00852114596624796
0.0278324065661049,-0.0391638936730833,0.0385058901705864,0.0142637295070585
0.0860604093413701,-0.111600321224851,0.0677068603953048,0.0149782776932324
0.101410761149956,-0.135200266221186,0.0807475129812161,0.0122883146551153
0.0514405455653081,-0.0966314525831462,0.0719138958562352,0.00888111810448915
-0.0370433403034447,-0.0287421299372466,0.0546633652289477,0.00490156217152253
-0.0990581031828059,-0.00240633616560583,0.0445273361373772,-9.55118985424708e-05
-0.10675495085061,-0.0584206846761402,0.0467296490235767,-0.005236188425165
-0.081594216245285,-0.154600408418691,0.0564082365361397,-0.00955164099235551
-0.0455407582715463,-0.203096428824353,0.0594995643350943,-0.0117337595034242
-0.015633251803849,-0.169169120260261,0.0445460335327232,-0.00977220752397683
-0.0215017569731564,-0.0993462818635578,0.0133021471098502,-0.00373310859651663
-0.0699805664153915,-0.0411229939491127,-0.0274423455106137,0.0029675885024477
-0.129359279793491,0.0173741906553203,-0.0665231439597487,0.00631314951525434
-0.156535764092691,0.105363425628406,-0.0867596747269465,0.00543455603075792
-0.130884250398355,0.185408899171588,-0.0819059913565315,0.00285826483786514
-0.0749883756904284,0.183398197895789,-0.0602110281349324,0.000518722753714401
-0.0277617280219234,0.146270075969108,-0.0396896871421069,-0.00209045931544891
0.000806813320760408,0.18493952462969,-0.0357399001969492,-0.00594619346662843
0.0282644686666542,0.238516592421156,-0.0400385418151199,-0.0105284037921404
0.0555096305874481,0.178645363128745,-0.030918072489424,-0.0136014946605315
0.0640088762334589,0.0499851012592359,-0.00905970588140818,-0.0127268816375527
0.0548052758745482,-0.0126358759667932,0.00281428487490525,-0.00750569807312682
0.0435462848023947,0.00315782094719849,0.00618249168284895,-0.000331288177540977
0.0305302210903116,-0.00138120519314083,0.0223224383316986,0.00668182520990859
0.0178324605991966,-0.0527065974220321,0.0425996822182158,0.0133281864732525
0.0177981329216733,-0.0887554490570719,0.0454638229303356,0.0186685556128343
0.0257005636671802,-0.083623598081733,0.0336217208490059,0.0207006491494205
0.028777972832445,-0.0691443469863892,0.0202198472427385,0.0188161330094783
0.0301050566697104,-0.0827535327047811,0.0192446480885587,0.0146207188525635
0.0353985890153988,-0.124026870862302,0.0339902099036336,0.0105871782641757
0.0175526345285567,-0.156113845823423,0.046081517850433,0.008405534757857
-0.0561916025452476,-0.150274248385449,0.0416304585897036,0.00771559906528999
-0.130936474890605,-0.119722450954999,0.0286005293592926,0.00711501889657073
-0.126198680001592,-0.102783574164013,0.0207589790609123,0.006789065723104
-0.0819957006874752,-0.108874961449391,0.0159381697797149,0.00723402116190579
-0.0687073558164918,-0.097060211071593,0.00078863215533774,0.0059982872952775
-0.0761868342454712,-0.0257519673217352,-0.0210140077893463,-0.00157162035346196
-0.0944892456968034,0.0690814083128206,-0.0336070956548845,-0.0162536321541641
-0.11169536169471,0.153836206174778,-0.0440341771401308,-0.0302393553829291
-0.0645905870915051,0.248215811918188,-0.0608031528387787,-0.0343950449628743
0.0780318062137773,0.318125871551704,-0.062538588031926,-0.0278535074369417
0.258184658272843,0.27537360512384,-0.0362870435032079,-0.0157891563025826
0.379127625080504,0.101139064711454,0.0037349961597329,-0.00357446261816383
0.38391152939184,-0.0726516498477899,0.0396448728745451,0.00543706454046004
0.284637596942376,-0.108167844072638,0.0516626576591476,0.0112244269529372
0.153604265755985,-0.0086425958971254,0.0324983824518288,0.0163379676042806
0.0659416828284083,0.107177353287832,0.00611791168061343,0.0214930655910232
0.00591300422260413,0.119552773537364,-0.0146978386632427,0.0241801970965935
-0.0946441668495504,0.0561268253973685,-0.0583485584971245,0.0228282261988363
-0.228284960786312,0.0122097237526219,-0.116050343269744,0.017915290226607
-0.270061637162266,-0.00508024333467944,-0.117566406554732,0.0104185080035694
-0.123950031566085,-0.0273697136531372,-0.0520813971541208,0.00379228500258587
0.0905835530751528,-0.0632937224402279,0.00961498338993291,0.0012088536365416
0.181222521160564,-0.0903095838578715,0.0244910372324631,-0.000494390723493577
0.129989293969653,-0.0825625623025217,0.0148584797937854,-0.00591492069431695
0.0277352819178565,-0.0656217272627732,0.0147477007564287,-0.0143023557760811
-0.0601849577960484,-0.0774261171318255,0.0263587991038885,-0.0216828626913368
-0.09286902011085,-0.0971737465675868,0.0302507317874894,-0.0235915206592691
-0.083958862580264,-0.0767677334518522,0.0170559556314208,-0.0176498195703991
-0.0678949828212053,-0.0129542271619794,-0.0018395567572641,-0.00791457252693376
-0.0206079228933544,0.0384076692723491,-0.0107201469006821,-0.00303150919490839
0.0541997172383405,0.0335652154778289,-0.00365370875616973,-0.00677671801959377
0.0991188812524751,-0.0015072233266826,0.0122979054350184,-0.0128458449848758
0.103468479309191,-0.0206546263723005,0.0186898376633733,-0.0124615754833769
0.0890699163608865,-0.00566975949084257,0.00516718041332087,-0.00501511594769751
0.0678970795095251,0.0253082028144181,-0.0151436423936624,0.00266970736577167
0.0699496557358824,0.0267297378507799,-0.0220203382372377,0.00581942182085881
0.0887338633869438,-0.007985399236819,-0.0183119211230195,0.00559009563495463
0.0473058600230358,-0.0300429621156646,-0.0270104623200778,0.00510862428644464
-0.0337824366385133,-0.0154810111340201,-0.0448761327156814,0.00488532203724136
-0.0604471696272149,0.0324410846621316,-0.0505672013761533,0.00276528432873822
-0.0682583423895672,0.108120257833486,-0.0480863856922611,-0.00129613912563239
-0.100834449745679,0.156452937481735,-0.0400394180728815,-0.00427574109006169
-0.0850674244987404,0.107739586326384,-0.0181910920234735,-0.00363683051453581
-0.0105922944582968,-0.00459539552971791,0.00409688890017578,0.000475261058187768
-0.00336868391530222,-0.0573560664215052,0.00571498457498616,0.00481303887206355
-0.114773985089658,-0.0208906768723521,-0.00873491428450338,0.00582830592467486
-0.208070402363968,0.0018484874516238,-0.0175273607947747,0.00307464290299961
-0.170273977419459,-0.0144429137514576,-0.0150629054989136,-0.00137475699301268
-0.0594929631352164,-0.0467089557353443,-0.00576933524089403,-0.00557090285289235
0.0383255576262426,-0.129145629569044,0.0103406707026196,-0.00799551015703229
0.0816102865433964,-0.196049015035255,0.0270391503635941,-0.00752228963869495
0.0572523449696963,-0.153977166125116,0.0357545678716322,-0.00476902696250447
-0.00239399041088657,-0.0678243386026862,0.0295647308727152,-0.00171248793259013
-0.0242137696246572,-0.0433689014806861,0.0136597285470663,-0.000389880421286513
0.0553968686270658,-0.0585276321240655,0.00571391974951153,5.26629663083435e-05
0.169033908984247,-0.0443541316694021,0.0101272853628288,0.00327092764147629
0.192251103755266,-0.0148178668891016,0.0198081126423209,0.00868485744435045
0.113207420232873,-0.00717641335014765,0.0270060522115633,0.0108870851702874
-0.00551667301607653,-0.0229641520741861,0.0294266949793354,0.00911970834579139
-0.10302439148476,-0.0243379882989395,0.0283820210564986,0.00852806911341647
-0.134297301373066,0.0241318364609583,0.0249422143252842,0.0110434558129877
-0.113369374816224,0.0888642802804645,0.0202054422727613,0.0133494503893691
-0.13112041585896,0.148044777858505,0.00460593953135732,0.0123489152043547
-0.168319904201701,0.249557905408919,-0.023810948086905,0.00753866563932611
-0.0888252250357046,0.336414038655705,-0.0399863040292612,-0.000542325147860423
0.0911015125079222,0.274899913365645,-0.0241155921025834,-0.010583472146956
0.253361879712802,0.120211007016108,0.00895179289790345,-0.0186481811431553
0.314279611735337,0.00726363677867142,0.0333265268625437,-0.0207340700596357
0.2388218634566,-0.0624061802622796,0.0411564527991986,-0.017223130446517
0.0828104838790014,-0.125910445051658,0.0298789289569832,-0.00997285939485219
-0.0500628692084105,-0.159472010016284,-0.0034433322372505,0.000679919936219481
-0.0870338969231354,-0.109078635232913,-0.0438100204907042,0.0121991008819208
-0.0527727840513355,0.020366553632199,-0.0688784000830746,0.0193495405240854
-0.0294734594566377,0.121357426596467,-0.0716531739907139,0.0193485513419845
-0.0442594693301388,0.129890470957173,-0.0636834561754917,0.0138985698080626
-0.0695262960521783,0.109546262024175,-0.0521805628153796,0.0068792615668515
-0.0676589742723635,0.110025770621047,-0.029440003991935,0.00133027950899346
-0.0224482278437888,0.0927005918855978,0.00108361415129943,-0.00212616455022655
0.0332183899697447,0.0413389979429988,0.0234970647519951,-0.00394278890712439
0.048421607193409,0.0155588619790044,0.0258619488374113,-0.00426987040456457
0.0201289541273059,0.03898998226934,0.008356783593846,-0.00365277992184485
-0.0147590458447739,0.0687079592769489,-0.0105796632076214,-0.00341187951235766
-0.0390766327795155,0.0641543681044304,-0.0130421926117873,-0.00375837958119104
-0.0384386531692446,0.0324636840290679,-0.00482481098066623,-0.00267016452176893
-0.00390577443644635,0.0275049850404486,-0.0032066136297942,0.000649051612053017
0.0361315462741884,0.0528160394798848,-0.00708727245545066,0.00337276636726123
0.0644279506113305,0.0583355094418735,-0.00414979852260154,0.00363044009514397
0.0852204036541282,0.0525631331077197,0.00140207495469654,0.00399485391135515
0.0880933501252297,0.0618331720456436,-8.9261097076087e-05,0.00587827504455367
0.0608319013772484,0.0700138314722804,-0.00707116126106053,0.00573411771510012
0.0286164606863087,0.0678376649622085,-0.0156507256460518,0.000239129855947855
0.0236444701720426,0.0552937760897144,-0.0218048643046912,-0.00945487500198289
0.0190984307383061,0.0322365214732388,-0.0213614501421931,-0.0184855128567387
-0.00895989301050793,0.00874196980540719,-0.0192227639921233,-0.0213683478265975
-0.0322182598090583,-0.00529230761120348,-0.0233459643692515,-0.0164481444029447
-0.0461134921990147,-0.0108639985797374,-0.0294447223838106,-0.00728883391066799
-0.0643926316731224,-0.0273923325664402,-0.0306802336773363,0.00314294167269438
-0.048032624615283,-0.0586246713171387,-0.0303844344671416,0.0143907120822349
0.0138727478491478,-0.07274041823398,-0.0282324149969199,0.023241484592644
0.052973384626153,-0.0523060860867601,-0.0233157437768278,0.0258121904403683
0.0448554663057582,-0.018623212061663,-0.0213104696702142,0.0226712857037114
0.0253138099735063,-0.0110383597240206,-0.0214719139095416,0.0164938328414866
0.00950748596217588,-0.0331395107488082,-0.020988890016208,0.00746836342713409
-0.00950194608041716,-0.0344979433055913,-0.0202419204597572,-0.00497026292027209
-0.032598777831275,-0.00908310644630902,-0.0172825142534622,-0.0180249673132225
-0.0435695422394632,-0.00905007072621333,-0.0116352355535905,-0.0276460400564
-0.0367278922313839,-0.0398532106975991,-0.00293575967007815,-0.0307430696609529
-0.0264850703941436,-0.086331129525642,0.0165705807116692,-0.0258204818101866
-0.00979475310143731,-0.137954981852573,0.0431642493061448,-0.013170026069196
0.0144126604647962,-0.148105377359495,0.0541780148929283,0.00550959813681791
0.0256174492691371,-0.103490725505877,0.0384549049151741,0.0233592961580573
0.0172578604244595,-0.051077294457052,0.0102963829465959,0.0310338927785101
0.00414426134640423,-0.0262290216190205,-0.0100083151880985,0.0274848868234804
-0.0096516626526592,-0.029340759073363,-0.0180052443337901,0.0180937309478299
-0.0385181036947961,-0.0474868194785534,-0.0204363467251932,0.00547766617647926
-0.0832633112618544,-0.06767691010692,-0.0176596307282898,-0.0073806757920583
-0.116519918894392,-0.0803717155808826,-0.00854903074919642,-0.014020612811466
-0.111777270413868,-0.0727940343373461,-0.00136471650991618,-0.0113701498301396
-0.0739195784355296,-0.0395165873078261,-0.00143164194565909,-0.00422969995900261
-0.028772809065908,-0.00445783168728116,-0.00577692438560425,6.6703365106148e-06
0.00314050294993612,-0.00199516488191681,-0.00521671822732928,-0.000687223473409011
0.0223784839161751,-0.0275812244249002,0.00629662267199588,-0.00223713567764512
0.0383626034902066,-0.0468823658550522,0.0173944253322617,-0.000550606369631563
0.0429699842979493,-0.0570213156164945,0.019529972663044,0.00278211950240652
0.0156407078155601,-0.0710351410720986,0.0180022127130864,0.00328473493682065
-0.0340096754154217,-0.0832770742968286,0.00896633377324274,-2.47379335764028e-05
-0.058291156213596,-0.0922334269706319,-0.014567233555493,-0.00438497592820759
-0.0312028541588338,-0.0889236471523945,-0.0421272929294379,-0.00624570247070573
0.00809620274867864,-0.0459705224868005,-0.0595682715697558,-0.00425445933667401
-0.00684939567995375,0.0302921315093331,-0.0618458868263852,-0.00103278409022011
-0.0718376301403052,0.105541400507085,-0.053074956482646,0.000113093836918477
-0.114721465758301,0.121051218703597,-0.0404205145871474,-0.000710879818718871
-0.0821214775920703,0.044905456485517,-0.0237590160187193,-0.00231418199219505
0.00969754929136704,-0.0353877948603571,-0.00533706714847819,-0.00451985147563343
0.0891154344529866,-0.0626106986581253,0.00855322504303764,-0.00663389264469736
0.109537330377038,-0.0834748296093678,0.0187305201325076,-0.00884513729235613
0.0620124023754763,-0.103508696567351,0.0236117464789694,-0.0122324457618288
-0.020359366837383,-0.0919593361015579,0.0208322545580527,-0.0147851326989869
-0.0574062378220871,-0.0651244495481491,0.0178040173213009,-0.0118081444129773
-0.0236134346645396,-0.0527429142975936,0.0177264806958979,-0.00251584678702173
0.0207295898624811,-0.0622542852575123,0.0188038263704072,0.00773991095997386
0.0305187325976524,-0.0976449312442669,0.0222734212983357,0.0141528909371344
0.0115078355146667,-0.136139003762311,0.0229766608672765,0.0159948753584343
-0.00144959009418422,-0.146833767378144,0.0203345617045489,0.0134083340427627
0.0369296158457059,-0.134641206800649,0.0255102776941237,0.00728235598680627
0.112864515801597,-0.104827491930218,0.0333204282482672,0.00110197442373533
0.163455507040687,-0.083674043318568,0.0371950551237044,-0.00196301047177059
0.154709556080986,-0.11587259180095,0.0475926190640285,-0.000666268264194438
0.10012021866278,-0.174922685691828,0.056987109847981,0.0048973518814154
0.0453597479345922,-0.164448234662415,0.0466159412494074,0.010367296406069
0.0206366337771726,-0.0447493049946776,0.0212449880948465,0.0099255385247004
0.0145046421770433,0.0614855019387828,0.00728923620304751,0.00380849926016486
-0.00310391894956558,0.0498748715419925,0.00728766421987681,-0.00281899477196005
-0.0631118558824305,0.00255923462115411,-0.0151116337092052,-0.00727493834383557
-0.129226981191354,0.0118827560374923,-0.060903875446953,-0.0113178117702885
-0.130510182135622,0.0392368435958381,-0.0756364057720106,-0.0155911900201962
-0.0884253416617874,-0.0201284711122046,-0.0404582000090683,-0.0171848424338453
-0.0315894607431655,-0.158788162981123,0.000656455730787174,-0.0135883547328448
0.0649502205296595,-0.217746525137634,0.0159078298769496,-0.00642818635934636
0.152998733695614,-0.140539855063878,0.0122333872117423,-0.000434729407424537
0.134658699207638,-0.0544221325558362,0.00256335669950991,0.00102158132199207
0.0511966498867556,-0.0461357724596835,-0.0102120553133699,-0.000657272153024501
0.00958181568959409,-0.051438233996689,-0.0218627189290157,-0.00200038011328929
-0.000174825258001027,-0.0114463356222638,-0.0201407067266987,-0.00344676194739463
0.0153073824974387,0.00195667171965281,0.00377671187958656,-0.005670413785696
0.0733969383482941,-0.0317852006561561,0.0376488449475131,-0.00324757040342395
0.103179683648712,-0.0152150683462175,0.0494442520444408,0.00840217097315503
0.0503647582681973,0.0601781252924092,0.031593785248641,0.0235582072437258
-0.00611534974005506,0.0887483297612876,0.0163255278077666,0.0311595710172277
0.0545502552204747,0.0285515497470511,0.0259750780167771,0.0261288265231091
0.199522369518705,-0.000284941011356343,0.035913140113168,0.0121618556033331
0.259466123263656,0.0635441273413241,0.0190909037944434,-0.00327220222497714
0.119969145463058,0.091499459742595,-0.00590195215605358,-0.0151652984896657
-0.143411334657327,0.0231414179351531,-0.0142399568001511,-0.0212109602671711
-0.294141950405819,-0.051418856655736,-0.00855488849108472,-0.0185952656731428
-0.227604725737165,-0.0520654869804614,-0.00875993315699561,-0.00764503342416534
-0.101759370792573,0.00157142710687599,-0.0304306992138498,0.00381916172432071
-0.0673210731049486,0.0481793047631901,-0.0553247076392083,0.00769741011937998
-0.12353052698433,0.0415661343030471,-0.0507329791241996,0.00536609968949704
-0.169955667293755,-0.0378717557122019,-0.0214450033594263,0.00425669874501811
-0.129568928405004,-0.135016470757449,0.00377763123096072,0.00713204513279685
-0.0641310571180561,-0.191559884106306,0.0168953975367721,0.0101325384142856
-0.0440220426412825,-0.189392599217726,0.0225041783714631,0.00931517314349185
-0.0513367626604946,-0.111227975768266,0.017020982559723,0.00433681811964398
-0.0574036241358045,0.0108287229498848,-0.00747450653086718,-0.00291733276995697
-0.0635766456187723,0.134523264917155,-0.058124659983147,-0.010575335331879
-0.071099025276505,0.24808424113325,-0.119779847230199,-0.0184595223620022
-0.0716640125241623,0.280136459650998,-0.144037712415248,-0.0282293030652947
-0.0343030117516188,0.1934958013915,-0.102799493855478,-0.0391011829382757
0.060231988159662,0.0910714073920797,-0.0250049816784906,-0.0431824140224568
0.137073804497922,0.0613291029344397,0.0359906137063791,-0.0312668306800934
0.130546877144756,0.101594052265031,0.0513227089203381,-0.00636819742272014
0.0707094405908328,0.172421556804616,0.0307058878676414,0.0160245998470365
0.000722931953321182,0.20867859437045,0.00425255776520757,0.0243219019796257
-0.061408618903445,0.175199421137577,-0.00522653573071988,0.0202780422188043
-0.0924579260483883,0.0796737272690576,0.000828768920934633,0.0141424492997637
-0.0659178172913757,-0.0583604238133,0.0146623226628076,0.0156569052193443
-0.000849789543834285,-0.170245196199958,0.0260755611551934,0.0261981853180263
0.068631158758191,-0.214436814155646,0.014501702588767,0.0369568035732648
0.132845141237425,-0.207090252105761,-0.0299091674530265,0.0375001241517761
0.172512949350566,-0.114846316249134,-0.0826596855598365,0.0264419180039953
0.180092462540793,0.0634483053548733,-0.106392517152681,0.0112067079410627
0.165551948415073,0.200117021181575,-0.0959020109210258,-0.00107373107657126
0.123164934985726,0.191567305159592,-0.0626140765132938,-0.00941928742106072
0.0413577977299219,0.0880654083731422,-0.0236324875064316,-0.015945107597583
-0.0510722285436047,-0.0191138237150494,0.00133868807070853,-0.0217883296836016
-0.0985173819347065,-0.109734051019318,0.0233614220279657,-0.0266257681103157
-0.112833854380435,-0.152505665899475,0.0447878671340422,-0.0288625568566279
-0.144458147451739,-0.10022672338495,0.0306862963315606,-0.0270935035613528
-0.174638695078081,-0.00431572267626551,-0.0199953683627681,-0.0219555539726992
-0.174379914276841,0.0640093584932773,-0.0598832239845339,-0.0155588535014305
-0.156779204737066,0.0994300369683904,-0.0719074820830936,-0.00893403101187921
-0.102628063634144,0.0841602824504667,-0.0755033223808799,-0.00174469667031346
-0.00360639982568667,0.0158939760220089,-0.0703535221407115,0.00619664036267221
0.0941571008967952,-0.0359587286973428,-0.0551372232020214,0.0140588476613084
0.159470829218112,-0.0600874947248874,-0.0465082615903964,0.0202224075249556
0.181083402191194,-0.0576023225356317,-0.0543977766584843,0.0246966857463495
0.163013270506762,0.0496495007787114,-0.0777565986753212,0.0289183316938172
0.157171473424451,0.195985691860448,-0.0991473878937826,0.0324103092798892
0.204424107656675,0.231491836966469,-0.0976142425957997,0.0322611064735325
0.242426374581292,0.170869170474429,-0.07397710283332,0.0247102332929332
0.182190720606251,0.0938568684923078,-0.0497082658740616,0.00787967383707688
0.0483427080131383,0.0239918999622896,-0.0414892507149608,-0.0147474535047234
-0.0781327217657569,-0.0242592217337112,-0.0439054357792198,-0.0346271906332475
-0.162107629676905,-0.0580986001092536,-0.0419797964911189,-0.0427072446307284
-0.1786475182316,-0.102562093952173,-0.0284454711300424,-0.0347858701553831
-0.143073887634772,-0.104009136214866,-0.0201490586291305,-0.0158678696425875
-0.142136359850093,-0.00219188372084689,-0.0400397291854167,0.00239851734213276
-0.166162342358617,0.0918516852153604,-0.0654963465819787,0.0134351622621143
-0.118382347367913,0.0457215533314951,-0.0619489375116188,0.0208113340234498
-0.0193837162119607,-0.031177418236814,-0.0551736795970411,0.0274422346026933
0.0487483779255631,-0.00277233139349493,-0.0715501509105336,0.0279439640336056
0.0747630661492987,0.057813393708646,-0.086840402965651,0.0186101413016122
0.0819510313485169,0.0591918403432067,-0.086829250799632,0.00738104197909641
0.0707999104022659,0.0393082759674549,-0.0814305852265265,0.00417717106553579
0.0417900586267372,0.0483384934353425,-0.0803947363694043,0.00509916864170987
0.0247243897353771,0.0750484643114452,-0.0888811867721046,-0.00239451585478788
0.0487925184814839,0.105191391540503,-0.0980849508052565,-0.0203848439217603
0.0928522920181807,0.11352617837169,-0.0946425965202801,-0.037152231001496
0.0915815921989736,0.0724071200032938,-0.0778142104885962,-0.0412932253013417
0.0307869971896557,0.00279959065189453,-0.0564021145216169,-0.031652584676215
-0.0259711644962676,-0.0568610849557132,-0.0414384557191151,-0.0157879304880245
-0.0298707792399927,-0.0849312280089515,-0.0345538958264786,-0.00217602134090506
0.000794823263381997,-0.0739671904650929,-0.0296925890311382,0.00796186684915721
0.00791698101843857,-0.0404795396169537,-0.0263381387380862,0.0179767734325432
-0.0319243969706877,-0.00219598846566016,-0.029244425731155,0.0273440392672671
-0.0862638332291242,0.0454149196400961,-0.041508617031248,0.0314062771800366
-0.110366045463104,0.0853433980410168,-0.0542602070074616,0.0265689790649952
-0.0873328760627181,0.102843467568699,-0.0605321537448719,0.0146087755260814
-0.0574975940909041,0.123670889866895,-0.0648964979984751,0.00139127810996529
-0.0420260518288312,0.140234839799747,-0.0608166576834657,-0.00821544529071394
0.00765319672529972,0.104632819844734,-0.0396197181228139,-0.0113594123010811
0.120370671221078,0.0122306111292252,-0.0181563461194478,-0.00808403233638584
0.228345811507759,-0.0834832575351463,-0.0187086062851499,-0.00431967407039065
0.237799124927313,-0.135316365820132,-0.036320709329255,-0.00625046935629606
0.163922689811246,-0.15376533111361,-0.0440118079421555,-0.0125297189716544
0.0908419533734255,-0.177450879924611,-0.0214448842306971,-0.01674079316584
0.0493498735139761,-0.203435931104197,0.0140600472130261,-0.011382718964242
0.0321923711236972,-0.183202968993013,0.0288525661396522,0.00674405831908699
0.0433109397058272,-0.0861682075028638,0.0179618921847584,0.0273159111033468
0.0651108487451788,0.0580764962726256,-0.00544280785034234,0.0322812992097593
0.0572215750958345,0.18521429882409,-0.0358782259944747,0.0160887652006271
0.0272921806361556,0.234537986898181,-0.0639268098755174,-0.0101257553553606
0.0328595966035355,0.162336836276896,-0.0626950347447637,-0.0316645701605852
0.0950294937685068,0.019582449101276,-0.0251264029640282,-0.0369095476407882
0.164397288376305,-0.0714349969692139,0.0105073314593773,-0.0215304161004296
0.184703348266697,-0.0867324297713767,0.0156954842452168,0.00518299509423659
0.141861940402681,-0.0784667107583256,0.00606534997467091,0.0265674588147243
0.0580871925145914,-0.0621395024270374,-0.00576844028290981,0.0328878309125588
-0.0016188525651217,-0.0449868629108858,-0.0200467189194502,0.0253474931917526
0.000177595404421277,-0.0457450649215581,-0.0269266696058265,0.0107762586941171
0.0192171045666693,-0.0503406922898708,-0.0225494571276657,-0.00409013598315077
0.0152850352766961,-0.01902231552803,-0.020384986333347,-0.0145802815826573
-0.0155485579508973,0.0404380078024289,-0.0337277457057234,-0.017274536002279
-0.0519226770111101,0.0732564548730034,-0.0480149119808733,-0.0137189053737103
-0.0392017550570642,0.0558036747104141,-0.0395315338151107,-0.00941715461599241
0.0260596942172609,0.01352175054598,-0.0167870333054693,-0.00493352379984669
0.0669236426387826,-0.0121813250753901,-0.0025596490565511,0.0038489328174571
0.066065990453048,-0.0166563781909157,0.00192593160210032,0.0160872409524518
0.0682549750661916,-0.0335663207018191,0.00857766269130016,0.0246655275561309
0.0848121406372233,-0.049899148095549,0.0140900758960814,0.0264739728179357
0.105175813868603,-0.0209776100615796,0.00672601253542843,0.0213732415145909
0.102369733649327,0.0377670555820534,-0.0112458652773393,0.00632859635561094
0.0601188686606443,0.0734027755900858,-0.0274515831236558,-0.0148103302476413
0.000976424124776692,0.0681615965801808,-0.0321973140299943,-0.0295957024805692
-0.00283890227199773,0.0380307981758541,-0.0256451076448197,-0.0313462747327503
0.096684144538529,0.00247661461166365,-0.0192596249554898,-0.0245876978865744
0.197714031758286,-0.0451222651685015,-0.0168526296623968,-0.0170108182414624
0.177709412477425,-0.105712577486438,-0.00792081979547905,-0.0109240485592083
0.0771554732851519,-0.107787596541134,0.00114851299798616,-0.00329528339501892
0.0114606693717501,-0.0390676802513849,-0.00229659138106493,0.00625685247833964
-0.0124772777026834,0.0176805215505917,-0.00847380846609224,0.0130555061655672
-0.0604027679468344,0.0399251904431297,-0.00852831746257418,0.0152487613603379
-0.130243871978843,0.0574402926719533,-0.0135776060224505,0.0152214526504242
-0.185577807676689,0.0779467911348873,-0.0311470766568356,0.0129171956649417
-0.214710049020357,0.0689658252118775,-0.0455896335294437,0.00639784778027215
-0.213413615590139,0.0142489628955289,-0.0401831610360217,-0.00248770688024642
-0.173720468536509,-0.0556454483093867,-0.0193917718907308,-0.00877306723771463
-0.0854480622957928,-0.121917596888062,0.00297666979658143,-0.0100046821469638
0.0208925014369712,-0.167713413333067,0.0201513275412503,-0.00803416452709503
0.0802776840968689,-0.171425533731812,0.0295953883815754,-0.00569552534101545
0.0838785629500128,-0.135850893956586,0.0290266129269247,-0.00329792979464694
0.0793323585869134,-0.0765176029730018,0.0225383477186146,-0.000220421814794287
0.0892617808776578,-0.00143268641832953,0.0161353867823478,0.00124875033763867
0.0996221661944389,0.0923231370322201,0.0102588333663354,-0.00184441561426862
0.0880249268167988,0.168848806422758,0.00668389829578728,-0.0083623723941431
0.0333051706195173,0.162734888497776,0.00755326284616751,-0.0147225018245202
-0.0415844676140643,0.0857044108621172,0.0135555280176894,-0.0182446278706012
-0.0951395782765303,0.0304530967533128,0.0197148378927963,-0.0163504020617735
-0.12749803297822,0.0174334845019426,0.0184519429522081,-0.00816891991706964
-0.150766125283478,-0.0306785723094852,0.0198086536817087,0.00286249781547364
-0.190142818521929,-0.110553443451902,0.0272518772846697,0.0115707087173232
-0.268226820095933,-0.135803848007501,0.0203598509238106,0.015701112059584
-0.35670888733847,-0.105975217536442,0.000231938787024287,0.0167595076303319
-0.358178648317416,-0.0819369319995205,-0.00650825160611145,0.0155971163507103
-0.206001995958073,-0.087360971531848,0.00828057188619981,0.0114572678745136
-0.00701905706331274,-0.111069641297875,0.029955994468004,0.00623997151662117
0.0921399189547695,-0.131671552891571,0.0406797146570513,0.00291926612861241
0.0621455054318305,-0.165791773734643,0.0408548193926566,0.000734725910370909
-0.0235274932990022,-0.195116583022828,0.0489725895117092,-0.00161778544884531
-0.0650709974714374,-0.140606448885864,0.0612292324348109,-0.00263896533813962
-0.0463399454659523,-0.0253124761022791,0.0626731398142557,-0.00376619433936767
-0.0260663380176683,0.062865974615644,0.0657267808670751,-0.0109181654212294
-0.0478738782769488,0.104296382089486,0.0781286785689921,-0.0229259314619955
-0.098533276588639,0.137173216824612,0.080272262376912,-0.0282690671143939
-0.136307814099092,0.187680921109099,0.0613578827181375,-0.021369882663697
-0.146249198320818,0.181563247443826,0.0331763520970794,-0.0081862437879486
-0.135590483249372,0.0681272618778588,0.0103145003951383,0.00593831580961143
-0.102739335595484,-0.0521006725994226,0.000383332150578862,0.018648258496888
-0.0860688754316554,-0.0695915415863211,-0.00381151734385021,0.0262957877488221
-0.113121372322793,0.0158850066728445,-0.00642323849643289,0.027260305726552
-0.0858032169150421,0.0715988817700905,0.00816748118007802,0.0230711993403772
0.039568750180188,-0.0100962229991174,0.0392131080620731,0.015527034524647
0.132605740787526,-0.143586265032156,0.0623491651872015,0.00719510227724761
0.135335774033954,-0.204841355247479,0.0645382775950074,0.000765785697986524
0.109929500145992,-0.170107774829254,0.0490072584915113,-0.00320552954863836
0.0676688199700631,-0.0754467217770819,0.0301417548802845,-0.00585803440182378
-0.0101201939562163,-0.00322363957860866,0.0173691460882731,-0.00828976541687908
-0.0968896951056343,0.00169254606233972,0.00593586409404532,-0.0111626731642066
-0.141874776252037,0.0299139249205414,-0.00223635049529984,-0.0137084507772131
-0.134688690926984,0.142005931021004,-0.00636956794492042,-0.0128850678057042
-0.0984006355219553,0.218387751497553,-0.00439304141517634,-0.00778754657058043
-0.0382720308826991,0.159700409166865,0.0130124287220672,-0.00201258642567658
0.0200085924784633,0.0529947969243678,0.0351101325144784,0.0019744987208454
0.0345287840351462,0.00320169248110211,0.0457093591371845,0.00452312204051636
0.0184306242508632,-0.0421921746876656,0.0566199041746307,0.00560857758598903
0.0220705725592922,-0.143577341332319,0.0832843622392521,0.00645466821294668
0.0450502812253843,-0.201900290632008,0.10816401403722,0.00896854627742098
0.0238755081253809,-0.147412363380718,0.105918325291626,0.0122404483221909
-0.0417822911799639,-0.0272992458789082,0.0779372459492276,0.0132365978037544
-0.0589788303072007,0.107222436462048,0.0466891450375734,0.0096199738500615
0.00993106014520687,0.178409224854042,0.0327402900059949,0.00393724198946679
0.0995006058289785,0.182434049667549,0.0226673143985717,0.000652310375817084
0.130910576464605,0.191737958433028,0.000902809704744767,-0.00303795363513408
0.0821818029829462,0.156838000690558,-0.00866815398064903,-0.0128452560369323
0.0115255841318513,0.0203616666485577,0.00157456542459549,-0.0244016583179884
-0.0184752113450787,-0.109689684198835,0.00197504339355028,-0.0284321399503451
0.019562639242059,-0.113149512374398,-0.0132528000325553,-0.0256104286388229
0.124452373613829,-0.0204504782403486,-0.0184316283507178,-0.0204470188752199
0.216921588208175,0.0472084117724642,-0.00510873493963359,-0.00928410318817376
0.230279076933668,0.0417473309314936,0.0143082372312521,0.0104750603047071
0.184972441977245,0.0149584590823224,0.0270215241612439,0.0300061116640212
0.123224488211876,-0.0136754677634803,0.0315616452903252,0.0379098801299657
0.0890881229164755,-0.0535186146494513,0.0477622456865732,0.0324630366060929
0.0921074857361066,-0.0877445745144385,0.0796587683109893,0.0215909053765447
0.0762060005713496,-0.0947750500799784,0.0961615771972516,0.0123926576818098
0.0159223111348876,-0.0629398761972969,0.090713421490011,0.00473758311671128
-0.0590355772601459,0.00358852559534445,0.0862357903850373,-0.00193360301686445
-0.114550139605802,0.0836959004457252,0.0817677828435249,-0.00504110766744655
-0.0979949038546785,0.130955735301762,0.0689354506981306,-0.00591945796606679
-0.0177737078278117,0.141197900756181,0.0549236170058061,-0.00959654763970245
0.0340741506253822,0.141099343779805,0.0392830360968922,-0.0158366035077446
0.00845258807190406,0.12741183325327,0.0159546467824426,-0.0181341582154046
-0.0553006287024494,0.132662432344547,-0.0106345384337869,-0.0128299078763103
-0.0846758125643538,0.136719941754385,-0.0253261609126368,-0.00428543812048156
-0.0480355587668961,0.0907368572017235,-0.0227754205062609,-0.000591122929943887
0.0366370862865621,0.027138901586115,-0.0067216358339878,-0.00572887877079777
0.0988349907658853,-0.0602496180699075,0.022577628797534,-0.0132990888942679
0.0916939698079268,-0.186258935222909,0.0556909492115017,-0.0124487237526162
0.108438266777673,-0.269937148775458,0.0800910858007012,-0.0022803672659566
0.200581277167729,-0.218023734865347,0.0819612544431059,0.00814935499034709
0.258366887816019,-0.105475461690607,0.0664474960758971,0.0105740996397578
0.203106171126634,-0.044862014854295,0.0508821159939183,0.00457440418689484
0.0904062378925951,-0.0117648668939781,0.0392506425828682,-0.00201138820810482
-0.00245829708396392,-0.0255073418368304,0.0465418647228634,-0.0015342565682185
-0.070019394199708,-0.0739582617320376,0.0664378908454509,0.00720075093652132
-0.12347484558692,-0.0313398765895267,0.0572235865912622,0.017862688161291
-0.162490818096083,0.0774231698695735,0.0180188673836008,0.0190262757445754
-0.163319078630971,0.135450330608255,-0.00793941373214754,0.00630366082116596
-0.106555818567081,0.165118413091551,-0.0159732076609849,-0.00985414477711209
-0.0292475275013405,0.20537565210935,-0.0250056188197189,-0.0160507435450393
0.0662966547533543,0.213810307892234,-0.0185518667678242,-0.0109560590942158
0.178022182938561,0.193566316284378,0.00452732797526706,-0.00275110440816611
0.21334149905088,0.164079524923896,0.0168449031656843,0.00152850049913184
0.135293584487439,0.0795143120712943,0.0239158118892276,0.00122713966744974
0.00903278361616147,-0.0399872521576469,0.0401079260859252,0.00101759510564111
-0.128751253959291,-0.11176459879254,0.0414466751739893,0.00366710104396144
-0.258676662777623,-0.12298941513865,0.0100029676149774,0.00616288478825115
-0.353854726388084,-0.0795544419031654,-0.0260003303908322,0.0061056232491753
-0.395813008405092,0.0134479114789254,-0.0389020739932068,0.00634607301504
-0.310139901655687,0.0988772361097992,-0.0351046232378027,0.00801427489835592
-0.0817440438028108,0.10152932670275,-0.0194294539995065,0.00670910001199901
0.114361528468392,0.0247993214562749,0.00364098556019421,0.000118499334866452
0.147203795248167,-0.0170510335017793,0.00621222976789898,-0.00966086907966586
0.099401570038369,0.0186099417341528,-0.0153996328282655,-0.0194935352492573
0.0728180494994591,0.0375956502819468,-0.0225931077269615,-0.0267511649021391
0.068478954317569,-0.0112667126585619,0.000607955613167226,-0.0296844492421418
0.0708517476326042,-0.0772340583680722,0.0247046488856173,-0.0259719038841864
0.0716011733948354,-0.0915073533181309,0.0246310454742017,-0.0140335594615166
0.0577207992460836,-0.0620788760711068,0.00928929626451088,0.0032028486711979
0.0492000902557966,-0.0399633115312995,-0.000228310255449128,0.0184693567739861
0.076086765540845,-0.018198003799259,-0.00111256186338814,0.0259995303261
0.08815615045046,0.0304450453987227,-0.00421442915546968,0.0260625996390231
-0.00596196415262754,0.0841940548112944,-0.0119735063567557,0.0225794312226842
-0.157552965519895,0.120041228188413,-0.0201617807157397,0.0185546480025119
-0.209434519236343,0.144410554405662,-0.0262486625341183,0.0145554698426973
-0.143728768212589,0.123099855761417,-0.0253796922934398,0.00953458442034053
-0.0744339913597533,0.0376577522735417,-0.0162383281280576,0.00244322148504154
-0.0431055582530662,-0.0340241940742927,-0.00674369345159842,-0.00522256258575064
-0.0198164581160951,-0.0319133667174521,-0.00376695820100244,-0.00934359023137439
-0.00357419521167241,0.0076020518323566,-0.00901307200767085,-0.00823515626565129
-0.0134706299609984,0.0187491891838596,-0.0184339154367043,-0.00544035017792592
-0.0386321029641429,-0.0157495209171048,-0.0214820759157469,-0.00403944169186166
-0.0394334655508865,-0.0461811064547945,-0.0163125188698151,-0.00247566438588001
0.00736142735320537,-0.0150564333811157,-0.0160108562197755,-0.0005734326015735
0.0757669849149469,0.044427151910368,-0.0230996364845027,-0.00233334044942139
0.0947914269715348,0.0550267054611047,-0.0271779812987246,-0.00745261000365949
0.0514700771002929,0.0199711967147771,-0.0247157540936321,-0.00914758718033721
0.0280569691374977,-0.0171310908138686,-0.0204285570622764,-0.00427976019999041
0.0597588504809514,-0.0477641113289169,-0.0164749235185064,0.00248983095598918
0.0978586361899517,-0.0738557670065877,-0.00702256333357362,0.00688989010567845
0.115497513413983,-0.0879673023460349,0.001930382201659,0.00957688935439164
0.124433388696573,-0.0808601594114295,-0.00401747848305974,0.0101216453901116
0.11533616740791,-0.0606032507831105,-0.0175203635109001,0.00516524729471326
0.0740594749734242,-0.0585297937738923,-0.0206599516458354,-0.0032440362628343
0.0179997297048813,-0.0802004314483922,-0.0115858091871744,-0.00665698317449025
-0.0188012321361054,-0.0947099545975526,-0.00211152871501131,-0.00273026390851325
-0.0323144455625923,-0.073618518539172,-0.00491936738968345,-0.000194968157093929
-0.0524756634954324,-0.0145279987727698,-0.0179376998555848,-0.00602287552571455
-0.070861394696502,0.0289374392084314,-0.0229486948768419,-0.0141884176940016
-0.0552286070828467,0.00680406702194068,-0.014971504495388,-0.0145574047845516
-0.0102159770711156,-0.0324040115464657,-0.00507928707158805,-0.00728348276282698
0.0416433043555534,-0.0299454467883348,0.000314896767330233,0.000140787733206492
0.0882325789479857,-0.00121624248628362,0.000226462074165658,0.00434626894244944
0.11883400639269,0.0298795502541571,-0.000304551846594182,0.00742000169074542
0.133262958830362,0.042101245899162,0.00367370866712939,0.0117022555726424
0.147492208520713,0.0100415106636282,0.011359991073138,0.0161960337576779
0.155859235856356,-0.0402248046418565,0.0164746697573277,0.016707492862274
0.127026238977543,-0.0670414150398066,0.00890510844857319,0.0112460755510977
0.0209400744782577,-0.0755439871173565,-0.00896790938345288,0.00423014834352864
-0.144328299177882,-0.0835002523899024,-0.0239197837678693,0.00243967718255565
-0.247877504476829,-0.0893127327161039,-0.0285439955073731,0.00538169209846505
-0.216291155631713,-0.0825016107317987,-0.0176734114757385,0.0048776693241638
-0.125611173243525,-0.0518364901870128,-0.00421556007312618,-0.0016533184841384
-0.0595390600864059,0.0374706637346112,-0.0179575554634134,-0.00708726896190848
-0.0187971166156774,0.168449918621699,-0.0492120698845503,-0.00721171822177708
0.0239600246917865,0.214863584428401,-0.0586884015237657,-0.00603346760617359
0.0716081869245707,0.128550482067987,-0.0376394985464235,-0.00751959983375794
0.089294262494304,0.016375410702252,-0.00894901368866067,-0.0110750398452919
0.0459441324405349,-0.0305920512444502,0.00799467635804951,-0.0137262210000396
-0.0276283910838163,-0.030927299131205,0.0129286708925889,-0.0121161168990254
-0.0517429861558796,-0.0329141810936822,0.0124975169713816,-0.00568419821863079
-0.00276039148536297,-0.0394057276116563,0.0126922563280399,0.00203184927899051
0.0568366834007653,-0.0372470721583124,0.0174450048900168,0.00831596915694161
0.067614830080044,-0.0266169320509908,0.0230853450743798,0.012273911190829
0.0356518766321773,-0.0171695812667943,0.026910694852323,0.0111841529377241
0.000355925849230068,-0.0207073926026572,0.0302539918414518,0.00420781250042163
-0.0201189073103684,-0.0368254403453914,0.0340170347983577,-0.0040016348693539
-0.0307313502508636,-0.0397040901020168,0.0371167993235235,-0.00710855941407729
-0.0469976051065423,-0.0267276159601548,0.0309031464730389,-0.00240584016926851
-0.0647519035646869,-0.0349566592162371,0.0149492927419187,0.00659848501720688
-0.0560404811523408,-0.0563098838423211,0.00406003706013629,0.0142259034330376
-0.0206607018530576,-0.0583645202642843,0.00600487116682009,0.0174088520450361
0.0139414471091685,-0.0482499407937905,0.0162350303648064,0.0165529222888559
0.0287071292790838,-0.0199371118239597,0.0213680695430441,0.0137034382608044
0.0325667366994005,0.0627557240922598,0.0122036925348737,0.00965867450602603
0.0353381203900489,0.162731814248684,0.00312508199124675,0.0027382284694733
0.00827182765289634,0.176634818517653,0.00987220826489615,-0.00922051874263504
-0.0442564012738306,0.100879339409665,0.0297824381601907,-0.0218244625627283
-0.0611759824866171,0.025973546049829,0.049973178878305,-0.0250881262838251
-0.045338513493553,-0.0335149740533117,0.0646486042341814,-0.0165484362394618
-0.0386352538563265,-0.104413403144489,0.0769284404926973,-0.00346811104206799
-0.0190412046130992,-0.153346874794818,0.0794458645740144,0.00623142865319138
0.0208196912002703,-0.156077987623723,0.0626081338879665,0.0077366777379864
0.0440950777869688,-0.097127120073923,0.0310480560442185,0.00149247946686983
0.034009681994517,0.0299435103500771,0.00140470033736871,-0.00577030406013005
-0.00584669442167999,0.157207863239737,-0.011586712636215,-0.00690551149712293
-0.0408859086231485,0.174427245923059,-0.00458702513139875,-0.00148686482121343
-0.037779340528056,0.07587573347837,0.010928215556795,0.0044162878790969
-0.0162199258471437,-0.0144498936116081,0.0212326423506015,0.00546508962966039
-0.00263698778765069,-0.0141055244326757,0.021612774346403,0.00193294592088378
-0.00244657946384869,0.0787970074562459,0.0116060040714149,-0.0026109639525562
-0.0224718041701599,0.164142022468204,0.00913881846910971,-0.0049337959045125
-0.0602950218965187,0.129289246338648,0.026042357648151,-0.00251267594603943
-0.112678886915472,0.0502549689947301,0.032163081685288,0.00498013086246889
