-0.0178113845555425,0.0584271925164176,0.0114138614055916,-0.00318856913828247
0.010393773020497,0.053335242234583,0.0141161312156649,0.00430920976600933
0.0194687383045599,0.0532245432960157,0.0136264131905379,0.0100606575139252
0.0178946337687249,0.0442161662579815,0.00782857856706295,0.0118019130642426
0.0137991018217784,0.0285819347637764,-0.00112070758189557,0.00984610479767927
0.0175989499814149,0.0114194986896244,-0.0117882940170481,0.00604146640798492
0.0339765670333066,-0.025242812510722,-0.022272492200957,0.00196741883949179
0.0563965442965177,-0.0646621245637096,-0.0235703894772762,-0.00174816549749077
0.0669379753226686,-0.0577759786086987,-0.0138108995230969,-0.00476700918651719
0.0519323844993337,0.00601889285133884,-0.00205935864251829,-0.00662426315900042
0.0179045140923308,0.0768031157454915,0.00839507239607874,-0.00708118687867243
-0.024695640108847,0.101072221893855,0.0166041212677462,-0.00614765644013095
-0.0647599893828298,0.0897330647198658,0.0181555168047774,-0.00422500389183501
-0.0797097939522133,0.0721470709255128,0.0147757088282383,-0.00227099955396925
-0.0666477740168155,0.0429489969916344,0.0124207959326651,-0.00101498748638951
-0.0503560323014754,0.0194293797497851,0.0125268062261149,-0.000215569970625384
-0.0385947217695401,0.032143114144745,0.011094683253759,0.000895641153328454
-0.00988668803333588,0.0576013478880318,0.00629796601458722,0.00248964020144874
0.044450087572447,0.0454724719768866,0.000617951982455964,0.00387721674987583
0.0917629047762137,-0.0369527475041568,-0.00717989268247899,0.00407618034447429
0.0897277581844643,-0.143546100829884,-0.0169506471251629,0.00274190134454924
0.0375920321540555,-0.171328083851969,-0.0223834767495573,0.000888096686687186
-0.00980915993919086,-0.106479205405524,-0.0205071972544421,-6.81942950317175e-05
-0.00478605815859416,-0.0225655118658054,-0.0144539921554607,5.1528840779207e-06
0.0278323393019267,0.0168226543047774,-0.0110564136497886,-3.46744119278214e-05
0.0319631220431576,-0.0110588350713765,-0.0150541731135485,-0.00112959282311859
0.00789828196880121,-0.0678567790815461,-0.0229513174608817,-0.00295149735429916
-0.00391682831995068,-0.0863060062080888,-0.0274139733237247,-0.00383877519027016
-0.00424471390250868,-0.0513234592611735,-0.0278908880583201,-0.0024381895322715
-0.0177287751720929,-0.00908828520146003,-0.0276605488551204,0.00057844765194266
-0.0378129994883325,0.00483947679982837,-0.0243408927042024,0.00367307360637086
-0.043877141412587,0.0118982741317596,-0.0164584466790514,0.00587926235839042
-0.0380943307939311,0.0334995402225408,-0.0111173622420682,0.00673460512291307
-0.0364672949121536,0.0478744330641023,-0.0156937899350346,0.00613902537131078
-0.0369590267833327,0.0362778083124405,-0.022917536883656,0.00445047418513951
-0.0281008396830385,0.000607929180219985,-0.0200710920306816,0.00249552834190466
-0.00841063620525566,-0.0423605934688947,-0.00967733581951998,0.00104969541806201
0.0179684495577271,-0.0704228466313053,-0.000720336166908142,0.000335691106296063
0.0392339736148474,-0.0795533840808866,0.00469958718638905,0.000354296096795501
0.0453702479798758,-0.0842150795138759,0.00695284506034415,0.0010923627975078
0.0438612798488788,-0.096089947902784,0.00628020744107342,0.00199495887857607
0.04674726112583,-0.107774323055189,0.00344618021636412,0.00235665308622651
0.0527320346292569,-0.112903007559737,-0.00015007004905482,0.00209520704860487
0.0495362620673883,-0.112616433644048,-0.00261931878360772,0.00143244148192887
0.0290620590969496,-0.105233238617688,-0.00277203855369876,0.000631643932206554
0.005015056458495,-0.0962803515703824,-0.00253972445583821,-5.62278660011791e-05
-0.00469132303584714,-0.0897952369363787,-0.0047888009574081,-0.000519393505867897
-0.00100385069844964,-0.0736120250212757,-0.00608717803648708,-0.000590529050713645
0.00843608191743287,-0.0461792906894924,-0.00451363036000617,-0.000443236989807465
0.0123884533970861,-0.0232336632959536,-0.00521502034349764,-0.000399885601865411
0.0108306525209373,-0.00762484535869672,-0.00856074006179607,-0.000347404150446269
0.0184192313631177,0.00576322879765614,-0.00854434371900368,-0.000406014315112512
0.0295991051345903,0.0187610140474417,-0.00518711384181622,-0.00090448376100423
0.023910559604734,0.0307661609044014,-0.0042758705161822,-0.00183348575633672
0.00166570097457816,0.0378963127893191,-0.00576197432548032,-0.00298215322738402
-0.0209189660799862,0.0411822522818438,-0.00648490293954557,-0.00381484951725934
-0.0367489935391483,0.0438252549344148,-0.00489665649813095,-0.00384022233222201
-0.043669189123175,0.0417183974601859,-0.00164281441597701,-0.0032044478130092
-0.0371762068808531,0.0312838205862907,-3.01423590664748e-05,-0.00236560202985945
-0.0199253389673393,0.0150270745967332,-0.000186594576124019,-0.00160827202306195
-0.00430939224289952,0.000752437070632783,-0.000263339548240298,-0.000944065770190181
-0.00209393189844057,-0.00736895803997903,-0.000643334806821658,-0.00014851711964211
-0.00933444020397969,-0.0148145505806296,-0.000752840884320673,0.00117773987536301
-0.0152449562688646,-0.0237297410948842,0.000379406530681703,0.00267678692621234
-0.00998186339088109,-0.0335731444321203,0.000867934163242692,0.00303551076926793
0.0152649428904252,-0.0377008421039202,0.000532585186674692,0.00161104833768079
0.0469815866788322,-0.0269937597564104,0.000344868724412825,-0.00097113765738521
0.0631297930998468,-0.00191239876960038,-0.000596885365828593,-0.00344852415917855
0.0643616456971234,0.0377663275034452,0.000863288715126606,-0.00456454725904715
0.0614732278637546,0.0791405711513511,0.00601387346732978,-0.00398215992930331
0.0607787034662836,0.101263509006042,0.00985363830113806,-0.00244766035227978
0.0656649678999866,0.108936928281515,0.00919321493580082,-0.000793525689370359
0.0626386294224784,0.111518342793706,0.00579413095008206,0.000463139110862227
0.037592705730366,0.105136629754331,0.00441121776081202,0.000930938853939769
0.0110818918500654,0.0886353314860039,0.00653007619983596,0.000257163203967876
0.00882030062227536,0.0653398983245006,0.00790304847314145,-0.00161107902344285
0.0215489960718776,0.0385132713328931,0.0043474886211161,-0.00364908122765997
0.0269825460141572,0.0081578967106761,-0.000941716084922216,-0.0045572865801533
0.0217155413580581,-0.02126040879476,-0.00240567689562538,-0.00418123703447792
0.0116542757214049,-0.0414258734528686,-0.000912102560686071,-0.00345952724562717
-0.00333900450571156,-0.0370404451421189,0.00296186936927473,-0.0035110005386436
-0.0214649718018843,0.00253609599528772,0.0104960314039217,-0.00410215857480935
-0.0361428304518812,0.048402700912231,0.017330053070345,-0.00317641813292227
-0.0462153145950166,0.0679716150502143,0.0193795838336652,0.000289645145846441
-0.0515765814262868,0.0728651046271669,0.0200957610450735,0.00453694267223506
-0.0484989557591146,0.0773010554741614,0.022697372279954,0.00740546077902091
-0.0388405627932946,0.0731953266660027,0.0241085425679155,0.00804780821182333
-0.0253517063312131,0.0645555360433089,0.0235931003803166,0.00695609962708773
-0.0114916790508876,0.0543283110127772,0.0247225221392844,0.00512379336880569
-0.00332447417956529,0.0429822667707008,0.0270412946859856,0.00309314164368823
-0.000553101841469207,0.0532897089498933,0.0265739102524605,0.00112947339355037
-0.00231542688941935,0.0905108716730088,0.0231277417235758,-0.000587246337722311
-0.00343130279178462,0.118369404021959,0.0187878875154905,-0.00196670627290845
0.00641336936824499,0.107139076250486,0.0130161224760821,-0.00301826042764177
0.0219624738736232,0.0792692064556388,0.0059334863141977,-0.00358424900492701
0.0233268428061106,0.0699138523090757,-0.000854735109181617,-0.00319785705553664
0.00560937782034091,0.0657327334384322,-0.00344049213907712,-0.00174893981857777
-0.0120006925978025,0.0448373165169443,-0.00115532273571829,0.000221366898275305
-0.0137132817731643,0.0139374388918489,-0.00317427924804804,0.00198424263542619
-0.0017161528203759,-0.00722193441549876,-0.0128654096057221,0.00304654270191916
0.0114207633122135,-0.00574995216219684,-0.0184215316553145,0.00346213310660233
0.00751426112618925,-0.0121381011305846,-0.010416165896645,0.00359109283715646
-0.0194429864453807,-0.057035546584505,0.00362009620633019,0.00333084946991166
-0.0644522439418111,-0.112032019741855,0.01044048275913,0.00246248570115655
-0.12309704816899,-0.138895323988358,0.0084054165830677,0.0015292105395155
-0.164207934099927,-0.130203449219776,0.00379202704129387,0.000841935238012198
-0.150142766874018,-0.100405221037219,0.00116156368997025,4.09882174758552e-05
-0.0931868220333555,-0.0665535723541437,0.00351786859792337,-0.000414315773616569
-0.0334493516719611,-0.0244863233258244,0.00980669569115121,4.46976406351841e-05
0.00566814450252479,0.0209408220634573,0.0139789897311477,0.000858388546861523
0.0174430626581502,0.0444369796490837,0.0119625068158672,0.00161020521321695
0.0104217858271815,0.0472011265948277,0.00710649827620891,0.00254243653768869
0.00264488622645512,0.0479848525328091,0.00608128771824543,0.00344226244243513
-0.000167149436296064,0.0508248039779651,0.00797522088081869,0.00354315749068817
-0.00567726368862109,0.0511477351010624,0.0061211389511064,0.00260883528642068
-0.016057685278841,0.0439214553946748,0.000176240232956953,0.00128343501983446
-0.0222262652156553,0.0306988690272159,-0.00715938018626318,3.42716336244665e-05
-0.0203067663375604,0.0196338139138003,-0.0138817197806119,-0.00114292878939886
-0.0197036456320137,0.00733157223165753,-0.0173776100984616,-0.00175307449673447
-0.0223165613208442,-0.0151885563917572,-0.0189775784854861,-0.00140284519482494
-0.0202751473997621,-0.0345544133461282,-0.0208803435187414,-0.000591618110019089
-0.0145240007422808,-0.0351220151934203,-0.0227788950355273,2.00611972639264e-05
-0.00658464069310539,-0.0250655611099814,-0.0242454948268055,0.000106472987823217
0.00019771961980934,-0.0328651014527607,-0.028010463427306,-6.78916546264934e-05
-0.00339546058026893,-0.0769359973719663,-0.0338538672775999,8.74476405729626e-06
-0.0118235174593363,-0.126806156883786,-0.0336198017621409,0.000344159874374732
-0.00929307171290105,-0.132559641497322,-0.0249718787820157,0.000731439954799587
0.0053059865526385,-0.0855556434058093,-0.0144753858143492,0.00131694561469445
0.018815081899385,-0.0263020596578619,-0.00642198813006561,0.00209717868402715
0.0244543043667993,0.0175021861819058,-0.00282024678367609,0.00227900622664793
0.0239190943127027,0.0485667572537599,-0.0024008455291937,0.00122512061132434
0.0181580408288743,0.069554009451741,-0.00115314023774938,-0.00031096843504607
0.00791690471018587,0.0728018107475124,-0.00081682843857309,-0.000968173512327826
-0.00777967503664348,0.0275865834545003,-0.00326536417370182,-0.000573492292282596
-0.0285672013586817,-0.0707368483188227,-0.00730563883245312,-0.000178191802191115
-0.0453382475833813,-0.152774617475785,-0.0145029492376066,-0.000659725626920476
-0.0478400282378177,-0.152036663330014,-0.020588300733736,-0.00213476847030711
-0.0339573625581328,-0.0777625982787965,-0.0200311625888817,-0.00379929260837616
-0.00768212367459871,0.0119883716146834,-0.0154357189665221,-0.00451742357167959
0.0236030074820543,0.0667682960761951,-0.00924948175398197,-0.0043211457299611
0.0491421266655039,0.0763609075276859,-0.00243998265392851,-0.0041409485255377
0.0511016284371901,0.0572327819119951,0.00252519354099831,-0.00417631074437898
0.0286354997062476,0.0316887492980648,0.00317899569261983,-0.00394561783185884
0.0168256024498695,0.0141657339057855,0.000720798377854426,-0.00298025197701951
0.0312244669422083,-0.00786544046457167,-0.00122562834897962,-0.000997846088059154
0.0461769027468755,-0.0485123356008867,-0.00216458684981414,0.00149246731086985
0.0504358833366963,-0.0851270344876178,-0.00304230382408031,0.00351842108246913
0.0468768940243045,-0.0834465642697071,-0.00135327760730883,0.00432514196623568
0.0347322208190406,-0.0429693928437123,0.00300660778008989,0.0038793687253633
0.0315304667753611,0.00163456769955359,0.00554147195276382,0.00288920493171243
0.0484124227244701,0.023517373664903,0.00662056092690876,0.00159989276324933
0.0653888347949154,0.0314259714927488,0.00882473355090148,-0.000239848156194356
0.0614022336501191,0.038883937043582,0.0111484292435009,-0.00237531826490341
0.0360100635913144,0.0417082976263122,0.0114674376390672,-0.00419535259290115
0.00437059308146408,0.0338596780397828,0.0100336421550127,-0.0053612151498904
-0.0172180790122695,0.00963082326167236,0.0104775989429705,-0.00575059360558293
-0.0315384119026046,-0.0415391639529988,0.0132641665602201,-0.00532250431192208
-0.0466555828636067,-0.106363324875985,0.0157306109876835,-0.00418488141572568
-0.0487116973970114,-0.14061738798252,0.0157680686907641,-0.00241950019449141
-0.0307271709981477,-0.125689275814203,0.0105043797079731,-0.000560735790343011
-0.00988009638384747,-0.0848139628998618,0.00342543949647178,0.000128857327442917
0.00981580645548125,-0.0431631465203171,0.00187938566382572,-0.000416072416221687
0.0394411552814373,-0.0153352354264673,0.00440325051561143,-0.000547434343379495
0.0663144536212178,-0.0257939020462218,0.0062054526220411,0.000613600336791143
0.0654437426091171,-0.0884917431055327,0.00851853875761614,0.00219603070869895
0.040273838356303,-0.157359399080225,0.0140504513023671,0.00290400730352183
0.0130250348373296,-0.172728901703992,0.0186762772746998,0.00242750814677536
-0.000396475117896693,-0.128054884002281,0.0185977067432699,0.00159288945391794
0.00102642550626715,-0.0565022783651894,0.0164308875901878,0.00112170985567799
0.00342998623095932,0.00754994934718153,0.0114778048914699,0.00101737644926704
0.000506228313443877,0.0540096581388813,0.00166976675052849,0.000863895413591669
-0.00713218087747228,0.0808525968121826,-0.0083354409127251,0.000250129740088892
-0.0221788509866028,0.0861401287667004,-0.0116367063622918,-0.000523554390149211
-0.0429905186443929,0.0731511773782302,-0.00721376424721865,-0.000870554022329361
-0.0656388530045393,0.045078655215453,-3.51260068583853e-06,-0.000907399992480233
-0.0884808722491788,0.0124311320828104,0.00504941773279441,-0.00120209414560992
-0.105088516406888,-0.0129925306866862,0.00778733563098015,-0.00220854465582936
-0.094157966555601,-0.027511145160421,0.0104648910278464,-0.0030785420111359
-0.0486799890156848,-0.0323405176151038,0.0120151360478083,-0.00179870148993065
0.00143056943321157,-0.0312698103383563,0.0100969210446115,0.00186786120433249
0.026545322408521,-0.0239689863541503,0.00410243131082394,0.00568282053605216
0.0392717152444486,-0.0116585730479941,-0.00285495794185403,0.00762561887250817
0.0715332797211344,-0.00585828875280332,-0.00480498840950564,0.00734447893217748
0.108612908306946,-0.0133485473509157,-0.00182818185450991,0.00556850927695312
0.110018016394634,-0.0297619563978356,-7.23163609714743e-05,0.00350278155973953
0.0854396001019317,-0.0382633123432044,-0.00182569266498029,0.00197556893648209
0.0692002105674637,-0.0269944253774496,-0.00359720882988582,0.00107710232093611
0.0631030571551755,-0.010037848626627,-0.0031183143251976,0.00074143483216729
0.0570981861136292,0.00841032319509514,-0.00229044541885234,0.000764332645108743
0.052070472972335,0.0394593181530824,-0.000783393178285217,0.000667501051667897
0.044998178425294,0.0711031651253645,0.00340011202917526,0.000239207351429464
0.0230750508147737,0.0823428442603717,0.00799767048056976,-0.000399810929836365
-0.0237519894214874,0.0729817967981258,0.00805118601013891,-0.0009367122175376
-0.0747745363975716,0.0596060635919259,0.00380241019739463,-0.000999885107527373
-0.0966272029083684,0.0522989954417706,0.00164364823654116,-0.000563977638536988
-0.0895826616322075,0.0491213901917154,0.00204985151531561,4.40614436012928e-05
-0.0692132322645961,0.0490666385320175,0.00360214007588976,0.000519059456521167
-0.0496929322216897,0.052800844044102,0.00765977321390786,0.000914440870283627
-0.0430878269298087,0.0642910658380179,0.00951290910691642,0.00128336623713356
-0.0492087398633713,0.0706952281839207,0.00413920322044975,0.00145644371512906
-0.0599302040550475,0.0550110683183629,-0.00386224174835444,0.00112986139524904
-0.058478621945799,0.0448916785144595,-0.00663054624530609,0.000335216727351737
-0.0367230448361662,0.0613035477584244,-0.00464077610531924,-0.000380184295040068
-0.00472816335843021,0.0828344679547195,-0.00302816486870603,-0.000937064213046763
0.032586652239003,0.0954759862932963,-0.00349403370762726,-0.0013601087354233
0.0695767652683919,0.0917849245471392,-0.00501252173369122,-0.0011966559844957
0.0954831827309963,0.0643600165325487,-0.0053738321078533,-0.000546182907328756
0.107963013721144,0.0311553076583761,-0.0021787031678078,-6.42041715459736e-05
0.103020952830992,0.00477101232514334,0.00403997104363678,-0.000131369327317785
0.0773188707825088,-0.0216253369581409,0.0100393454417312,-0.000881931229548473
0.0452232046602407,-0.0334943041774268,0.0142199784916913,-0.00204442553669552
0.0187115953164424,-0.0119457453438967,0.0172264274685395,-0.00268609462698618
-0.00975426928075167,0.027003692758155,0.0192658361515,-0.00201476620851285
-0.0375510115066681,0.0461193986367376,0.018551145471729,-0.000312856006096376
-0.046893482522886,0.04447923334089,0.0127607754073647,0.00144420702940353
-0.0348428200987791,0.0588946479504076,0.00480910756211965,0.00228086700255418
-0.0157329511080462,0.0895708659852995,0.00152496555862443,0.00151665221497046
-0.00565679974293131,0.0998050289989015,0.00135818648263664,-0.000481327561374865
-0.0133319605903633,0.0744775090998894,-0.000955161280728196,-0.00236312654856999
-0.040945495109538,0.0242733839890866,-0.000947464683195908,-0.00316750654964692
-0.08105558462258,-0.0245589444477578,0.00463865903499386,-0.00309894930943002
-0.104137497235063,-0.0449796050638692,0.008886256652274,-0.00288022641824123
-0.0887617023550552,-0.0402208665633561,0.00628374759043653,-0.00302732765997431
-0.0535656962131203,-0.0254243773701847,-0.000436007570550339,-0.00354954164821499
-0.0253992172214073,-0.0102002022734774,-0.00574741697236057,-0.00389675686405312
-0.00730221515617985,-0.000129023408616397,-0.00646838699171748,-0.00376605172259264
0.00794225421748808,0.00428844460630232,-0.00412129283238782,-0.00316634364575359
0.0151835054212613,0.00253780283968707,-0.0017050617604233,-0.00158727819477885
0.00968036926007264,0.00303435859774494,-0.000178934176437067,0.000869093915649428
-0.000632316638714686,0.00372990376187339,-0.00101627282273685,0.0026392737128491
-0.00994686698822114,-0.00648146863635452,-0.00422055214406997,0.00268083457713173
-0.0160544195287684,-0.0219716501087286,-0.00507883445802254,0.00161542916884972
-0.0168472251316863,-0.0346030192713086,-0.00183564939961364,0.000494912965845271
-0.0117914272750106,-0.036790509512854,0.000835761548293885,-0.000387713508986684
-0.00559347014183989,-0.022576210500912,0.000565551328608022,-0.00112935727537442
-0.0109909886700733,-0.00205847752233461,-0.00142607532376782,-0.00155140626275694
-0.0273884432477645,0.0133145584338729,-0.00322759327469003,-0.00145080572835671
-0.0368787471465209,0.0313192371536461,-0.00379283386072789,-0.00095219464241601
-0.0290275926085214,0.0594504484862826,-0.00306331073146928,-0.000334735168679246
-0.0124276283282602,0.0821321750470157,-0.00155736360691103,0.000137028024800254
-0.00135610081492517,0.0909671056545676,-6.22264045969166e-05,0.000109643924475687
0.0144594193798215,0.102552183573298,0.00242053090599464,-0.000213022293667256
0.0463352441273708,0.11165451837833,0.00621252572399735,-0.000145661954622863
0.0701270501048384,0.0966290033951605,0.00826786566082007,0.000469359890284317
0.0698203970513324,0.0721585358323784,0.00818797595600634,0.00126467808467616
0.0579176019595269,0.0519721737660536,0.0089997648455189,0.00175970564940032
0.0377931537343663,0.0166761066003552,0.00785711665995233,0.00155920039201666
0.00936273127318214,-0.0269625615922315,0.0018837239088838,0.000365426479951137
-0.00613963074014358,-0.0397412477879769,-0.00704985096503272,-0.00108671866642531
0.00545074675952506,-0.0282610387735257,-0.0156822335076132,-0.00129023152850867
0.0153779237630116,-0.0426293532077055,-0.0183744892807641,-0.000144873337943576
-0.01126723620879,-0.101723712109663,-0.0146105080210973,0.00121061051156096
-0.0604223822523905,-0.166936370711633,-0.0100680699984365,0.00210747324884843
-0.0923871138592672,-0.170735952682901,-0.0100880185205816,0.00269335293551608
-0.0879011308188587,-0.0951104686725561,-0.0159408185450907,0.00296571884981118
-0.0553574590982774,0.00861235849381348,-0.019723084362921,0.00255909363736428
-0.0209274028221153,0.0884923116925209,-0.0120323078984477,0.00152025215492365
0.000426084689595735,0.129082192468564,0.00260772820257407,0.000360514862958746
0.0148050240793598,0.137923349114597,0.0110182397920415,-0.00039239714687378
0.0252791252168661,0.126296993434527,0.0115843938729553,-0.000711304109357964
0.0343743895421718,0.101882711726168,0.0117560388170176,-0.000840898889542792
0.045791336964526,0.0668768414422524,0.010435452275323,-0.000671315186786016
0.0532788349760278,0.0249551577044547,0.00406900072786578,1.55543799123315e-05
0.0524913621545789,-0.0187885702025663,-0.00322378301536238,0.00101986201032427
0.0418006777866945,-0.070079968262805,-0.00518101658220772,0.0014171178135663
0.0239198969932718,-0.124890384048488,-0.000514913406024461,0.000422881434176427
0.0101159971179743,-0.151570122535811,0.00577879909787367,-0.00109064932042714
0.00733024723227982,-0.131958942762936,0.010870091683067,-0.00116391258110274
0.0113922902130777,-0.0873795648237022,0.0153464148902226,0.000917079548176932
0.00453047802160571,-0.0585782178214657,0.0178541432504179,0.00364915766746102
-0.0167982063785835,-0.0463051057540496,0.0164527888185458,0.00503796036668883
-0.0315602377005114,-0.013996333359325,0.0110846707068551,0.00452591875447847
-0.0435505733269685,0.0266005945065106,0.0060234499572154,0.00260280389050914
-0.0739835645034554,0.0374220235462988,0.00192857885753332,-0.000181575487509062
-0.112951506522247,0.0143945864816505,-0.006909255743605,-0.00287988737788778
-0.127549122111248,-0.0358978571252933,-0.0187990511680397,-0.00416076245094074
-0.0997005962102217,-0.097777480769084,-0.0253088031630384,-0.00382796583692113
-0.0452124480684931,-0.123511762011648,-0.0242486401448731,-0.00313107811523191
0.00918703003839916,-0.0883484097583699,-0.0205331653048518,-0.00271344096217416
0.0515643979149511,-0.0384287917034011,-0.0185203979614257,-0.00229482825364626
0.073934042584752,-0.0211727546624522,-0.0190524277346804,-0.00211754538568146
0.073732965025962,-0.0349031180014269,-0.0201579387934609,-0.00268517252051625
0.0605388545625593,-0.0746932424584786,-0.0197647747597571,-0.00359592448167314
0.0423760428468619,-0.12831464554072,-0.0212730917733438,-0.00347820217815488
0.0188456311225638,-0.153944854033494,-0.0247191878414513,-0.00124729061513214
-0.00741493266053871,-0.140530370826808,-0.0200666961486236,0.00243104696750631
-0.0205407201901768,-0.114484731850012,-0.0072897003476478,0.0054599079523516
-0.0153838206839549,-0.0848254159507842,0.00216668071225425,0.00645334860521686
-0.00477425920592545,-0.051704262978081,0.00662233499320137,0.00576319874147683
0.00912747767819947,-0.0218080761834207,0.00940128461898548,0.00453230861725431
0.0286733725093695,0.00324743531419087,0.00770817577196103,0.00345839572184839
0.044536258027006,0.0229941088669917,0.00130065754331876,0.00223741050998406
0.0510436467670347,0.0354587775275401,-0.0041343591202234,0.000408217381951261
0.0482255416398003,0.037109931976963,-0.00487133352724959,-0.00177686786981403
0.0392052712680857,0.0267949457867405,-0.0032545183467924,-0.00375257483430601
0.0337884366332965,0.0123305421049818,-0.00312561059745037,-0.00467534783579691
0.0338370884217271,-0.0033825928912099,-0.00421571247608706,-0.00399530124522521
0.0273952690449972,-0.0214690194303642,-0.00474838126519183,-0.0023100427285401
0.00880128110380997,-0.0297133508662543,-0.00441660892967574,-0.00083344792245688
-0.00849819556750758,-0.0214380368232251,-0.0039764446819072,-0.000313640582826621
-0.00868865032705575,-0.00883557504528203,-0.00411132326748023,-0.000510227171476793
0.0023987284276753,-0.00136680246452883,-0.00465226364430778,-0.00085489575820352
0.00725147591719486,0.000118028822951172,-0.00611494989184838,-0.000856912635361204
0.000750891863000269,-0.00326395607315454,-0.00775715124339101,-0.000416485486666751
-0.00991924329561352,-0.00887620854789827,-0.00828858670805795,0.000136425911540611
-0.01317078953956,-0.0162913551790804,-0.00840926019085673,0.000744500504623069
-0.005898769536415,-0.028485777531584,-0.00670343205203362,0.00143302489868407
0.00475705695621005,-0.0379913470584357,-0.00178064852705789,0.00194278602347158
0.0126068481928529,-0.0204258902863879,0.00306910133867584,0.00213048935417744
0.0161077002401254,0.0238563832354949,0.00514871324109046,0.0024199948963548
0.0190099704412684,0.057663870534297,0.00461936518016743,0.00315509994103074
0.0231584604560462,0.0619547285684033,0.00349882485560429,0.0038758326630935
0.0247875979517527,0.048098057144296,0.00518678043531122,0.00403898267621544
0.0198948165660054,0.0338144990318336,0.00932042772139877,0.00356860398844989
0.0106201371509512,0.0316300327329904,0.0134132632418726,0.00292266686916739
0.00377586566103839,0.0386002079013474,0.0158624436451658,0.00258239377424041
0.00412564474493631,0.0479680881221184,0.0129284930648085,0.00228402029692471
0.0126599800850418,0.0630457769768947,0.0054366860748882,0.0015420905917676
0.0224299099569326,0.0851547192196223,0.000142112957181825,6.33091983957839e-05
0.0240077041872411,0.0989137164970469,9.99151429386079e-05,-0.00194484806998224
0.0180444472650352,0.0908295441348012,0.00466342341707103,-0.00343193107862301
0.0111528661405185,0.0767291739995844,0.010034488961068,-0.00327856431316516
0.00583574133060636,0.0749579921114536,0.0119584648114089,-0.00144649020783543
0.00049556327182005,0.0771379526642862,0.0122998096908525,0.000821323136727439
-0.000551945975482374,0.0693151643586822,0.0152780715462878,0.00248013945555222
0.0168062707503847,0.0484271129460387,0.0205463100686201,0.00337617137184108
0.0467811543702468,0.016809551090263,0.0244206400638204,0.00347267490566966
0.0601123255404112,-0.0104045000814997,0.0249211041551483,0.0031142515697914
0.0521683566606198,-0.0147537251617723,0.0228850899650604,0.00282226711498823
0.039709384692893,-0.00363949187058811,0.0203951253338024,0.00231237990734774
0.0256780378243424,-0.00242714680855346,0.0161410723605965,0.000814799571159009
0.0144071015249938,-0.0195043540089167,0.0102623757575329,-0.00210891718548251
0.01515425344805,-0.0367237241387613,0.00904200481416353,-0.00599943248294453
0.0115191926142234,-0.0433997666540711,0.00986715507491379,-0.00945104649120744
-0.0192711950681215,-0.0363041899678143,0.00710715283342873,-0.0103792914990717
-0.0605105233728401,-0.0105384853911293,0.000192928280909468,-0.00747979215841543
-0.0692747768235776,0.0192227386020593,-0.0131432520017103,-0.00220599217444819
-0.0380145847396375,0.0370067282698122,-0.0264210621028973,0.00250432904998844
0.00430173095856304,0.0373603659677263,-0.0281423100940935,0.00481614743487521
0.0261375250680348,0.0228316174861665,-0.0191321586652843,0.00482749933720202
0.00299203048926533,0.0115925841222564,-0.0074631198546973,0.00392626239953437
-0.0482028793260193,0.0168037203369261,0.0016015176601305,0.00316495834513274
-0.0852336589332464,0.0243941683035572,0.00563528412331153,0.00254471531807995
-0.0844579312790057,0.0154365071278702,0.00708518261215025,0.00175584311185725
-0.0448557134570271,-0.00719304380058053,0.00843644546364218,0.00060629752147617
0.0142427185007195,-0.0206061432751444,0.00831976166096366,-0.00101401304270801
0.0675669910401816,-0.00865150634719462,0.00627550378210846,-0.00255715411097141
0.0909270204834449,0.0129555588080875,0.00244321457079656,-0.00333523271659211
0.0784551524263067,0.0294914549814577,-0.000630548065465702,-0.00346564395131826
0.0543092657986476,0.0466863352914683,0.00228362341762839,-0.00301064984273262
0.0418862169456525,0.0585039939332006,0.0084849869414716,-0.00190799595535685
0.0440203356484066,0.0557073321762522,0.00797546225048111,-0.00085151126702901
0.0504586493081578,0.0474534213389903,-0.00176961485635151,-0.000438884705624927
0.0511730106000198,0.0415604805527413,-0.0103708962099824,-0.000546769275248874
0.0428604932213311,0.0361416465310931,-0.0114137942092556,-0.00106756890972668
0.0248456853391831,0.0293734189693869,-0.0126253847459495,-0.0017726612183425
0.00142641032464284,0.0222540748899818,-0.016814440113949,-0.00206441843002923
-0.017171677377135,0.0152479547063619,-0.0160633730517402,-0.00155346664859461
-0.0281813164416519,0.00379134251071808,-0.00891688788960485,-0.000561690120173975
-0.0481663867658593,-0.0202189490347741,-0.00281849249475293,-0.00015965547597233
-0.0865320396957404,-0.0491891492080891,-0.00161249768247899,-0.00162002904822628
-0.115694732573566,-0.0605142340264422,-0.00315127577711236,-0.00438975471554013
-0.115430084896005,-0.0701563639799213,-0.00423474775590025,-0.00548491277451862
-0.101086001896074,-0.119255995006718,-0.00516206266765978,-0.00327367579773303
-0.0854104642207477,-0.176304746992538,-0.00716939735615576,0.000543067078202198
-0.0728686064754468,-0.169432361304766,-0.00734438924804043,0.0034653677287258
-0.063961852694874,-0.0995346519012067,-0.00522958652008973,0.00451722502831182
-0.045273805969559,-0.0176551834007125,-0.00432503639982811,0.00464090157015429
-0.0118454458462068,0.0389554572073505,-0.00590194684700442,0.0047703695984869
0.0192241009646825,0.065138089111208,-0.00641841079189574,0.00440512540046188
0.0343618380629657,0.0748105656524671,-0.00222065648736965,0.00318645242568867
0.0329108531000725,0.0715936778802533,0.00386445831825188,0.00160837665987215
0.0175129618088171,0.0661880206872025,0.006659455723618,0.000233816323677632
-0.000828995347558797,0.0758625501668738,0.00680463681282583,-0.000691387724095689
-0.0148870614904108,0.0940789910774307,0.0100075336571414,-0.00124063622788147
-0.0376573888797787,0.104251296052142,0.0169094206525929,-0.00127889659346443
-0.0805376621998595,0.107694065818836,0.0208546996288983,-0.000732328442438449
-0.126332958635512,0.108638686353308,0.0187362168162019,-0.000313496965891471
-0.140324455780451,0.0902718342585197,0.0155247513341233,-0.000528704561151879
-0.11706810208494,0.0560712141472029,0.012163713683999,-0.000928992483138264
-0.0765406187164732,0.0382784968479397,0.00518073498388533,-0.0011548710249324
-0.0282577062065674,0.0394238872493959,-0.00114933360552201,-0.0010569015098915
0.0108817335960603,0.0328981773880663,-0.00222813782563852,-0.000426898198351443
0.0209000234814539,0.0142410771577765,0.000911816713007899,0.00027865886679503
0.00899814758291915,0.00248462869923942,0.00524241398123124,0.000338201434934355
0.00216754202536874,0.00038331762869015,0.004885759482521,-0.000329469873281576
0.0140408044680135,-0.00532562051193769,-0.000749490940867778,-0.00156747670188225
0.0282058202738716,-0.0201024889219767,-0.00780691345531415,-0.00300625711237
0.0237354056512971,-0.0363314282671024,-0.018327926187455,-0.00355846337393196
0.0068254843041852,-0.0544695478390964,-0.0319969461444488,-0.00277144886797278
-0.000203202075489753,-0.0972026139189572,-0.0389910715237615,-0.00163347500122362
0.00560878743462549,-0.15439868131938,-0.0339620111422788,-0.000889900081651559
0.00987077700559586,-0.155354428891171,-0.0250228030278354,-0.000431875319390337
0.00518940355081703,-0.0799170528544824,-0.0185342915862168,0.000151097811219894
0.000393727515976938,0.00230642661949371,-0.011463666280807,0.00108090365237751
0.000870011580584362,0.0425948412487056,-0.00179544911760178,0.00200030695256551
-0.00676427236146998,0.0542182328627661,0.00487013648191628,0.00263664248077804
-0.0228955827440847,0.0683521969385899,0.00556386961630669,0.00310626073113614
-0.0291020742573215,0.0934542589590663,0.00468728285190978,0.00334200726099414
-0.0250645313584544,0.0920623704701598,0.00287281791165727,0.00273983200334149
-0.0236495332078025,0.0253527980457699,-0.00132803794571056,0.000579306186597984
-0.0272366622084966,-0.066386539201063,-0.00588429926544353,-0.00266436997284806
-0.0267312248508349,-0.105325501817847,-0.0101545961927739,-0.00508832589308081
-0.011166494087351,-0.0860776231178138,-0.0149047398702112,-0.00554697686920638
0.0162807002366683,-0.0591174623466789,-0.0188835679513071,-0.00450330812878502
0.0394516673639938,-0.0513346361691971,-0.0208401311644853,-0.00244025902115036
0.0508263902493392,-0.0595237002605812,-0.0215485356072832,7.05273288232086e-05
0.0562214074452433,-0.0668904270587052,-0.0217056175329371,0.0016703969984991
0.0568459777359883,-0.0621218717532177,-0.0216744574600781,0.0013439250581319
0.0493959156501602,-0.0484096229649104,-0.0222501505254066,-0.000613955660148492
0.0421819244984233,-0.0351916153227078,-0.0215183715229731,-0.00331900647298077
0.0438648256510906,-0.0348844245767253,-0.0175607882539431,-0.00574130962910877
0.048445740464076,-0.037959602191688,-0.015375764547303,-0.00640195545321472
0.0511941379342386,-0.0275522668933607,-0.0191906423214015,-0.00461922825605034
0.049133834489526,-0.0141584648548298,-0.0236130443537178,-0.00174090081676019
0.0388501666232958,-0.0144556326287563,-0.0234908489751228,0.000138498030194081
0.030041528487211,-0.0271400733229875,-0.0202596011115219,0.000674038825477141
0.0265987304239526,-0.0375546674417784,-0.0171333980016367,0.00147584477342267
0.0217974646678483,-0.0405602651922935,-0.0167191768905311,0.00316214770605281
0.0190038598273059,-0.0441998908884472,-0.0165832148876499,0.00437108716539934
0.0192752402795812,-0.0489720105275943,-0.0126596721115307,0.00417915756809045
0.0186608191354901,-0.0513800530671658,-0.00841744184691049,0.0032099661221494
0.0206371913756321,-0.0538509383570264,-0.00537674487164749,0.00252418013511401
0.0255745889793146,-0.0585287026487019,-0.00189893721266576,0.00252057767544787
0.0286925811015315,-0.0673794033425573,0.000697361573786468,0.00286229816987851
0.0271922461695376,-0.0796042268838048,0.00172456088318746,0.00285731541098392
0.0202872855748234,-0.0916957920404505,0.0016520306772879,0.00195982172653686
0.0117186660226228,-0.0959779432571077,0.00351008126352365,0.000439329417132676
0.00531860664900896,-0.0733421646030947,0.00899201587594436,-0.000914430870663071
0.00301717056266666,-0.0263624473396691,0.016107489607149,-0.00149127274843786
0.00832930895628389,0.018729260568664,0.0224466983500065,-0.00146035939689956
0.0221790219862382,0.0499351240027995,0.0275848197036887,-0.00169851019901001
0.0440363672976853,0.0671515628473201,0.0319725174788204,-0.00233284771762631
0.074418347709418,0.073453213215543,0.033272149276194,-0.00236203218228186
0.106838810718487,0.0781208899394036,0.0331787392666625,-0.000975005727407947
0.133120945616913,0.0878606595942166,0.0357067604762429,0.00141158810289351
0.155129574491117,0.0966632444969728,0.0385730913094935,0.00347276254020176
0.16771163908864,0.104888472712086,0.0412225397800558,0.00446132940381256
0.154670915833545,0.118626573211458,0.0433324470407948,0.00540595891926654
0.113282445880294,0.12123786222368,0.0393127502083214,0.00760264994488612
0.0625451180126365,0.0897577089233605,0.0275812044446139,0.00980550355511961
0.0182030333798078,0.0299957184577984,0.0128725257408572,0.00926726701853843
-0.0183532770663793,-0.0167040024167742,3.71375298137758e-05,0.00516867033323627
-0.0416062209662477,-0.0184937480688974,-0.00765529088425184,-0.000746648265494091
-0.0501728793702534,-0.00223000838116078,-0.00975067530472417,-0.00572726168073489
-0.051869869697857,-0.00824589827279519,-0.00759720660102548,-0.00783061501065821
-0.0559870454637324,-0.0302632862255994,0.000496707500390657,-0.00715590300555708
-0.0664233373901933,-0.0354821164808523,0.0143461888084649,-0.00488930220537593
-0.0635252931025233,-0.0176941302941016,0.0280879013770363,-0.0018951740127953
-0.042067427920235,0.0114815985267142,0.0363330202625598,0.00113474821780959
-0.0258694853295214,0.0578456032185048,0.0384179801193121,0.00328475537272954
-0.0206726145171383,0.111803400044726,0.0371340796939029,0.00404579927975394
-0.0227016686167747,0.139883010050696,0.0335424415134911,0.00396656090171929
-0.0278319492143829,0.116348919874171,0.0287197372902416,0.00363493577980571
-0.0234956255821077,0.0371546202692965,0.0265824366815001,0.0030521036860176
-0.00756537830122125,-0.0497482736450474,0.0288119974559493,0.00236325739655407
-0.00120985702434409,-0.0727163332425728,0.0321172704068991,0.00185605931628967
-0.0200310137443297,-0.0239150870120724,0.0322353934732334,0.00158110597463581
-0.0438708658679235,0.0383856794411659,0.0290608993108329,0.00114102160857208
-0.052656894448271,0.0528614537970704,0.0224574446640057,0.000235803528967463
-0.0608007470601338,0.0122779593042588,0.00861139665522138,-0.000900754422987313
-0.0721697242347732,-0.026146954781756,-0.0120520713977357,-0.0021634440366938
-0.0612455475709121,-0.0171209526497709,-0.0301311271776517,-0.00346946264151712
-0.0318787018897475,0.0197910618128344,-0.0350152652994842,-0.00441129993272343
-0.0090389051057147,0.0415683981892779,-0.0269309952548405,-0.00473547110008258
0.00652890931910823,0.0335029628573143,-0.014290015513335,-0.00453926918521502
0.0138042838346329,0.0086172682683602,-0.00468051276319533,-0.00405591322781191
0.00843026186155392,-0.017348364177425,-0.00404743757455641,-0.00318165582293111
0.00116465142952593,-0.0339099059317178,-0.00900239032168598,-0.00147447559344943
-0.0148110378365194,-0.0512049436920493,-0.010106680227158,0.000812729906035796
-0.0581169821563048,-0.0823511652639011,-0.00541312880200448,0.00251208541448489
-0.11814993467844,-0.104185217538405,-0.000246348847452893,0.00251829522371534
-0.16615478306068,-0.0872222738670647,0.000590182385338242,0.000491611765999648
-0.179285882574669,-0.0386121184556241,-0.000530327330516341,-0.00275886738953015
-0.157190087792076,0.00975264606478458,-7.15846241032807e-05,-0.00543088504134974
-0.126075007839253,0.0310857421436165,0.000222714287401532,-0.00605339546850418
-0.106331008120951,0.0230770949695331,0.000928593793035584,-0.00458760112748997
-0.091973993249557,0.00389815897372109,0.00185636585163371,-0.00215096019842057
-0.0729025490403937,-0.0109846154270241,-0.000782028253720254,3.56911183889922e-05
-0.0509187874882905,-0.0176374568404734,-0.00462569253473998,0.00115681995531134
-0.0309120416860022,-0.0241242155113007,-0.00701261342777244,0.000999763075374788
-0.0163083153875659,-0.040196247991873,-0.00808498141197529,0.000260904052532461
-0.0103158028876708,-0.0627356080996963,-0.0092528990435613,-0.000146275372951468
-0.00715092316811042,-0.0784181292187167,-0.011556463589336,-0.000102447271054658
0.00482027114787826,-0.0764747612467216,-0.0114005849695055,0.000104505907069383
0.0225484288012232,-0.0689052056562027,-0.0088647977733022,0.000670619763768053
0.0302051974273792,-0.0754085656268703,-0.0122603259352575,0.00174286159876737
0.0226313116560639,-0.0821949468572847,-0.0284148184034036,0.00263119284115034
0.0151315504927703,-0.0668371333732727,-0.0459698734052987,0.00243625121301571
0.0095812822062735,-0.0354001469401375,-0.0460028412213364,0.00104076955359771
-0.0079827691803991,-0.00287968951229101,-0.0302272891724397,-0.000614206823868559
-0.0234411099369115,0.0199712157869273,-0.0137831323233955,-0.00144661314021655
-0.0202731415320177,0.0327071319569074,-0.0057079644570754,-0.00131299529021254
-0.00787158465681801,0.0416467706794993,-0.00424808897634847,-0.000643387491319826
0.00451175135272366,0.0445329313762253,-0.00235178812007716,-0.000244211037573148
0.014549158687957,0.0429805147963079,0.000701320136539823,-0.000612982679941292
0.023542900236827,0.0409691268930056,0.00228418046311334,-0.000939966191157034
0.0340090152172062,0.0336789901879507,0.00275425962903555,-0.000498209929961831
0.0418102026321912,0.0173574569601194,0.00249337797241866,0.000615567671335187
0.0410948955124058,-0.00263840590536166,0.00156393117091069,0.00231206409189455
0.0352373724890289,-0.0172062561347026,-0.000311586773092076,0.00406645146781605
0.0326630655151888,-0.0220378024549312,-0.00290285799792871,0.00462816340178647
0.0321074121189687,-0.0185506520771278,-0.00497436319184188,0.00353010952281393
0.0269607888235932,-0.0140264469448717,-0.00598609743089353,0.00175715618144402
0.0211652035548022,-0.0126956599297996,-0.00632637528601985,0.000360757346687118
0.0182996185451195,-0.0050587703363315,-0.00484469405939753,-0.000267320138545359
0.0146290069101441,0.0143712150063639,-0.00207840614265302,-9.0746936373229e-05
0.0109884633439576,0.0337648916837572,0.000207406479968644,0.000672358096601891
0.00675299343169036,0.0500136069030452,0.00400024498003979,0.00172494140820896
0.00152606480495748,0.0669871825093308,0.00914183235626206,0.00278181110512941
0.0042027693362134,0.0788350435210193,0.013111165229586,0.00362890534646012
0.0182276612616461,0.0821277766642523,0.0151931525590623,0.00500089227731599
0.0309479417668276,0.0778548304913441,0.0160299935366437,0.00726571475074404
0.03374269168094,0.0698334777752048,0.0169874985697294,0.00795589525772417
0.0308963383230223,0.0594439321628697,0.0164459456984273,0.00481603364480949
0.0264170443998474,0.0436062482426371,0.0125726657827302,-0.000521284407943802
0.0198785673342669,0.0259931580989085,0.00749227143269611,-0.00494288401847404
0.0109980065189237,0.0103238067203914,0.00401671753942864,-0.00737106867991583
0.00540288337383394,-0.00383077970187859,0.00177994957081592,-0.00829188201102223
0.00675245498031403,-0.0308762071629552,-0.00268995134577592,-0.00827566467160691
0.00443073030619543,-0.0807381638871347,-0.0072668038432085,-0.00797971493613362
-0.00805091370409858,-0.106490710779926,-0.00646910533548106,-0.00784528306575828
-0.0178734535887282,-0.0662602524104887,-0.0057173753725473,-0.00730658440085474
-0.0182238822993582,-0.00385921754584514,-0.0125688606039412,-0.00508711369679951
-0.0135548687065429,0.0285206339081709,-0.0180163019222026,-0.00101492754743442
-0.0080026119492234,0.0329827175516727,-0.013138891447806,0.00344923248931356
-0.00187994211284838,0.0222866587098228,-0.00510917011634586,0.00668196367670193
0.00948531244969484,0.013252331064875,0.000177206842851541,0.00836227683170024
0.0208806612297197,0.0194227823369301,0.00451683719364395,0.00904925918456273
0.0235531994748688,0.0331419530020861,0.00869234096656486,0.00863687534344138
0.0193638955817657,0.0452369342504758,0.00797946768150479,0.00665752578448264
0.0172249999819941,0.0535614593575108,0.000892064648500081,0.00306778708938568
0.0231846698205493,0.0617835806960406,-0.00269382147625807,-0.0016160604768262
0.0311974912595376,0.0623247243058107,0.00480496690727824,-0.00621488010751077
0.0359023100694678,0.0354349033824019,0.0168287830770356,-0.00928421623281758
0.033694911480702,-0.0135905565769137,0.0223876087205947,-0.0103426999250611
0.0209962464954245,-0.055447524003379,0.0216241776132193,-0.0103169603474008
0.00878169130133373,-0.0725104129673584,0.0196720209980421,-0.009213486184004
0.00800465303394944,-0.06854135899326,0.0171987647346244,-0.00599672831821442
0.0148699852300483,-0.0577055800152501,0.0127672942869555,-0.00157446498344881
0.0232466170597764,-0.0485654121291112,0.0053093293344085,0.0018942934667392
0.0301507526414844,-0.0423780958592722,-0.00228955773807352,0.00341749007654503
0.0314832454338005,-0.0422311544813763,-0.00864894637335933,0.00340675124922007
0.0260165981420008,-0.044836601578635,-0.0150988234287771,0.00265169558932063
0.0198117794439426,-0.0400872773008376,-0.0214576840648863,0.00160345536407773
0.0183509744905647,-0.0291440173284556,-0.0254601764775021,0.000561552321315239
0.0172520284660029,-0.0244717342813342,-0.0239135964749559,-0.000110072665080928
0.00922750895298592,-0.0264410764548468,-0.0174964217486597,0.000228355791664284
-0.00357193103545127,-0.0164904740505443,-0.00963547375960161,0.00167649364575027
-0.0117978274026723,0.00986603213720538,-0.00441454740749784,0.00286384680090863
-0.0142799759270914,0.0345884166922467,-0.0045668860254813,0.0023948339275765
-0.0186864330237751,0.0533787240380492,-0.00796161363461585,0.000669088007967555
-0.0241644134555856,0.0690390015955883,-0.0110427563025012,-0.00087072800816713
-0.0232141544739804,0.0666625076403596,-0.0124271468367887,-0.00162163810262561
-0.0158411152642778,0.0401615319059018,-0.00923123578067956,-0.0019335505153729
-0.00772497647286236,0.00743152860039384,-0.00100440193075776,-0.00191933639511614
-0.00266931510572406,-0.0113624372637835,0.00593569200781573,-0.00120270791599672
-0.00225616530119545,-0.0116695022315515,0.0085534254709304,0.000170038567575527
-0.0029990502710057,-0.000891152314503069,0.0080283572532826,0.00150675683672053
0.00146725207688836,0.00755452420805536,0.00440307454820151,0.002377718519461
0.00811934602024608,0.00568126867274912,-0.000461427586278124,0.00270610606017416
0.0106826620756877,0.00521303308273349,-0.00469751053244031,0.0027357856671086
0.0144999403738837,0.0133436307860815,-0.00650689690541841,0.00295370219999138
0.0272604116487828,0.0176050883270361,-0.00151547176061202,0.0034696528019574
0.0454923856194522,0.0126707842382581,0.00878420042836763,0.00432832522629934
0.0605552404866033,0.00413153172881843,0.0156844133859814,0.00521014467090346
0.0678311532854923,-0.00817470437400454,0.0154460120407929,0.00520375244545376
0.066578029301096,-0.0154718077390254,0.0137981735140977,0.00418728771621434
0.057506561849034,-0.0123372384400206,0.0139450953709257,0.00290923751721244
0.0467577588431992,-0.0197172683329748,0.0116298160224457,0.00180084832216034
0.0438739581047523,-0.0393956612187263,0.00635249547336691,0.000579689475227085
0.0412993086883413,-0.030890980314024,0.00321991197243066,-0.00104427205236799
0.02904405012705,0.0215923540694124,0.00570502018307077,-0.002471020720721
0.0203172755959098,0.0737873203380772,0.00950841118499528,-0.00295141978399657
0.0262078873772949,0.0932886772206403,0.013876434355163,-0.00250348161695797
0.0344009753576983,0.0928075463698765,0.0220441099803901,-0.00143530413474009
0.0215192298749229,0.080800315270946,0.0256624716470965,-0.00014038458965352
-0.00974692087962574,0.0650654356333579,0.0213061539453256,0.000696097272005691
-0.0266801064653292,0.060536925524161,0.0153293141647834,0.00061302242825466
-0.0213166052873323,0.0641886903238198,0.00963965461911455,-0.00013379508182002
-0.0146583706618765,0.0637310188129683,0.00537973075419583,-0.000936463482889356
-0.0136797548962458,0.0503095977524412,0.0017665762878788,-0.00131484429862936
-0.0144713459539652,0.0276861197700302,-0.0036839178537894,-0.000936706518356354
-0.0135310209252553,0.00368312925127171,-0.00760027734067026,0.000233452488321717
-0.00591187971581968,-0.0244305495635023,-0.00539787675919309,0.00182867886669884
0.00502583828075445,-0.0515476303986443,0.000716712758341927,0.00326080638865851
0.0101002396350399,-0.0639055860395847,0.0029418842528367,0.00395000761805696
0.0103733783234916,-0.0506072968676023,-0.0027847176162283,0.00363231131321746
0.0139578495908718,-0.0100477603705389,-0.00946222356815593,0.0026824126685483
0.0176574478063937,0.0245643656296418,-0.0101868279952548,0.00154149127825415
0.0136063133398887,0.00700362530063572,-0.0101690629827597,-1.76841912855569e-05
-0.000774015676139599,-0.0505366346506361,-0.0122182109687115,-0.00229272153604791
-0.0167747962492826,-0.0793874048413412,-0.00981941797916538,-0.00486202790321364
-0.00672544446759005,-0.0467068624050313,-0.00352916315739435,-0.00654408683179534
0.0284632673310333,0.0140057690077293,0.00198073356926358,-0.00647845223381141
0.0445627313864591,0.0644092416362997,0.00764236390535848,-0.00500075691930403
0.032512927931174,0.0958277620797915,0.0117132018313585,-0.00311209768850146
0.0242288930060838,0.111881205116513,0.011702206066628,-0.00162960234552665
0.0289968976195861,0.116051275679801,0.0105870239442992,-0.000777672541493916
0.0337851629406934,0.111486411520936,0.00793489937667772,-0.000329720620346142
0.0285771689157051,0.0968760738772297,0.00211468081681571,-0.000251194922738331
0.0070410006350924,0.0785700636430993,-0.00298278522085052,-0.000580146675227263
-0.0248623234442044,0.0646541761915157,-0.00587703806405317,-0.000745661532342992
-0.0488717537975191,0.0488261403478686,-0.00830735161769208,-0.000423330136412608
-0.0585135564508243,0.0292326368783384,-0.00882202577316834,-1.99243050955453e-05
-0.0643203026013323,0.000698833592826312,-0.00850806124926941,0.000315661640427055
-0.0773667761186055,-0.0632028208818107,-0.0119850589079021,0.000740572230795956
-0.098738211338549,-0.150349129002591,-0.0175621770995362,0.0011085843184959
-0.121227740152722,-0.192522437198902,-0.0218988677545675,0.00108670858057266
-0.132026542104008,-0.170674980493639,-0.0268760755162291,0.000609621732117693
-0.120950941397363,-0.12813012610414,-0.0322929575149262,-0.000177129019412785
-0.0900875946534398,-0.090629103956638,-0.0324562687133096,-0.00110841754943275
-0.0524103713424074,-0.0607223423599422,-0.025489983257342,-0.00192036863246728
-0.0217685603197881,-0.0260837748138785,-0.0153849504307519,-0.00240502390971736
0.00636988249930109,0.0208513976837594,-0.00554531151778647,-0.00233350916843818
0.0472035488411386,0.0635548816785575,0.00331792856836177,-0.00159895512692287
0.0917879494591213,0.090181273344791,0.00927014761544317,-0.000616001390166812
0.112504860371272,0.108716795621795,0.00856974414317205,3.79384629287254e-05
0.0984809343136198,0.119977096369667,0.0048361913493141,5.15943648811272e-05
0.0594021288925637,0.109860068052523,0.00565257717230972,-0.000300682943976567
0.0145656840931839,0.0881279087073277,0.013647288678037,-0.000244160996301053
-0.0115246168787642,0.0729512677987132,0.0249001229426248,0.000529646481905359
-0.0111074877194467,0.0554087304092423,0.0319522249827045,0.00128230629043037
-0.00491277021910901,0.0276239080672845,0.0326929429134497,0.0011290311590443
-0.012692424590795,-0.00921241432959263,0.029553035434115,0.000652605710859812
-0.0373896324088628,-0.060370356841084,0.0236216223062725,0.00137042480860322
-0.0679055947548295,-0.122152304180567,0.0169648918296666,0.00284590070930836
-0.0840458342208009,-0.175873013944877,0.0134085520768404,0.0030630666783343
-0.0848720968767379,-0.199015233337727,0.0148425491619184,0.00178320328998315
-0.0846388118243402,-0.180939962075135,0.0187575688623421,0.000650853244147126
-0.0811050689896361,-0.135846406163702,0.0197340203294099,0.00111711758152863
-0.0682090764165263,-0.0897107841187059,0.0173832084104169,0.00317085985820856
-0.0542975848594031,-0.0497319747206002,0.0147297284169953,0.00539395184653754
-0.0431558577501633,-0.0133247319613023,0.00758718255590769,0.00591438004976686
-0.0272046274578822,0.00823757554464194,-0.00928218239572855,0.00358253437837397
-0.0111514231115191,0.0236159232104665,-0.0308500163572932,-0.000470575574565274
-0.00607238400117208,0.0544693173695726,-0.0479222372141735,-0.00381759406808385
-0.00370649565741346,0.0890024150606603,-0.0547629194484672,-0.0057871845626537
0.00252733207827573,0.0962527836166883,-0.0464533313246498,-0.00731811882820867
0.00388592172117759,0.0598372050204918,-0.024259598772246,-0.00848174121564166
-0.000974678903530438,-0.00141634473575158,-0.00113986038847978,-0.00826927471102612
-0.00574803455789253,-0.0479471714239445,0.0126758998105837,-0.00629453366083441
-0.00114785263674182,-0.0693585168495047,0.0160498461271592,-0.00307512307799165
0.0187546378950963,-0.0877306110940066,0.0118931530335002,0.000877260017412175
0.0384950451001179,-0.104128256550612,0.00554331732980575,0.00471853856891951
0.0385827597875455,-0.104968925871537,-0.000230090926164148,0.00703791006512874
0.0272471625836901,-0.0996312196435662,-0.00498915758951965,0.00707724233394524
0.020238482668078,-0.085601412237733,-0.00725065303485335,0.00548962996940418
0.0104987012662039,-0.0513974416423445,-0.00569470937809247,0.00365943093097613
-0.00819968620032623,-0.0112800681722192,-0.00309041034444187,0.00235854998494565
-0.0256823446683139,0.0212207167619913,-0.00321892868699077,0.00142718035655354
-0.0359555015973401,0.041243533019483,-0.00477540916489096,0.000628106624362898
-0.0424244739806939,0.0483503435318391,-0.0050871623022714,-0.000186100433061159
-0.0483473432800694,0.0478322966672384,-0.00333481021584242,-0.00112570490635813
-0.0506658459500207,0.0401968693269854,-0.00270868127814747,-0.00205055053498274
-0.0455259524203193,0.0297629599024017,-0.00685418143578116,-0.00285147033908564
-0.0360166114342204,0.0211219519335237,-0.0126553713676091,-0.00340120023269411
-0.0283421958284837,0.01100139018601,-0.0176850910658949,-0.00343412897959929
-0.0234989566370062,-0.00273479798033034,-0.023872268761793,-0.00306791646961572
-0.0153865894717801,-0.0185050832680002,-0.0313571980895379,-0.00292354627959177
-0.00233884909811298,-0.0294399066902655,-0.036669179808686,-0.00329868064226491
0.00839164169051128,-0.0331948686746687,-0.0384417298627266,-0.00386102220503397
0.0142336965574003,-0.0389593140270064,-0.0389020960704356,-0.00420873552798489
0.0182463312542533,-0.0484267963456339,-0.0368142544237215,-0.00394453372249251
0.0210184004756664,-0.0548023171840724,-0.031088094705488,-0.00292432737905179
0.0229058146666786,-0.056257105551327,-0.0252139244403738,-0.00153072984850776
0.0254587629424588,-0.0555771490237117,-0.0212140239687972,0.000361584261946908
0.0280380952479569,-0.0524892647786644,-0.0171436152026847,0.00278466253793935
0.0286785125007041,-0.0362098120221384,-0.0120970752014625,0.00479466445638821
0.0280541035898257,-0.00557904850320358,-0.00716192922220181,0.0061999414336939
0.0275598993648197,0.0229958762516216,-0.00220841622251048,0.00693493013190196
0.0278901731565967,0.0416516217426309,0.00271081528551176,0.00578497246827827
0.0283414083646745,0.0512265503765928,0.00558647842991544,0.00254521577053963
0.0275966244374589,0.0521304149054701,0.0054422323178122,-0.00103532931129114
0.0259357599329562,0.0514025115853199,0.00574863164434507,-0.00315261923548844
0.0234815022789487,0.0521493733054125,0.00887591108601159,-0.00321832289547784
0.0192045316956039,0.0505062246064145,0.0112294997846947,-0.00212534428564146
0.013661736085223,0.0461076412766694,0.0106413487394788,-0.00161654215171923
0.0104608569669946,0.0392614223060752,0.0092969588038177,-0.00241811295334297
0.0100660510174561,0.0311124758975922,0.00797536687895146,-0.00348806635777414
0.00936787221525665,0.025354869665825,0.00737296666987635,-0.00326283668887924
0.00784987703465048,0.0234115719816935,0.00840503891986723,-0.00113317614685481
0.0110981612760902,0.0185139518134438,0.00993330009421816,0.0020594919468341
0.0258015692870635,0.00496139242778021,0.0111921928797083,0.00450724733591146
0.046605152050383,-0.0112095680272849,0.012606787403208,0.00527129936751044
0.061849736675371,-0.0201220267180609,0.013025853938395,0.00491748391570425
0.0684278166896074,-0.0163802770882115,0.0119641493041553,0.00415634415624758
0.0693989188420164,0.00205898377886185,0.0116531587572794,0.00335239603372484
0.0687709649679208,0.0325308156774561,0.00886932408627558,0.00235820522230081
0.0668873782500472,0.0682793841304537,0.00210566056086483,0.000595180202993677
0.0600905583536023,0.0902691778686123,-0.00189919471675722,-0.0018542751199609
0.050494232393015,0.0771673474221969,0.000616323681166841,-0.00402972405153351
0.03861209382519,0.0429877743563941,0.00484150703971071,-0.00539956805428244
0.0142529805937975,0.0177482627568587,0.00535609738445231,-0.00601079670359119
-0.0220941535333719,0.00193546436042844,0.00475074652726303,-0.00594618207463091
-0.0526481471388281,-0.0171408274650926,0.0054403775250787,-0.00519531289093058
-0.0678701401478312,-0.0398873405053942,0.00363663637697762,-0.00349721960997589
-0.0683487429659169,-0.0572678850501808,-0.00352921392493204,-0.00113718632703407
-0.0564904795672152,-0.0492281701481661,-0.011794428905496,0.00111800384889936
-0.0404353441532022,-0.00981602108362292,-0.0137256964901088,0.00297079692548242
-0.0245869992467859,0.0312283633145071,-0.0069861084598959,0.00435724603513868
-0.00683503000713666,0.0462712451567254,0.00355118465941723,0.00501249725841682
0.0141763260433384,0.035901252467333,0.010646031586485,0.00477532606866086
0.0318032359180105,0.00334076620139728,0.0111070866026065,0.0039638977164393
0.0335586604247269,-0.0452111725061786,0.00671360916022158,0.00316402499389987
0.0207256795151881,-0.0755377939674834,0.00185223456756134,0.00253991229182335
0.00729548983462383,-0.0624895368935764,-0.000898481373639889,0.00159654194075443
0.00198574459948492,-0.0273112214376735,-0.00316969303858153,-2.75274931780204e-05
0.00378813966754368,0.00266434115336087,-0.00524327416007513,-0.00187478236610605
0.00589400370756704,0.0216278957566359,-0.00400707238722014,-0.00284178956343059
0.00316201461401506,0.0287926729774324,0.000239212765418538,-0.00239305969790064
-0.00387062997802689,0.0283056035403941,0.00339204227418277,-0.00103353308619215
-0.0126098488078051,0.0256792113779047,0.00392739918094315,0.000795283658932493
-0.0211385654027685,0.0201683277948425,0.00231253427290166,0.00313440161555906
-0.0267595291427094,0.0140256232232251,-0.00031700073612116,0.0052053056628724
-0.0267074068967283,0.00783346413561226,-0.00274195926236697,0.00449075054283241
-0.0229815126235628,-0.00237280522562719,-0.00506889572384251,-0.000635671925210845
-0.0216916162502288,-0.0145503579094121,-0.00761385296794034,-0.00784844501932028
-0.0245686351039485,-0.020380979015313,-0.00981004121688703,-0.0127586926489084
-0.0259767472103162,-0.0215321181319828,-0.00985304832168805,-0.0130151972182966
-0.0244204026015746,-0.0289516071782343,-0.00795610185940459,-0.00890371656081254
-0.0246345524162512,-0.0387798009518534,-0.00642503909242719,-0.00192589679205988
-0.0258505708716859,-0.0433245427317475,-0.00566571270512286,0.0055802468328991
-0.0255124139863134,-0.0485185791642859,-0.00548998792988448,0.0110819172529246
-0.024857112552068,-0.055921169261911,-0.00600333537538203,0.0136660624572544
-0.0237894525465055,-0.0607835252101369,-0.00623954557143372,0.0142582110479248
-0.0209332670128624,-0.0638965471130962,-0.00584397439588415,0.0135284425375866
-0.0187953247230787,-0.0582385019425035,-0.00552597679368764,0.011266121280609
-0.0194587162016004,-0.037160967684706,-0.00531041953786264,0.00756173439837493
-0.0190474985369239,-0.00978247953627076,-0.0047179383663293,0.00294552308093796
-0.0159054627340244,0.0143448875588274,-0.0044284981608929,-0.00211647495762638
-0.0121756502421268,0.032361104924805,-0.00369870571372496,-0.00643028988753572
-0.00889800093017936,0.0461461442408297,-0.00155494098509921,-0.00812432592827982
-0.00634343200003244,0.0541771565947711,0.000628553445253859,-0.00702698864341547
-0.00429737368464539,0.0522255842074109,0.00181827094405951,-0.00496483825260371
-0.00301543499390335,0.0462800056223397,0.00153981980568767,-0.0032291419811092
-0.000741795713469672,0.0431760835398607,-0.000118074519863237,-0.00198267727233071
0.00397575019517478,0.0383674548293111,-0.00215596776871598,-0.00131254126084741
0.00823699713829376,0.0276415894057786,-0.00373823131353794,-0.00127715465368194
0.0105303745735613,0.0167529349804693,-0.0046553732349742,-0.0014356392530094
0.0115392189548662,0.0110971884462571,-0.00375110480806486,-0.00166424335921641
0.0111941998993958,0.00827064407185991,-0.00194497568930561,-0.00259659683981603
0.0118957521588896,0.00265132355341187,-0.00254620078589667,-0.00365143363569416
0.015019380918818,-0.005646481942137,-0.00429536538412117,-0.00298661847269227
0.0170291214191559,-0.0129498608906944,-0.00438796130043918,-0.000485157333530663
0.0159912435613452,-0.0177662184387686,-0.00281276178893661,0.00142530932829888
0.0133193784510261,-0.018337894867221,-0.000188826737827085,0.000725707664876198
0.00985983676950849,-0.014429942699636,0.00255136562903822,-0.00144688011963645
0.00538785152384759,-0.00202115917904021,0.0030246084668827,-0.00208891673136053
0.00116014519655253,0.0195732639044425,0.000389950685454993,-0.000162583881715735
-0.000313309124762708,0.0364200032671275,-0.000198253075480311,0.00238456067971659
0.000754170660122053,0.0423830663694604,0.00306466924530452,0.00344525070341556
0.0024542826793822,0.0471609257354218,0.00575418430945275,0.00306405067257961
0.00499072015234542,0.0538087117096342,0.00624633368001649,0.00259809986124458
0.00671327134460044,0.0550129086210561,0.00437147715489258,0.00385687054462024
0.00505490044707274,0.0482848152753821,0.00160089632353902,0.00877842657776935
0.00173192618000167,0.038676697697143,0.00100021593641094,0.0153387897923032
-0.000293631253926913,0.0256011233510868,0.00180214272004322,0.0172750368982628
-0.00207592092074467,0.00912251554900545,0.00254431326478199,0.0116417060829251
-0.00540968482054654,-0.00148059937453882,0.0038784586247743,0.00202277745562812
-0.00519967547305521,-0.00410935559760599,0.00435073206795029,-0.00596024351828747
0.00156999009991774,-0.00601972831211749,0.00299578610816352,-0.00983403797570825
0.00882999962734243,-0.00993756254697004,0.00147724096776439,-0.0112247299531865
0.01265120333917,-0.015762837218958,0.0021155033034602,-0.0129468189738139
0.0144574980463116,-0.0228109253214853,0.00575579706963055,-0.0157546504791147
0.0151887865109318,-0.0293261332992419,0.0080169952135433,-0.0170918116144458
0.014923086617355,-0.0367723169247427,0.00715375873811404,-0.0147023728902952
0.01131744003112,-0.0360234551296013,0.00635903788252274,-0.0119327634044597
0.00368557397989982,-0.018725343166365,0.0065764232305885,-0.0136441281032641
-0.00273380660409935,0.00550195554037791,0.00836660452541552,-0.0170822405850872
-0.00643900198182458,0.0276845155880696,0.0104415994368328,-0.0144216642365961
-0.00909603605047159,0.0423348143031951,0.0107850768775797,-0.00292321184590794
-0.00958707229001764,0.0489723718263689,0.0107286713969389,0.012448507666432
-0.00699898782822663,0.0510316364454706,0.0102400162197773,0.0247942834446212
-0.00274282439069378,0.0466330091581805,0.00845142006024284,0.0303989970358875
0.00101330552077967,0.0380080335429869,0.00631331648913228,0.0285862298639221
0.00291459269161252,0.0302953973855942,0.00468048630664202,0.0208680966813922
0.00241428617981379,0.0235001082647697,0.00430387994510818,0.010899098701609
0.00184929535628613,0.0142374749773979,0.00456722500051154,0.00267521477478416
0.00265497406516631,0.000452207134836652,0.00511444802702038,-0.00214002453220138
0.00357385055393369,-0.0102778647919264,0.007177889375351,-0.00457239865767558
0.00486803364117848,-0.0101206609340557,0.010536400061727,-0.00596232363963475
0.00397660172761182,-0.00791708851889886,0.0124592299453678,-0.00662868822826237
-0.00375875768000076,-0.0163000774035315,0.0126202040296071,-0.00668976265213316
-0.00806089428231439,-0.0294675071761039,0.0134955583250745,-0.00672177089987412
0.0148991483145541,-0.0246298522905425,0.0160897087863917,-0.00723981114453516
0.0578801899158511,-0.00421892524264066,0.0189739587909435,-0.00827077970923705
0.0829107145268214,0.00318982872800502,0.019344899460504,-0.00951005129903569
0.0824217812391053,0.0061462293474202,0.0194446452028967,-0.0104521328361175
0.0752097052214502,0.0273442131795622,0.0198694475285214,-0.0105752691936528
0.0714873851022145,0.0534333264649708,0.0185281173422851,-0.00990390526800684
0.0730897977050811,0.0656968909190833,0.0180731184710986,-0.00888916322621612
0.0739338816146925,0.0684359633475412,0.0185310234988037,-0.0075820815007599
0.0677691147701642,0.0726999915721549,0.0170279551641295,-0.00602903582847313
0.059433291673752,0.076883470174494,0.0136630176695293,-0.00456324634858109
0.0497641399193209,0.0774082450286043,0.00998649422660093,-0.00271470199834704
0.0362859187103066,0.0747966938632952,0.00438447940416216,-2.97492697559736e-05
0.0224969299886466,0.0657660937250598,-0.00238848901644112,0.00285239133762877
-0.00781107224531309,0.0563835715066204,-0.0057085126470188,0.00556654872806405
-0.0676451777618013,0.0352585816468291,-0.00776849720740147,0.00865498106854519
-0.127392924131712,-0.0317120601759076,-0.0170967418369802,0.0126398337205804
-0.151228129161933,-0.11309866599665,-0.0314295806437591,0.0156145044613278
-0.126592822363897,-0.148295054927359,-0.0360334660572862,0.0134520610548817
-0.0677835572673668,-0.149645268877343,-0.0273979238293444,0.005175125780479
-0.0149888191922017,-0.137885784520684,-0.0168778917312368,-0.00483998459571658
0.00727386458772653,-0.0991598998895133,-0.0102987660908231,-0.0114987366469787
0.00710369027698168,-0.0463478762806492,-0.00404321465827355,-0.0131986214395329
-0.00103616818678119,-0.00213497108064487,0.00490622037469204,-0.0106087830126907
-0.00277096330419634,0.0313629607246634,0.0135655401307461,-0.00492369543941282
0.00782698017425536,0.051352947040372,0.01671384383354,0.00155743600555707
0.0208704850205286,0.0613452800192018,0.0159977110038958,0.00629669572361811
0.0254720500334722,0.0673172479757518,0.0147007296499228,0.00815695503146585
0.0183181254815832,0.0687873240306123,0.0116935437140654,0.00787309426747116
0.00588379045489154,0.0669705959843904,0.00719869743447722,0.00770625516175954
-0.00465654921354509,0.0581428947842729,0.00272757739301653,0.00933940068362651
-0.0140531194798852,0.042889599058266,-0.00312216404907168,0.0111865397885581
-0.0215255989431916,0.0294821618551877,-0.0106115899791424,0.00933488436618048
-0.0225853647986607,0.017429450537417,-0.0166505589224432,0.00242706916235487
-0.0173651103320603,0.00336595340270519,-0.0203186872482975,-0.0060499093672184
-0.00657641466556351,-0.0113749153254013,-0.0225103609422323,-0.0117306280822575
0.00508574582249994,-0.030270076695663,-0.0225647997210321,-0.0127813059226612
-0.00299713926946737,-0.0633584584051525,-0.0196646801050121,-0.00926509206184724
-0.039368982237278,-0.109269172327966,-0.0174802297661955,-0.00315684428928809
-0.0796386650870478,-0.144095867756902,-0.0184659103360606,0.00236505832523395
-0.0976887214746544,-0.145215749016452,-0.0187563223086418,0.00565049558714673
-0.0910158614579265,-0.119062705849837,-0.0169550035539158,0.0072488631724402
-0.0779598549013967,-0.0923092049880299,-0.0140652008153043,0.00886279332682195
-0.0718442816987875,-0.0772125688965958,-0.0115969253616355,0.0112714621735014
-0.0681029204640594,-0.058888364793768,-0.0107640958244344,0.0124655191019434
-0.0614773926798489,-0.0285395540880879,-0.00926305961195757,0.0100718175388179
-0.0488920404429979,0.00257236270371614,-0.00648983336871286,0.00544680208581702
-0.0286104300772169,0.0316446830539113,-0.0034111026092821,0.00230334854316707
-0.0060780929595235,0.0674007836134901,-0.000440839387071618,0.00184694274860975
0.0104121759110931,0.101393000405509,0.00143089716662897,0.00241561303556811
0.0212584667314828,0.114590325693636,0.00156207483602843,0.00244884813040991
0.0317687190838322,0.110362811342418,0.00108844734033853,0.00192146447163897
0.0482050640229679,0.105814121613873,0.00198977446850915,0.00231937387543097
0.0792471038199452,0.105954600070651,0.00332910357202833,0.00466404793010914
0.112200041955283,0.106914122423402,0.00537078448988852,0.00676344586772348
0.124486607003843,0.10676676802671,0.00893922749149645,0.00486425001905991
0.124735196101364,0.101391350225132,0.0110160479200535,-0.00158559817652756
0.12645804173519,0.0942121854543231,0.0122608428948417,-0.00878102446790536
0.11615100189939,0.0912489934782014,0.014928209825124,-0.0121182004279547
0.0865295087901528,0.0784927687717326,0.0167468088371257,-0.0101513964910546
0.0480894740838992,0.0553771021658068,0.0165133139604535,-0.00464553070204608
0.00968846832425735,0.0199597398770811,0.0149200604064313,0.00152869920017714
-0.0261850745685543,-0.0691625997275454,0.0129133795064179,0.00567771866215757
-0.0637362356849095,-0.208357652778323,0.0107356999535269,0.00671806406281701
-0.0966475827701968,-0.324205513555376,0.00834813630122934,0.00529516183453053
-0.111378869241477,-0.350719385247061,0.00587867303136514,0.00274610865598011
-0.105859270149783,-0.264398825601355,0.00337791949119987,0.00033427387993727
-0.0863587269408389,-0.103991027163372,0.00248532623934793,-0.00201191249488003
-0.0580971965391708,0.0514471244477278,0.00366347555960346,-0.00520637467350756
-0.0307053511768378,0.144401548619539,0.00611431250386409,-0.00786147293129492
-0.0206007094830149,0.16199949238371,0.00711417788404158,-0.00696344841953389
-0.0219473737521166,0.13082896055333,0.00419243169710898,-0.00275600377985958
-0.0108880363258536,0.0933948880906711,0.000898461570373138,0.00103731644243632
0.0201659053151857,0.0742788801171265,0.0021181396453824,0.00179016854186536
0.0582740874867472,0.0670986532367559,0.00637447613476429,0.000142090066543893
0.0858350012558493,0.0568386523679527,0.00948854276721399,-0.00188847557401508
0.0883318275234988,0.0379750426787248,0.0104215707679855,-0.00302011993985612
0.0663499000038974,0.00937312420634154,0.00965733660184853,-0.00309943561186604
0.0382039374704646,-0.0247511593608538,0.00859541906322737,-0.00226337083170628
0.0151550452820225,-0.0573012326178316,0.00728602676551108,-0.000636574385030851
-0.00412158604393737,-0.0852728982853876,0.00413540371925492,0.00123074281338663
-0.0210177069705575,-0.10720396252788,-0.00124908305418873,0.00247522549545871
-0.0348576957586783,-0.123215896006872,-0.00620688124442882,0.00229520350696278
-0.0447060311576172,-0.132124907933114,-0.00679910918262147,0.000752619517664703
-0.0506758145310832,-0.122748412931631,-0.00321302579866465,-0.00126508681918883
-0.0550569388603238,-0.0964939949462083,0.000325924051791104,-0.00347401289685089
-0.0615670815882919,-0.0745542746321361,0.00179988337641336,-0.00586999038641303
-0.0681643576594293,-0.0624584277668305,0.00237238964848412,-0.0074789673593623
-0.0685625108676896,-0.049990858241125,0.00236125622273736,-0.00729480726441576
-0.0638855982617684,-0.0389337061823127,0.0014711963746689,-0.00530936461070041
-0.0584651676701077,-0.0343476771340518,-9.9630547311273e-05,-0.00237276141141851
-0.053312025502614,-0.0344052586435927,-0.00168070634757744,0.000131688940511519
-0.0459328220562401,-0.0388585963784787,-0.00254882160083106,0.0012880563123991
-0.035538688464239,-0.0460267083065275,-0.00252445880233755,0.00127908158904837
-0.0273887547090726,-0.0439269082883757,-0.00206991170013191,0.000881568444529482
-0.0267190489759575,-0.0250093683327768,-0.0019989806249799,0.000914194643685764
-0.0298318209284214,-0.00943246249928294,-0.003057245180904,0.0015446765566283
-0.0307189524340607,-0.0184326017386174,-0.00416187307960827,0.0020645988398925
-0.0369247275499359,-0.0494184098781092,-0.00399906887104454,0.00189096130925047
-0.0577308641763264,-0.0863515672930858,-0.00300811355682708,0.00117683554582479
-0.0808875816264631,-0.104475164334539,-0.00311338012179624,0.000459092774578182
-0.0791610774986621,-0.0966798960399904,-0.0044360650228348,0.000402181216115737
-0.0466169728531192,-0.0829097840374338,-0.00255559210364928,0.00165106515695758
-0.00658739885289669,-0.0666365365725897,0.00431147231763,0.00396632754760736
0.0272758532351458,-0.0354695776389063,0.0114607901757042,0.00573950679622902
0.0541562549359338,0.00686719506770114,0.0156298168168809,0.00568438412410511
0.0675468216279654,0.0434782003578578,0.0172261310658394,0.00436847941909305
0.0644642317523496,0.0626447701191408,0.0178860234931898,0.00299508736892361
0.0520651602501154,0.0683433400380512,0.0177902026235584,0.00162683140999867
0.0469451464999405,0.0641092489913921,0.0133428089104527,-0.000144691201751599
0.0576088470923334,0.0556179509033111,0.00707074710570067,-0.00168785306468816
0.0701294731141794,0.0628508113396355,0.00539938608719476,-0.003390258276414
0.06979316949682,0.0836483431240042,0.00558466166353747,-0.007719557393681
0.0608279207416217,0.0958115233648422,0.00416560533300224,-0.0138003133625195
0.0483660793341297,0.090650221445707,0.00561842596882093,-0.0166133023295706
0.0339092138308388,0.0692925415660149,0.012559932605324,-0.0138875454927652
0.0221420783447094,0.0485293942159078,0.0190233796932599,-0.0079231185512681
0.0149058023087769,0.0421656439683176,0.017859709844761,-0.00121234824058777
0.0106796487069949,0.0323929715124334,0.00928135878801916,0.00563996732272111
0.000434155236962788,0.00499628736703617,0.00122962552473053,0.0119281740392677
-0.016022240641732,-0.0212439688251767,0.00180226760780506,0.0158603043737636
-0.0253727067820565,-0.0270065628196456,0.00648180862357685,0.0157634066579566
-0.015962887947831,-0.0254062838433895,0.00394010506520343,0.0111314964973788
0.0128228200229013,-0.0375407502596799,-0.00587071727871346,0.00339106600300295
0.0380163576971325,-0.048600162489382,-0.0125858246289376,-0.0044559082670308
0.0359166993669015,-0.0441465769386299,-0.0102465566561416,-0.00983181235307669
0.00471904812767297,-0.046551115647754,-0.00133926490812347,-0.011827620431078
-0.034775801260633,-0.0496453988102745,0.00867147829037514,-0.0105448037943941
-0.0488224679160388,-0.0208637150909359,0.0146490267822121,-0.00570921374848669
-0.0328711008355837,0.0316729352856055,0.0169526779969912,0.00255852012883712
-0.00979389593370342,0.0751875050299519,0.0179127535378905,0.0109905533356427
0.00595818745662936,0.0914481284099074,0.0165790779749291,0.0138289691639931
0.00936756049386621,0.0774721634738618,0.0112583456444274,0.0083198258829019
0.00187655852152067,0.0387302365537015,0.00145401534332145,-0.00171763763898573
-0.0127381895697347,6.29576553035915e-05,-0.0108039716929829,-0.00976149378882822
-0.0277294888675302,-0.0160880679843966,-0.0217898285651101,-0.0126760497790436
-0.0348594432894728,-0.0188359018886481,-0.0281163096192744,-0.0114863744636036
-0.0320547788333044,-0.021147958029052,-0.0275969980116743,-0.00831911987267757
-0.0089271547271623,-0.0216171284802486,-0.0230828137807882,-0.00490911728685927
0.0354435535476821,-0.0213143615475703,-0.0198099662681604,-0.00231916627728266
0.0770684519002755,-0.0235014141951276,-0.0179788063774847,-0.000448840902448113
0.104230410528837,-0.0298655121540693,-0.0170055326118207,0.00122331358949815
0.118155667713069,-0.0409970083661105,-0.0176776138727352,0.00256338985216171
0.115497149107258,-0.0451863171006154,-0.0188841434633425,0.00331122198542153
0.10275024653717,-0.0357585336733137,-0.0181617522393385,0.00351844481350186
0.082508777544338,-0.0207045130579649,-0.0149860739106385,0.00293076218863602
0.0444798884011813,-0.00356654072075654,-0.01040917064381,0.00170238837899807
-0.00158900682750077,0.0124162885435037,-0.00560969841047425,0.00083237731596551
-0.0348593890033599,0.0248653505309156,-0.0025282228222076,0.000842013162157084
-0.0481232795026401,0.0355024634610922,0.00032106607860139,0.00135652595296693
-0.048682909487253,0.0396874859736902,0.002555911047077,0.00194979831821304
-0.0486118323800636,0.0323719675092609,-0.00108940574770555,0.00281427721023578
-0.0533628387081065,0.0155608552456959,-0.00824601253166452,0.00462244708665897
-0.0647384944880115,-0.000130170369309551,-0.011586417421349,0.00644941270628978
-0.0826468233765832,-0.00321726121990122,-0.0100339958304041,0.00563587976924779
-0.0968191548949243,-0.00330204492692211,-0.00781621546725725,0.00194445044438933
-0.0867511484733525,-0.0101735908889267,-0.00695642218155414,-0.00220346126511449
-0.0503586133430721,-0.00649315982936236,-0.00466328307105778,-0.00497256972780752
-0.00288422609446722,0.0170097053889668,-0.000920460521643173,-0.00578845134229741
0.0503754207179995,0.0380319456062449,0.00302189372489847,-0.00481129484112925
0.100714140978433,0.03872995346889,0.00651832676785206,-0.00210242654634732
0.125317813155634,0.0296748180955375,0.00777514207620896,0.00206675908405073
0.122615226398292,0.0235085507012165,0.00547717180197194,0.00598797052300964
0.114742469650156,0.0221926637573809,0.00226636638111487,0.00746737985007375
0.107524898030937,0.0352484160539717,0.0038296465513553,0.0062572403561447
0.0942098281474143,0.0679238778007793,0.00933252009001689,0.00450913565103979
0.0736249130179998,0.104019070187836,0.0141884006596598,0.00383310629472082
0.0481461538327939,0.113931798217495,0.0145440644166244,0.00344409585105092
0.0226970486938678,0.0684255382754666,0.00974503667165317,0.00222357974364659
-0.000267908722209526,-0.0210892346384891,0.00654764103637191,0.000256859483449393
-0.027842563029457,-0.0894415283703456,0.00857937104204062,-0.0017348313022488
-0.0594634485696087,-0.0863324435072607,0.00956109578242303,-0.00308415474767131
-0.0863244103420752,-0.0341408806304312,0.00696622591063795,-0.00294298138673008
-0.116663872030647,-0.00320077524426645,0.00314997104492409,0.00216624682341024
-0.150954803331913,-0.00976804878155274,-0.00260738135243146,0.0150113559368923
-0.161453351850968,0.00302614322625978,-0.00791248807648818,0.0292393955252097
-0.119987467774126,0.0484261824883034,-0.00843874135475652,0.0334573574078731
-0.029164517761931,0.0930577449903286,-0.00430410297328138,0.0246127977630723
0.0722474048466716,0.113586579147375,0.00136412512320715,0.011076425517637
0.13715773224138,0.0967038921800724,0.00570722384627419,0.000688399655926916
0.141003721959824,0.0567583063988041,0.00655945649368393,-0.0068413039337931
0.10187599831031,0.0112044098420076,0.00169758451661375,-0.0135106753185107
0.0588869609206858,-0.0307912262356026,-0.00484141761528187,-0.0199438803261464
0.0303698032456968,-0.0417287617600099,-0.00542501449974185,-0.0275481282849996
0.0126395203008111,-0.0164719671144227,-0.00059924060060931,-0.0363172703379106
-0.00120934015173805,0.0126781165305854,0.00394393548115397,-0.0430933283966634
-0.0166704146067959,0.0149195318328735,0.00531831861866949,-0.0434267171857019
-0.0392458969663921,-0.0126281350133171,0.0031105545261926,-0.0346638275328833
-0.063913925800254,-0.0372257432132853,0.000126477181461701,-0.0167122038586557
-0.0753725305183508,-0.0329612654950834,-0.00079987263230121,0.00792563731830955
-0.0663211347898449,-0.0130168139354797,-0.00161047887898391,0.0322619247798267
-0.0471129620027476,-0.0061472705137201,-0.00367967095755095,0.047729207894495
-0.0339440648687379,-0.0176457138859343,-0.00675697151857437,0.0505943523213553
-0.0306946354164987,-0.0325355654138778,-0.00952910318221956,0.0431496217617618
-0.0318982981959573,-0.0466231905875222,-0.0111466802568093,0.0298149597295875
-0.0325003256850129,-0.0565956940442504,-0.0124124157128537,0.0145091258747236
-0.0297000820399669,-0.0536710965119322,-0.0125705891256741,0.000614835586938332
-0.0228991106062985,-0.0440182539965809,-0.0127904047845046,-0.00955201841166082
-0.0144777914679609,-0.0434708214644341,-0.0151196742530533,-0.0158671070209005
-0.00808361842057126,-0.0523871034481031,-0.0171125049483726,-0.0199244325720815
-0.00280067176972047,-0.0600158219033128,-0.0169654417078445,-0.0230410930571035
0.00326684120779415,-0.0657397693218386,-0.0172620612638344,-0.0256540674168951
0.00719422180261639,-0.0715391517652179,-0.0185713146600286,-0.0284064317342308
0.0058815081877108,-0.072586996732222,-0.0183806482089554,-0.0313168346722291
0.00122774636050026,-0.0591430218063761,-0.0147125732140954,-0.0316683376906456
-0.00350066681869265,-0.0296433039682987,-0.00930745282493521,-0.0258248262722655
-0.00544968469843773,-0.00222120011001788,-0.00728596631511892,-0.014099965504512
-0.00417733435602441,0.0137433708715354,-0.00872267715304478,-0.00140795516745988
0.000408802157095238,0.0331601443737667,-0.00804161160930289,0.00744729319965855
0.0115898520412187,0.0590724718993425,-0.00360721651736658,0.011109321601636
0.0251983967578081,0.074476153463226,-2.64437230350239e-05,0.0104202119517628
0.0338816375235231,0.0718931173234551,0.000526139790202606,0.00631918800694042
0.034298031423472,0.0567919808768463,0.00104017473432981,8.80433634829732e-05
0.0283889822914426,0.0374407491932531,0.00110450166295891,-0.00617944374200921
0.0239599018729578,0.032048749763071,0.000207243513283994,-0.00968867522443379
0.0238381330271471,0.0500877861430935,0.00259761928426363,-0.00797715965511892
0.0267601643062925,0.0687511221314135,0.00692537182731422,-0.0017297568739038
0.0329421990235373,0.0754673846778657,0.00880058812302462,0.00542140439335573
0.0406363061556415,0.0784915798018845,0.00860381313400959,0.0109283173417056
0.0486602283975172,0.0716657096082562,0.00894010166836919,0.014361754282661
0.0603035661031827,0.0490312639624673,0.00989591639540323,0.0148956995196798
0.0681935570893655,0.0230178219345697,0.0100823156605258,0.0113222283039632
0.0593967296238998,0.00262135783667988,0.0107452443079132,0.00436041346955089
0.0316745353538301,-0.0200780615700984,0.00972855373139247,-0.00334174871390228
-0.014555795832846,-0.0460916339610906,0.00284973489424656,-0.00956785462644966
-0.059436380796112,-0.0625787815159367,-0.00693649892011816,-0.0135107744313837
-0.0742463467785472,-0.0509444669869224,-0.0125940653539083,-0.0154362872937051
-0.0629944070045326,0.00684401563679771,-0.00980064119203555,-0.0163194822125422
-0.0468295442803545,0.0836139368684236,-0.00215917946658973,-0.015440515000326
-0.0347057992793526,0.120306016148137,-4.37617639286406e-05,-0.0101149623652349
-0.021167835082772,0.123097390685809,-0.00733278216521179,-0.000747617634073404
0.0011741596883247,0.137575570377745,-0.0146654876488283,0.00820523209197219
0.0278246968259757,0.136836818590228,-0.0129191825839193,0.0132601845727363
0.03391288407634,0.0721722887443747,-0.00469034447126208,0.0138109832621588
0.00745225712379786,-0.0165048932993995,0.00320223612068379,0.0113923514796814
-0.0135605157565673,-0.0470451916156823,0.00594373210385891,0.00879312935791642
-0.0052171755517619,-0.0132514724583371,0.00330587871984547,0.00766462562571402
-0.00272314592362571,0.00915307194961873,-0.0029671406296592,0.00739793773541006
-0.0272176834645631,-0.0274314731134415,-0.0125436958999256,0.00767571261740498
-0.0465036291096064,-0.0860687322958933,-0.0211344015594273,0.00947113945092852
-0.0355423151623458,-0.111339717759751,-0.0236721357259701,0.0117580352953949
-0.00973123232755153,-0.0949817348304658,-0.0201651160964928,0.0108464722779869
0.0102154712649521,-0.0628451329242746,-0.0135109488465541,0.00545361537069252
0.0153754843397473,-0.0353728123071313,-0.00572007625043222,-0.000577907359337014
0.00427209894334275,-0.0130636559767502,0.001396943464807,-0.00313324808703814
-0.0151871601201605,0.00895657313697948,0.0055591830722282,-0.00193968834033228
-0.0376530593968971,0.0224669437910811,0.00648315506184443,0.00100560052506074
-0.0591187544140235,0.0212973858447181,0.00458789106687795,0.00383296688868685
-0.0667542299009597,0.0160171365041018,0.000618677176471827,0.00569574025999953
-0.0548647883885876,0.0119051617302583,-0.00261739906923325,0.00658784534618426
-0.0319525626334857,0.00399589691033125,-0.0059728047000452,0.00663783717387071
-0.0162328416997403,-0.00688658572946999,-0.0124382635092744,0.00575837821064669
-0.0223913153102464,-0.0150996525499681,-0.0180815269985554,0.00410378582008097
-0.0386663938574618,-0.0217469955070085,-0.0182777187215235,0.002738552971943
-0.0423699286111613,-0.0314418391266902,-0.0144868680517923,0.00275510271939601
-0.0342315148603738,-0.0401280314078827,-0.0112991007604116,0.00358897885882071
-0.0295012187164473,-0.049102453165847,-0.0110689804111134,0.00342141127880126
-0.0300135741365878,-0.0618591877366963,-0.0122345492941682,0.0013186485124497
-0.0288957001711551,-0.0687762224142781,-0.0130958216011876,-0.0017066416942508
-0.0283653110995056,-0.0705010438747496,-0.0125234278914041,-0.0037632115134727
-0.0313268849192062,-0.0748655525861774,-0.0104771442711218,-0.00334039208631122
-0.0304198783285845,-0.0751402564506078,-0.00754103113147565,-1.92276963361538e-05
-0.0207462463354976,-0.0628276775417136,-0.00495469754170675,0.00483944211265255
-0.00631900022337356,-0.0385883531190084,-0.00356371282448626,0.00918827387458077
0.00808262512739451,-0.0111075008444019,-0.001563191142655,0.011630770150625
0.022504579067806,0.0126783797014432,0.000884391298763948,0.0114255041254099
0.0353799681489634,0.034866918165198,0.00165925185503604,0.00898374693430741
0.0455689105279958,0.0549780601990419,0.0023183425532495,0.00548648019533357
0.0553846903777185,0.0617117673392225,0.00253866627756911,0.00165860002108689
0.0583963210836801,0.0496754311931942,-0.00040200215934001,-0.00221298854190052
0.0582086702825849,0.0383964180954093,-0.00398566132002129,-0.00553150862544212
0.0658268177776938,0.0461523497173712,-0.0044645853855612,-0.0080078755771831
0.073221815590964,0.0654036983821341,0.000785602659955288,-0.00988921968778294
0.0771480841432123,0.0794032328593923,0.00899498361628838,-0.0100488859736221
0.0852240850121275,0.0770355912703204,0.0130309404540544,-0.00698246469813903
0.08664494881753,0.0515869997679053,0.0140504748828957,-0.00147259098353099
0.0579910025224449,-0.0107452534048839,0.0163332461325065,0.00319391705330589
-0.00210531967347607,-0.0970757239013401,0.017084213085113,0.00431172992347024
-0.0596074271415361,-0.145027364443717,0.0151376753500483,0.00271853584682156
-0.0808960101026677,-0.118119727363253,0.0152948425824976,0.000760299371996108
-0.0714107566592676,-0.0490902083471453,0.0172630723503217,-0.000215282667619226
-0.0552910618128886,0.0036942362029844,0.0162806671289413,-0.000189964245408018
-0.0454310747734455,0.00648914249375204,0.0117367208812011,0.000377119825405033
-0.042957819478063,-0.0216258095873682,0.00848492200334787,0.00169974955801533
-0.0415343304157744,-0.0237484423821031,0.0094931787861107,0.00469351042187168
-0.0335113654013592,0.0289670424583774,0.00834766001047248,0.00871117264235721
-0.0126934094921462,0.103810861044369,0.00085441021139707,0.00924058291560287
0.0180727893413772,0.143358449139336,-0.00513322751261831,0.00186872120900548
0.0394455456272442,0.121065311804872,-0.00303736760687447,-0.0102502347693116
0.0420881345153048,0.0673050616888228,0.00237474927320689,-0.0175824392525724
0.0446701594556553,0.0208543867930307,0.00333658513148669,-0.0148570741729062
0.0559231435205195,-0.0156580762739229,-0.00117825603098585,-0.00603031900947998
0.0564799781166199,-0.0456903216937218,-0.00620383169139586,0.00202564266417431
0.0373546587559541,-0.0601411422317021,-0.00747094257750179,0.00592626535373123
0.0138940147599117,-0.0521520987508081,-0.0041513306594036,0.00545712201474862
-0.00362837631947612,-0.0307035577647514,7.0506930948221e-05,0.00202994754089375
-0.0175721616297878,-0.018113528855504,0.000135190559422304,-0.00172678748555287
-0.0278973132752738,-0.01961947324514,-0.00273828646743255,-0.00348483499738397
-0.0359593525414079,-0.0215713358912132,-0.00430784967148485,-0.00361020061991794
-0.0429691606978847,-0.0256536068479856,-0.00319103392716487,-0.0042446751044432
-0.0413954224972578,-0.0381403858577151,-0.00107999155692024,-0.00481620146484058
-0.0276202253284801,-0.0533949143792452,-0.00146765613885462,-0.00305843924447309
-0.0124291485176707,-0.0721002421309261,-0.00332275954071984,0.000628777545494435
-0.00609599829910757,-0.0884106164507248,-0.00295529500137488,0.00421553832995665
-0.00514076829684431,-0.0847191907081608,-0.00107072839618087,0.00649455108091423
-0.0021784247836757,-0.0557022287924012,0.000691278018978111,0.0070105903830446
0.00186025058097142,-0.0168209082244843,0.00137851603200783,0.00613367089659617
-0.000263524891925881,0.0107949144331539,0.000883109798200742,0.00465949089799955
-0.00857602614593117,0.0260467460034886,-0.00102603258567915,0.00279633642807982
-0.0143365784263811,0.0366671758864975,-0.00432449896265679,-2.58714347218247e-05
-0.0147170849077821,0.0409440004895527,-0.00675388700830902,-0.00306510077343818
-0.0152518830316479,0.0410198579756377,-0.00786742738732378,-0.00124151007829972
-0.0193670282167384,0.0410935411199555,-0.00825986789406378,0.00905071292945751
-0.0247678340710137,0.0383181039755542,-0.00818904752571974,0.0209497973095465
-0.0302055748869898,0.0311188528099217,-0.00926758464658373,0.0235273073079541
-0.0359013555386372,0.0216997197429961,-0.0128860998801235,0.0143109207313375
-0.0385285659258713,0.0113817532827344,-0.0174297202341934,-0.0012063769363032
-0.0329196862139447,-0.00104950275327977,-0.0204081835472973,-0.0165604664834629
-0.0135020721098258,-0.01554336693802,-0.0195008485994832,-0.027455270903069
0.014217684900019,-0.0293074405904454,-0.0147895859031088,-0.0329065886904939
0.0326997659658995,-0.0481869460381187,-0.00983688220819779,-0.0348342304645218
0.0356371732882145,-0.0714338736479503,-0.00742825087234091,-0.0363211471545261
0.0314209366761145,-0.0829061565660166,-0.00755319869205737,-0.0385886138135573
0.0275149191060854,-0.0767443228052593,-0.00645172968809067,-0.0369976710461113
0.0235095568839443,-0.0516159114801317,-0.00261182159328367,-0.0242199641860132
0.0178662915691692,-0.0117704621533548,0.00294712768141643,-0.000263560772980988
0.0150538494124968,0.0240753773008619,0.00777495998240055,0.0252153363192167
0.0152528642825778,0.0491190095137541,0.00900289028403834,0.0420164901403259
0.0119077099821702,0.0674686323678401,0.00903635783684521,0.0465935527020417
0.00297038444921288,0.0770508899118086,0.00937662910834727,0.0405579784402368
-0.00660243340713501,0.0791206706196335,0.0102886405215417,0.0276663699689332
-0.0131741004670603,0.0764354970921488,0.0122393764178152,0.0130746521139524
-0.0187145115333588,0.071095830887659,0.0134867060126679,0.00244974548341295
-0.0237256359481051,0.0631134698143311,0.0135142286383482,0.00036728940345623
-0.0285949640502264,0.0540904740434945,0.0112684053795017,0.00592715019879736
-0.0345036335502506,0.0503143457980163,0.00709470332641809,0.0103301107397181
-0.0439244476497305,0.0436075510428668,0.00489818219193693,0.00555372826484237
-0.0554223156416191,0.0232332111104614,0.00573674751401923,-0.0068308844949625
-0.0528901745552624,-0.00323022041846657,0.00730813943142948,-0.0201663315358464
-0.0305683353889647,-0.0274485903682624,0.00625026335516543,-0.0306884799165075
-0.00876182450561559,-0.0507137954335035,0.00128044293676357,-0.0371385142632926
-0.0026395824073522,-0.0726453846199274,-0.00334971150052347,-0.0382222630383317
-0.00874850489897388,-0.0890383482568989,-0.00387839137480096,-0.0370144593302891
-0.0170755266283259,-0.0854495293704449,-0.000887560565247366,-0.0401686425792005
-0.0181657692725436,-0.0549317803511363,0.00492426229200995,-0.0445814157658218
-0.010296713266616,-0.0161298655777798,0.0119758219700902,-0.0368838970976136
0.00406281464797047,0.0166882425990761,0.0172809249690438,-0.0124124623558724
0.0198033492701531,0.039838001564863,0.0185488435015016,0.0174495786887002
0.0304786110469899,0.0538415124405583,0.0158256186342385,0.0389788839932661
0.0365096272962373,0.0633404620856915,0.0131558245300773,0.0473955508911817
0.0370054803191174,0.0680821964121526,0.0123587122045,0.0453752147492173
0.0293287670212113,0.0678626438344731,0.0111514496279603,0.0372882365578961
0.0146664155549244,0.0617927106892987,0.00863615072017692,0.0260859478318787
-0.00252407699634304,0.0490711175124197,0.00717834731409937,0.0141070090923488
-0.0128800047535604,0.0330824930153406,0.00735052366041652,0.00355425036941344
-0.0119165442098621,0.0174425098848962,0.00622790567380352,-0.00417094136058664
-0.00540759608727698,0.00768365493911236,0.00415652650890554,-0.0086511344421139
0.00232823329675564,0.00680615381998575,0.00332520972185596,-0.010823493536294
0.0127272631615075,0.00695655805110372,0.00377223662103102,-0.0119537388821724
0.0274645897511965,0.00432756257859537,0.00569722312435686,-0.0122496856607896
0.0451131873247428,0.0108990722944356,0.00859459201721812,-0.0114116222036682
0.0576242357582435,0.0294017123703165,0.00964558169833011,-0.00959460653194317
0.0560258437055445,0.0458380727447729,0.00843019797114218,-0.00726296504467266
0.0414346612967037,0.0558799944150889,0.008545240890885,-0.0044907723283275
0.0237968028730939,0.0717053751674469,0.0120900010333123,-0.00111568526849614
0.0101566530474533,0.0954347719714064,0.0156304541604506,0.00245874791531123
0.00192201255060529,0.108845136463152,0.0160515767621605,0.00504780714449509
-0.00350803242327019,0.109934244677423,0.0154238122247192,0.00576832928106153
-0.00765666661438367,0.109477143639565,0.016258605062143,0.00518905111424026
0.000396008052146762,0.0981638474266372,0.0190259895085163,0.00443047243315993
0.0303912853731037,0.0767413945826998,0.0209436593054828,0.00396041467837288
0.0706151596994554,0.0621227785445554,0.0205386713865765,0.00364811974882695
0.0942395657892231,0.0501410375453192,0.0185982234005383,0.00338168291768141
0.0976161681359415,0.0354834951817707,0.0139840679489363,0.00430447603228178
0.0962848259410291,0.0239697149425154,0.00767822062268031,0.00769935393146838
0.091333151525588,0.00797207644395415,0.00119076959292638,0.0114765514678669
0.0906187084154761,-0.00218343417999203,-0.00811059659897127,0.0116323069125545
0.102509806737647,0.0222291256854327,-0.0188916326057592,0.00792390586877711
0.109603739319237,0.0739081609860983,-0.022366134014529,0.00398899506143899
0.0921743432732474,0.113438911842761,-0.0176782401853802,0.00249213356341518
0.0454307475151129,0.08683015384912,-0.0122694382781983,0.00285481878277461
-0.0196631356905009,-0.0459269033433009,-0.00911192206072412,0.00317201324267122
-0.0697782935939899,-0.227498812835381,-0.0100897884712633,0.00306840197643509
-0.076129021693763,-0.325162416081933,-0.0139459670090894,0.00345828241207189
-0.0481935962291084,-0.29326564734736,-0.0139767328202944,0.00440479984168578
-0.0172354132080936,-0.186693249707781,-0.00932682979911954,0.00468555021187322
-0.0055705560213526,-0.0667213846528999,-0.00532194502467487,0.00348534833666534
-0.0146964832214616,0.0263039803501174,-0.0035149746798802,0.00141089679428609
-0.0223235109641671,0.0852370285091862,0.00013514959320849,-2.0436753351053e-06
-0.0113649403227574,0.111595739804399,0.00739406166226839,0.00103987596892331
0.00306698931041347,0.108074666106124,0.0133656718987447,0.00429292912335053
0.0010247678633039,0.0918983929090528,0.0130569091890559,0.00774355501841564
-0.0110013831384655,0.0711751044399793,0.00819683746144742,0.0105913357632646
-0.0115338467706353,0.0404400031230154,0.00271273404467194,0.0132291770941752
0.00314396678755997,0.000405005037461062,-0.00177372298434198,0.014535298827718
0.0174042600402141,-0.0402241844507748,-0.00556866249879284,0.0102880732480831
0.0207760637591254,-0.0719302280532897,-0.00955525204812929,8.24284701281611e-06
0.0166638393446721,-0.0884174056759371,-0.0123943756590259,-0.00827694339756098
0.00998827696817358,-0.0973059810717245,-0.0132852064955442,-0.00932076593348338
0.00231080023563887,-0.111897955133145,-0.0134881168491257,-0.00760490037002881
-0.00254883370988186,-0.130666334041426,-0.0148322460894703,-0.0077084106572274
-0.00384789607964468,-0.143197896879043,-0.0169650066292316,-0.00923279057768868
-0.00526671421554555,-0.144723189896674,-0.0170110238774604,-0.0121931832540412
-0.00913832921397603,-0.139759628171132,-0.0154503586920705,-0.0179008525899489
-0.0152030174115478,-0.127088502702808,-0.0129771848004803,-0.0225582129136333
-0.023547467345589,-0.10014442634752,-0.0101788350953537,-0.0181942777576365
-0.0347277078808846,-0.0685539255735377,-0.011026175723234,-0.00401018260637308
-0.0436157649487667,-0.0446099429486586,-0.01440804031227,0.0111538875043302
-0.0441747903129219,-0.0287644173562883,-0.0161045607354538,0.0190805262619335
-0.0360643326724336,-0.0191106304986182,-0.0172265546019189,0.0186232528364037
-0.0241690440635951,-0.0132303314790136,-0.0173204386440125,0.0132887736822568
-0.0165954855616375,-0.0091508998573171,-0.015560722405108,0.00685719263403251
-0.0133747108960757,-0.00873625688035776,-0.0139702744936447,0.000735583743239588
-0.00848218534069022,-0.0126543653850205,-0.0103869832667584,-0.00504780600305293
0.00287520407610911,-0.0149916985028713,-0.00459417118817504,-0.00904531935361259
0.024083343367919,-0.0130602467679513,-0.00108521735907763,-0.0101239804376057
0.0445886012401396,-0.0192146395775304,-0.000291536879693346,-0.0097371188798703
0.0504949791749231,-0.0451255349753234,0.000701963456998082,-0.00959156779650428
0.052980423692234,-0.0746849291742304,0.00343850430233095,-0.00996951026959032
0.0640055108170664,-0.0809905334907974,0.00791072718153912,-0.0103695970204157
0.0726808511142293,-0.0564300939918117,0.0128786355516705,-0.010327212114544
0.0749655259789727,-0.0195268616856358,0.0149196055327035,-0.00901142959531352
0.0738576877125888,-0.000562716687711212,0.0118990406583647,-0.00557633252284974
0.0637634919233748,0.00056139983990916,0.0104933382576769,-0.00160568676206742
0.0442962216725211,0.00374535095796596,0.0158222239451211,-0.000244515606045819
0.0244069604500671,0.0147957003690675,0.0216013817977453,-0.00256545300773266
0.0102344417711241,0.0304203814008016,0.0220963455135296,-0.00627332771449357
0.00223475974513174,0.0433669878547258,0.0188577204582199,-0.00808194741548446
-0.00147802629302678,0.0540447838049656,0.0149122572520606,-0.0070380167408024
-0.0125098784805006,0.0603665057178192,0.0120213706607863,-0.00398752897056003
-0.0377628909379727,0.0560331111192514,0.012653749048568,9.11211248427117e-05
-0.0620698715098563,0.0467617087956096,0.0142276994263502,0.00417490819422947
-0.0835819075386591,0.0329707698066413,0.00891387431462402,0.00754967967015212
-0.116734615476498,0.0236976866039206,-0.00427358157890351,0.00958701992902937
-0.137530607966898,0.0341633771814293,-0.0211801481634978,0.0118834317248289
-0.115496791176625,0.0442968092187161,-0.0350647947525964,0.0170977962682773
-0.0743979994539565,0.0302758847104157,-0.0347372391363143,0.0223370437854389
-0.0397291145337433,-0.00198931140722829,-0.020334253595082,0.022101144271337
-0.00126690373391555,-0.0395186844990641,-0.00369042391868512,0.0163803933793608
0.0405659465390341,-0.0644793156828816,0.00861107592647453,0.00865050563925867
0.0684732598013638,-0.0622550918822773,0.0147095300856071,-0.000384036602056995
0.0786920863679536,-0.0492718843067459,0.0139530368778773,-0.0110933909527633
0.0818180499010849,-0.0464713729114931,0.0113815640734797,-0.0206647097089235
0.0847243506707194,-0.0483896332194917,0.01321196908678,-0.0255696970562528
0.0753421891499139,-0.0397991005406243,0.0184426817880772,-0.0258255517458496
0.0432867240332893,-0.0167846069797875,0.0223824402984343,-0.0234886192084939
0.0040485905372149,0.00715614977998739,0.0212178010793729,-0.0174872331486263
-0.023951496424815,0.0212211415559371,0.0169615603643033,-0.00534422256149379
-0.0395317247406252,0.0330028602054251,0.0162070295198585,0.00905809842352481
-0.0498446531418106,0.0473067700480014,0.0163462097911605,0.0192199203915281
-0.0590441175784209,0.0558679776632323,0.0118918813054875,0.0249818959990226
-0.0641414568051879,0.0554861733303565,0.00645311744320775,0.0284727786031618
-0.0639512995971193,0.050979915613846,0.0026906693071392,0.0286482244365322
-0.0626130375428062,0.044119173287212,-0.000656576660917313,0.0246943044768878
-0.0612966662503217,0.037385610683362,-0.00395432551045773,0.0188132174395039
-0.0586023945168895,0.0351785544151903,-0.00734918684254395,0.0133265589383627
-0.0525808913968107,0.032356126197542,-0.00930579291244601,0.00827044569784591
-0.0450974883103694,0.02625399051348,-0.00802359907212608,0.00291526051864713
-0.0404242919879965,0.022295695225813,-0.00517742466891061,-0.00263546796956138
-0.0385225260463295,0.00373033938153547,-0.0037434334867622,-0.00835457306368332
-0.0416252749385225,-0.0431760864734533,-0.00336824658676023,-0.0142868499799155
-0.050522255197756,-0.089360313352046,-0.00201080480488865,-0.0187662755314518
-0.0533900557074514,-0.103804065667145,-0.000996967296053676,-0.0196820601017815
-0.0401080593518989,-0.0819471747972937,-0.000994025355092889,-0.0169841458530303
-0.0169607346905945,-0.0399566844420963,0.000504877355955363,-0.0126548197520054
0.00371325574869492,0.0020219198896318,0.00363306772514325,-0.0087925029454949
0.0167386052276173,0.0377224123794398,0.00658803637006844,-0.00613273624312117
0.0250771137255837,0.0653330303944207,0.00845947457336725,-0.00470306379900823
0.0319536469929481,0.0870273874846054,0.00858590052910451,-0.00435485495301842
0.0350157655153178,0.102220884729604,0.0066568063768593,-0.00464012095286751
0.0315619569812318,0.102056184020973,0.00535876896313218,-0.00520405624344503
0.0312222962314831,0.0896595389334013,0.00763449754092503,-0.00563536833411999
0.0457807825735345,0.0751966093869511,0.0113370375908884,-0.00525514667118134
0.0622997122155805,0.060011861654663,0.0127593612395407,-0.00367691537577263
0.0627370499119271,0.0504415224630438,0.0129748940058316,-0.00145062527559733
0.0542869302826932,0.0536623173375656,0.0146168149532247,0.000183995205767571
0.0482514244475786,0.0628844027261919,0.0160625225462561,0.00059900961188437
0.0427829253888112,0.0731244814745777,0.0159150874970386,0.000398828226429476
0.0369670714500466,0.0777870960467705,0.0156401523964972,0.000516892276659714
0.0322761800494613,0.0675283065875208,0.0149145252743493,0.00137714810554082
0.0238979851114433,0.0481969240632988,0.0128531088162069,0.00260414289488465
0.00289445742958706,0.0303115792469475,0.0115203999582578,0.00328985655367727
-0.0280114973315805,0.0135895951959031,0.0107685145216611,0.00296632274363161
-0.0452745585460451,0.00138956721129126,0.00719499030170406,0.0021641051451833
-0.0357699242198352,0.00614157056645312,0.00171409483859989,0.00127174215490998
-0.0183585986209801,0.00665456078677724,-0.00100341560691115,-0.000536620491077897
-0.0107173138958549,-0.0232157083244561,0.00063289861100916,-0.00395167342845873
-0.0105525784625962,-0.0462447621818259,0.00266684300417677,-0.00846467004600885
-0.0112158963376866,-0.0177475198531716,0.000542853567338736,-0.0120302236396775
-0.00413800623081575,0.0433743823331226,-0.00502850248686387,-0.0121677967625049
0.00516360368917544,0.0791171325280534,-0.00848947406031369,-0.00825717455000593
-0.00405008627108409,0.0457262154599486,-0.00976298057242296,-0.00165063286743421
-0.0252128716886306,-0.0401998781740227,-0.0120308424565869,0.00439393925176564
-0.034555482832637,-0.105127723950954,-0.0126672538141575,0.00675481933066892
-0.0318526790062678,-0.0962953686183894,-0.0106522500220904,0.00608241358653351
-0.0227826894080508,-0.0454616231136733,-0.00571373326198074,0.00472601176930743
-0.0035464731030664,-0.0141140425284941,0.0011096980166783,0.00286308746998452
0.0193355037347166,-0.00237698351226669,0.00521902221483773,0.000329565493872533
0.0326422720749394,0.0123533501364676,0.00597738587646788,-0.000908289435379183
0.0313712210366018,0.0174980486390578,0.0059859185323127,0.00058911795127672
0.0209728630543163,0.0010780839964744,0.00607021339856892,0.00368778950777685
0.0100904004665119,-0.0218999986831911,0.00402047704297383,0.00706671605879912
1.73292295793138e-05,-0.0386150911977994,0.000448739570176524,0.00995133934761992
-0.0106279794765797,-0.0451988554085675,-0.00150007177169134,0.0112819875853727
-0.0194929645031719,-0.0400373537274972,-0.00274031653180196,0.0108713356539863
-0.0242519796256885,-0.030511130753013,-0.00367076258103817,0.00946576565662565
-0.0238731709792339,-0.0199790943280292,-0.00369146254416154,0.00765626267648586
-0.0190054564137774,-0.0116979063042638,-0.00531691171348816,0.00602687568776284
-0.0195012087006778,-0.00907846038844488,-0.0087555818815789,0.00482033479032263
-0.030639145965951,-0.00879059204113142,-0.00948550247375415,0.00356203681597384
-0.0393452589575189,-0.0134971290610651,-0.00857496836638554,0.00222046252944921
-0.0409183083738557,-0.0242741789918402,-0.00994211312402326,0.00112642212948379
-0.0453136250108424,-0.0346437491501609,-0.0113554638902697,-3.46203629874903e-06
-0.0531779526315273,-0.0440538873522912,-0.0127331871034799,-0.00163538636990136
-0.0551649974982907,-0.0539719964665759,-0.0147115400143176,-0.00349261113139947
-0.0465504331705752,-0.0631696916033866,-0.0153104298824395,-0.00489958113763296
-0.0278199995315737,-0.0726172621462648,-0.0152256620219509,-0.00557614018758746
0.00328657415130117,-0.0835025320225604,-0.0154764736982009,-0.00495944743330349
0.0411034821762374,-0.0946364466578767,-0.0150394129427685,-0.00236924725460836
0.0665276120932471,-0.102806610045736,-0.0129064501350197,0.00147842481123114
0.0750563648241601,-0.105773300094615,-0.00995286792981499,0.00505744494349453
0.0779118784290285,-0.0968685843008097,-0.00742391911933521,0.00757630226259152
0.07938420940534,-0.0659994068954158,-0.0057281909949585,0.00847026315595105
0.0853582705077482,-0.0211676724839559,-0.00445280271887283,0.00703800449956416
0.0967053936466386,0.0203720959313176,-0.00163169367179349,0.00375474445791041
0.0962149105202284,0.0569783249549037,0.00171091048760548,0.000780610545882604
0.0824413081389279,0.0842197512080898,0.00297377570933078,0.000385393358487766
0.0767542239654184,0.0928811823568106,0.0038960757101878,0.00250974062133659
0.0797905444488111,0.0890763886168184,0.00574297727222747,0.00406474424695878
0.0743622940117032,0.082557088535588,0.00652406802597873,0.00247989533679819
0.0558224502780706,0.0806765297742351,0.00444772928229043,-0.00115981614018087
0.0238431472331269,0.0809652225254998,0.00165562447247745,-0.00406715598528073
-0.0116406405059235,0.0728552589775403,0.00175202306217914,-0.00521951162595203
-0.0273506099561652,0.0585628326517271,0.00358004601055552,-0.00565881924380395
-0.0292319155720568,0.0327414750274977,0.00461982723555559,-0.00604292489082787
-0.0365981485070234,-0.0148862043679958,0.00388642290874881,-0.00660334143152496
-0.0430086428965044,-0.0721699573489605,5.81686859423003e-07,-0.00790243294208604
-0.0393582410928807,-0.109848360614161,-0.00601023803522753,-0.00891010472408153
-0.0282541177908904,-0.0906996454346597,-0.0100114374128451,-0.00723227752864066
-0.0193835190415835,-0.0264613055132279,-0.00960700147489976,-0.00285407773796311
-0.0165613322089869,0.0236450362070938,-0.00567961469565041,0.00192629411224802
-0.0102026546908839,0.0370874062328812,-0.00240479720899172,0.00603534257676727
0.00327505682084119,0.028350076415063,-0.00268716047972768,0.00923860700413793
0.0157491829799531,0.0219721968172864,-0.00228211877577306,0.0103961712850157
0.0193508051576587,0.0300340856804664,0.00078597872156932,0.00928121393282774
0.015208964461977,0.0448886006230489,0.0031756792103745,0.00956725106802467
0.0143277925057093,0.062916358018668,0.0034457908684727,0.0154278178674616
0.0243326373706472,0.0764834721298948,0.00118379295251428,0.0231243608355153
0.0402643368963151,0.0756307506883011,-0.00105740530607674,0.023454490297224
0.0512114244248376,0.0621087031853901,-0.000129539788207355,0.0136054215408835
0.0479906801288605,0.0465753774210204,0.00298352858934872,-0.000994290389273629
0.0290430587523354,0.0394000606005807,0.00540661131751951,-0.0144567209041045
0.00240701867126051,0.0373779747162669,0.00562031132472274,-0.0230061890412261
-0.020769056003802,0.0217236938331717,0.00502216948360643,-0.0244420843885856
-0.035555347969827,-0.0195911721046005,0.00332922334560196,-0.0233446913081136
-0.0431208674254722,-0.0661007619077888,-0.00112791918014423,-0.0297160135637102
-0.0486183651792173,-0.0835268751160285,-0.00588462281868688,-0.0422031209677804
-0.0566619850693638,-0.0664779920094925,-0.00675988768950918,-0.0444464526754821
-0.0632314130774664,-0.0429179354453126,-0.00405527415815043,-0.026945906334255
-0.0632580432705721,-0.0366933926508915,-0.00241251568320223,0.00198886773055873
-0.0573692941519659,-0.0433573681220413,-0.00390432090457527,0.0294514222333249
-0.0502874055948519,-0.0498516674961333,-0.00581095346879563,0.0473898139501908
-0.0451510040358818,-0.0533623523795612,-0.00633436542722631,0.0508070971458442
-0.0369075991436057,-0.0547090456416792,-0.00638156019154761,0.0395234270826028
-0.0210829962207637,-0.046651329405724,-0.00589559389306323,0.0207019757741953
-0.00469587511038762,-0.0216442307499954,-0.00458327486003971,0.00374038340678237
-0.00109669123748894,0.00728553791818047,-0.00275099957984372,-0.00670530567692895
-0.0149660507629813,0.0233011016066698,-0.00192531578180596,-0.0115861473755136
-0.0324417130957938,0.0294162281132761,-0.00279058970589865,-0.0134261387466164
-0.0375358669237558,0.0318312800352635,-0.00274676272417393,-0.0136292961180449
-0.0317622957871178,0.0326231751263417,-0.00185975129694463,-0.0128527994022409
-0.0254959431465535,0.0305529227683295,-0.00163500199016395,-0.0117818431183223
-0.024880964415701,0.0220954156714346,-0.000570948244386021,-0.0108392239515466
-0.0280779167797322,0.0121049787984763,0.00151921061882813,-0.00962091039913218
-0.0326748383588605,0.00674668123297317,0.00259430196859779,-0.00740794894680812
-0.0372908256071119,0.00354494138509018,0.00236417187751238,-0.00479685977271719
-0.0368402689409388,-0.0101436605211161,-1.99699231037877e-05,-0.00357823186846328
-0.0300999434926114,-0.0366319430159647,-0.0036267469827551,-0.00429760757181964
-0.0198376497208792,-0.0559154127548562,-0.00471547878270181,-0.0060359869845293
-0.00757117782903328,-0.0583645284280344,-0.00374123703635663,-0.00802531286896927
0.00449581883528576,-0.0482227551681389,-0.000786239712523659,-0.0091274406883198
0.0160988755951399,-0.0284956445122942,0.00370444252298049,-0.00766232364045501
0.0307007603806505,-0.00748781760476823,0.00635967105463682,-0.0046966447358522
0.0467394222013415,0.0173223368900146,0.0073111230738109,-0.00411400897641786
0.0647428261439803,0.0495233000203646,0.00899864008831194,-0.00511543580704375
0.0951869022469422,0.0788790960018292,0.0123045372495795,-0.0020027708222789
0.133228983758537,0.102319148208866,0.0131444669488315,0.00592914624863954
0.150265356539543,0.117588892309252,0.00634955798807181,0.0138244665536804
0.13645353065407,0.123508542788926,-0.0044279504364225,0.0179400502176374
0.118144497852079,0.117216076830806,-0.0105211323607889,0.0167745323108827
0.107952694901973,0.097130589446796,-0.00945658083546651,0.0111805454427671
0.0878516087829622,0.0844506879814114,-0.00410079156110158,0.00496288112930541
0.0512713960002733,0.092633919806925,0.00330203922218471,0.00190924830838842
0.013892286731208,0.104193678312495,0.00984886745801032,0.00306932450914799
-0.00923100592536311,0.0962694312675179,0.0119698734731655,0.00714230431727753
-0.0179079561112227,0.0659977953254817,0.00968195234888927,0.00929462791700492
-0.0228446317442132,0.024158409856057,0.00576143921428458,0.00349037473692744
-0.0302608518858806,-0.0267695304660975,0.00283955043254741,-0.00810162133913332
-0.0364515297474952,-0.0957821880577004,0.000420637461085353,-0.0158800492568026
-0.0446061674056983,-0.189520084680007,-0.00287276961827841,-0.0147442237850924
-0.0679069323188443,-0.26594593961832,-0.00626060221848129,-0.00829113988634689
-0.0993521087033853,-0.252475808007042,-0.00745968818488632,-0.00207657137789241
-0.10200611380927,-0.155291385878524,-0.00572521980612201,0.00266578946838425
-0.0532987321970696,-0.0515826356688034,-0.00375437333332316,0.0074143178973899
0.0176993760986126,0.0167356513905258,-0.000397929363238694,0.0114483768962043
0.0704878449872567,0.0643615322291969,0.00498061260750669,0.0125295490973142
0.0997723553173133,0.105383017903046,0.008245167984028,0.0102939201122207
0.110718161356609,0.128312239260785,0.00880837637644205,0.00547013585959141
0.0985920978549221,0.121983208597103,0.00798487259505443,-0.000278160808374721
0.0715220676006047,0.095374122817907,0.00532655525564387,-0.00378242958193193
0.0537630887323018,0.0668330239633854,0.00162862488947709,-0.00341779617390549
0.0552962482254468,0.0397323868134795,-0.000300649597469907,-0.000856236457236716
0.0591349661644072,0.0126226426725957,-0.00103710707549681,0.0015273578101043
0.0499213399410319,-0.00773711007867335,-0.00324660583765855,0.0030132278441799
0.0315927262577209,-0.0218663309134757,-0.00456464374019653,0.00416321208835741
0.0128114464469899,-0.0361636291891383,-0.00413048631435699,0.00581441382780434
-0.00259426687209555,-0.055071796504269,-0.00481185909221018,0.00765558931933313
-0.0129914775195826,-0.0788888531683412,-0.00701454941041588,0.00855330700812478
-0.0186419157484503,-0.0988352912982208,-0.00825494634227022,0.00823645091493438
-0.0212070598159234,-0.108429727645625,-0.00566336621000499,0.00532458247137035
-0.0210339494659202,-0.108988308718104,-4.41133273880426e-05,-0.00226659094171494
-0.0172280382379008,-0.105870834049613,0.0044329306047071,-0.0119843721904276
-0.0113896664544181,-0.105198864525827,0.00501252197283503,-0.0176230968119716
-0.00754247654870251,-0.0969772722934753,0.00353729259216569,-0.0162484807578523
-0.005870261141143,-0.0716307823048332,0.00298789902008071,-0.0101578457857206
-0.0123114490176099,-0.0370407161445116,0.00325555417960431,-0.00261574206716498
-0.0272235510925254,-0.000508305674160645,0.00334260088844819,0.00472534976851534
-0.033476719715033,0.029964976616702,0.00376123151042516,0.0100887061201484
-0.0325566781093933,0.0479072963487299,0.00427309936465316,0.0118408896104093
-0.0348285339909156,0.0485802655254107,0.00321844305244958,0.011586740481227
-0.0370968635083224,0.0245322484987756,0.000310568531618664,0.0124325614806296
-0.0432776557510986,-0.0123604965908021,-0.00181814216466719,0.0138459345761714
-0.0562368631042752,-0.0346914841960781,-0.00206918094261615,0.0122133564643566
-0.0620149653253834,-0.0300568473312112,-0.00224151108015412,0.00563168514938893
-0.0513659827248123,-0.00765743209332993,-0.00316149169603499,-0.00383280977446645
-0.033180208113492,0.01530302409937,-0.00489069286573837,-0.0120431600646768
-0.0158387449646515,0.028058667155377,-0.00759760328367103,-0.0159633964425556
-0.000712979540986244,0.0277206682419105,-0.00784426500187682,-0.0153999477873044
0.00950829600945788,0.0162901111245972,-0.00307490240213391,-0.0133491419367527
0.00835587830725976,0.00216460930388774,0.0010956143012288,-0.0137291009504561
-0.00822930857204009,-0.0107677618416431,0.00168730558988301,-0.0168102404038192
-0.0228470800613754,-0.0327364351770127,-0.000223824220807248,-0.0183935256579782
-0.0142306479568751,-0.0644041087229286,-0.00459083403920185,-0.0152482268060541
0.00349857924754236,-0.0812052482445837,-0.00763485924260675,-0.00896714905696712
0.0108582268680018,-0.0594197955062029,-0.00581517094803644,-0.00213720417834167
0.01056735692862,-0.00300252197958351,-0.00174524975306237,0.0057262792689107
0.00472443329561012,0.0548440254136778,0.00109969614192426,0.0147014473752598
-0.00624880550267662,0.0861068007311651,0.00373958815284976,0.0210766233695987
-0.0140915996461911,0.0946293425544844,0.00652639478212623,0.0212786327830719
-0.0191635003639475,0.0909734316874761,0.00696570848954348,0.0160446914254521
-0.0289746122179571,0.0775623300451998,0.00471575157976115,0.00879728111029436
-0.0389876191954782,0.0611403092895452,0.00210936602374812,0.00199714502820792
-0.0435639273214396,0.0468055909181358,-0.000273071754779417,-0.00337915506848767
-0.0444916665284615,0.0317421343269293,-0.00248795533462118,-0.00680654721826977
-0.0461645080113385,0.0178247859574961,-0.00468878989243609,-0.00842990969933258
-0.0498526527276568,0.00916962687146294,-0.00635124541657525,-0.00908326253086048
-0.0497471226336275,-0.000669241271242738,-0.00490271475598659,-0.0093805093303359
-0.042584115421385,-0.0162403122828216,-0.00348683852231329,-0.00939548074310967
-0.0324940866727225,-0.0332015178419344,-0.00600199777379736,-0.0088836827053864
-0.0234714316810833,-0.0475352716032878,-0.00905730706403579,-0.00747533938995677
-0.0177362132890295,-0.0515026269883097,-0.0101043036749245,-0.00581836234338895
-0.0141511847060075,-0.0464446249831244,-0.0106293874268361,-0.00521815266751042
-0.0103788269453935,-0.0474195685749961,-0.0115087073106087,-0.00561163173424005
-0.0064444234985696,-0.050344689626493,-0.0122878148884688,-0.00574498436025226
-0.00235399827775245,-0.0403987490509524,-0.012328061555104,-0.00452188825441489
-0.00186722570781216,-0.0178089378119879,-0.0104024181755425,-0.00164237778162706
-0.00525034475205484,0.00778952540148396,-0.00659848125688518,0.00190961996119256
-0.00569030230240038,0.0259556022904905,-0.00282492602046358,0.00428051429067125
-0.000634599341549101,0.037293196494599,2.13870901183289e-05,0.0045596149203011
0.00762343861392724,0.0453395453897468,0.00144313706039057,0.00348996931880493
0.0150772818202038,0.0457745475556552,0.00125206649470684,0.0022470265788756
0.0179207336057925,0.0400941959516203,0.000820198001041788,0.00155577091686821
0.0165481466261515,0.0336019688422363,-0.000131426416512404,0.00143171708556338
0.0139978252606961,0.0251651590186818,-0.00135567346200685,0.00160057396140275
0.0125937113213402,0.0152426917628948,-0.00125292121325514,0.00226027827102496
0.0132163158076244,0.00610622215944429,-0.00127691664985505,0.0035422607191844
0.0156303042253028,-0.00262134301266431,-0.000993985780579272,0.00482745000010429
0.0195571141612053,-0.00935802073710652,0.000109482949964121,0.0055251215665227
0.0244288144127434,-0.0155916339156007,-0.000606113351951542,0.0055980611830216
0.0274882987197124,-0.0239597772777915,-0.00085742843188163,0.00502942922071528
0.0269891375771513,-0.0304524707215583,6.60772372452827e-05,0.00397187774738741
0.0252319472840241,-0.0328975823455477,-0.00145714542133667,0.00254627513341349
0.0215795605421801,-0.0336899397818163,-0.00471929508016303,0.000490080051869374
0.0125504568234315,-0.0322733632756309,-0.00586942397866255,-0.00176792824485311
0.000662816046550926,-0.0221545454365017,-0.00201695323975585,-0.00283516281843001
-0.00896335239353918,0.00359599880815731,0.0021219697327289,-0.00159142170287629
-0.0154042186104482,0.0388211929377803,0.00258598397839468,0.00156229032443049
-0.0199224940837174,0.0636505427257208,0.00213829751647451,0.00408132762858019
-0.0255673513691947,0.0704315136568621,0.000798855476345894,0.00325635133702035
-0.0297120989809835,0.0725923557453298,0.000411115195911334,-0.000408552003917009
-0.0217946687594052,0.0774479096084333,0.00453870184265481,-0.00368393577111364
-0.00519884052313004,0.0765230944362022,0.00911229278062193,-0.00378227240457949
0.00445455399848088,0.0661469653201609,0.0099808174430535,-0.000346339691747409
0.00342886016906252,0.0525678592802311,0.00883329758816013,0.00427686915982031
0.00137695694214543,0.0416188536906674,0.00729595110026755,0.00724322008242756
0.00949070863934916,0.0349589007120506,0.00469066238588873,0.00787913418751087
0.0262684035244771,0.025690594267529,0.00155284953653927,0.00792368310971532
0.0409507897510266,0.0130691344781726,0.000796046953759882,0.00854870857500324
0.0509221172041297,0.00949428931831439,0.00177641711584786,0.00780283593217813
0.0611257295343693,0.0101503273933646,0.00147094793633924,0.0040288386974902
0.0713882945440243,0.00450710167409715,0.000338160089467555,-0.00070039808714101
0.0688418970435792,-0.00983111394687557,0.000331224814647391,-0.00309886561782261
0.0443518071387986,-0.0402721041401654,0.00117036386282011,-0.00193267912528196
0.0109325090545425,-0.0638981977751405,0.00153031960829969,0.00108916095126392
-0.0076956172949381,-0.0452451017104347,0.00120804067999121,0.00291090018785429
-0.0140989598502051,0.00610858900484215,0.00104451526767993,0.00285324195178277
-0.0292362938196468,0.0520951351028759,0.00134388213678579,0.00227842864848652
