-0.0025009667378965,0.0276099419147251,-0.00438566235767916,-0.000257521590113015
-9.31350075803368e-05,0.0196757279092605,-0.00117917211608121,0.00115702659203911
0.0107681030031305,0.0233475219174623,0.00591734210015736,0.00222033610499077
0.0221669008811945,0.0327243910080718,0.0177314079218932,0.00210803438432741
0.0269268525249898,0.034059104380006,0.0257455795672992,0.0011555770063491
0.0262376590907749,0.0255379523254474,0.0225265976097745,0.000310509978079821
0.0239391644021779,0.0132463644462119,0.0138308533705252,-0.000141728575958493
0.0221097052925233,0.000675645880580007,0.0092158244477491,-0.000490825345457147
0.0198704298105693,-0.0106056075532055,0.00689523071843858,-0.000730979506935103
0.0150398400321864,-0.016368540626151,0.00487907372835484,-0.000769074200199859
0.00951840955249354,-0.0247204546589477,0.00825677235732978,-0.000735304468867418
0.00660118044585755,-0.0465859032988428,0.0160289824124361,-0.000753970486456811
0.00706543075619284,-0.057816095359066,0.017686865410677,-0.000646910028790112
0.0166558886383365,-0.0421271798391652,0.00858343520842888,-0.000508015636479005
0.0311463419828181,-0.0298260218396699,-0.00519852640232451,-0.000626767741065478
0.0244215868378525,-0.0291461515468099,-0.0165107219103322,-0.000299697356567327
-0.00716957613804608,-0.0175014146592368,-0.0178541420258578,0.00117986189297543
-0.0353324122104588,-0.00386210444377434,-0.0046841879250628,0.002765979823043
-0.041773034406821,-0.00326676237049613,0.00920341819932515,0.00340636186381341
-0.0310617035372381,-0.00252980083051032,0.0089997686952889,0.00324833378924852
-0.0152793453198759,0.0081453435219695,0.00139551277240492,0.00204153403402646
-0.00259357566260476,0.0217209106638299,-0.00587557144102916,-0.000432106652481787
0.00352128816239385,0.0269930299288476,-0.0134861782707564,-0.00338999586994451
0.00571445291307298,0.0154710254956694,-0.0209145200223445,-0.00536395307976815
0.00665499717386323,-0.00298750710860029,-0.0261237867055171,-0.00505830498482097
0.00658418470958659,-0.012108665849735,-0.0272228286552166,-0.00277092902972723
0.0140066203389296,-0.0133997330752917,-0.0252307434300338,-0.00016007265470285
0.0297326715834314,-0.0122570860705532,-0.0244880432882334,0.00113921060571924
0.0379543576602689,-0.0116112497678125,-0.02538289753704,0.000423362719750956
0.0277564350286234,-0.0202611453250551,-0.0259932585791339,-0.00128546545276099
0.00167903898258334,-0.039757579567915,-0.0242794678906475,-0.00226082212374443
-0.0277229417979344,-0.0553233365064794,-0.0193280216163458,-0.00207851327213592
-0.0453074497990991,-0.0590366248363341,-0.0149482505758713,-0.00160424498348469
-0.0468881465709788,-0.0539141120955915,-0.0172763098357473,-0.00163378734241249
-0.0399493103267931,-0.0395440502127514,-0.0257836746956735,-0.0021295286391404
-0.0299902783566771,-0.0235249628428616,-0.0268811594123122,-0.00255496383387798
-0.0228303180678748,-0.0161034016901306,-0.0143028108120971,-0.00225551059933489
-0.0248125027139115,-0.00849628027265417,-0.000163872236608339,-0.0012649080264991
-0.0297432426003703,0.0110460490763405,0.00853810683854898,-0.000466887990289765
-0.0262683206619681,0.0347326123412786,0.0154685179723029,-8.74914779267129e-05
-0.0118745043668703,0.0414380865021409,0.0223009062621157,0.000244291994693012
0.0112948920579238,0.0236125261081281,0.0224463008719681,0.000588584988434907
0.0368738316683428,0.00655060985359113,0.010345901638625,0.000982899696805347
0.0543777348192092,0.0117535964565912,-0.0029134125881018,0.00125625113174595
0.0558676223486383,0.0258628882714286,-0.00564039656802185,0.000858822454003351
0.042752223176168,0.0307438359231799,-0.00370596984550979,-0.000387404293326186
0.0321025238353084,0.0128697013063917,-0.00288808209798355,-0.00174292205772551
0.0352944544528143,-0.0282480091696202,-0.00248922087045355,-0.00215141970643629
0.0342041180785402,-0.0544784668941222,-0.00696405869166616,-0.00138207788102765
0.013998179935424,-0.0414759281238934,-0.0125542750222246,-0.000388619294702983
-0.00774800520735626,-0.021591027195521,-0.0108636734260495,6.10873579057615e-05
-0.0138701927311366,-0.0205172356703201,-0.00596398058672321,0.000343884074638245
-0.0073438245095989,-0.026213772411615,-0.00161003362455206,0.00101676986508822
0.00308929132667646,-0.0299052995153069,0.00185627791579084,0.00196086826045579
0.00838144814004204,-0.0287091596157322,0.00150420420469896,0.00213482231335191
0.00499577111361914,-0.0178051943099726,0.000395507891018079,0.000935938392254255
0.000197563324362715,-0.00241828121361793,0.0025189179254912,-0.000582152476505635
0.000570663126823634,0.00851914171426889,0.00926548619707612,-0.00134225092264318
0.00342828972071537,0.0127175787816663,0.0190058279313713,-0.00120954347470132
0.00452664130263332,0.0138653084301698,0.0243308686350344,-0.000356239031423316
0.00581471187612404,0.0149377309934092,0.0244844780797351,0.000875021357897035
0.0092579149271226,0.0172404591385174,0.0228546113456717,0.00192050880146469
0.0135060930638209,0.0192771374106141,0.022174193474189,0.00193804164353586
0.0188606956365751,0.0195275010080936,0.0228917503944331,0.000851327560786495
0.0238110531098621,0.0214470340691854,0.0229398432684062,5.72812557846133e-05
0.0257329880122303,0.0255191013238048,0.0214855142219375,0.000859582542915198
0.0287581813422844,0.0283147332150511,0.0185039362875859,0.00302780195999782
0.0380759452291263,0.0259234583042432,0.0164473987992848,0.00478922200691946
0.0505697071244267,0.0149329437818057,0.0162614356006939,0.00440465204394617
0.0579750118228309,-0.00470139249428558,0.013798879042912,0.00217731867802303
0.0544062075854592,-0.0247391357888897,0.0114456435387347,4.81963787612259e-05
0.0447532414548636,-0.042372130800554,0.0131873637013092,-0.000585251492134075
0.0379534391745614,-0.0545456075813552,0.0140492691224961,-8.32693223752129e-05
0.0360906368128839,-0.044650527471684,0.0145448604268876,0.000302350601338293
0.0366926545430562,-0.0208225208620256,0.0164552120579298,0.000115318308848124
0.0336885596621226,-0.00497949478320847,0.0169516877399506,-0.000123346656791127
0.0242906121174267,0.000142993115572948,0.0151763121369111,-7.93373067488387e-05
0.0138237291539336,-0.000964737783770798,0.00919723826532478,-3.85238998973566e-05
0.00467862652465597,-0.005115077007985,0.00133010879382876,-0.000386199410554024
-0.00602430590237358,-0.00979494123650841,-0.00301322515108305,-0.00093680195237557
-0.0175893016231034,-0.012146627370076,-0.00386379989666278,-0.00118270348854484
-0.023724420151951,-0.00804152120015969,-0.00284718370211155,-0.00111636934020492
-0.0193469430148945,0.00255347227931952,-0.00120423415607919,-0.000956967363746186
-0.00926406613747098,0.0113449245486766,0.00440482321696848,-0.000816008762738578
-0.00106960102760965,0.0121958945533786,0.0161820126706376,-0.000255151090630532
0.00671056555379698,0.00514429750490527,0.0228547221247449,0.00149029240985401
0.0180124121618581,-0.00545956632437965,0.0159737982493639,0.00349386369431585
0.0281849625561222,-0.0135129440740838,0.00528542195219531,0.00368947382252344
0.028917726161668,-0.0148576328691516,-0.00295802114350301,0.00185855828833883
0.0235441070558274,-0.0118964202255416,-0.0050525541134563,-0.000479173287990077
0.0226883886055545,-0.00986140121770794,0.00246164805344692,-0.00198791500047469
0.026162578339927,-0.00613509279942386,0.00901513157784197,-0.00218003822218103
0.0272135337650972,-0.00142346725976313,0.0087599314421958,-0.00148789058866273
0.0211881073207648,-0.00431386523363785,0.00414311063277781,-0.000825307844861602
0.010173911635663,-0.0135982042630873,-0.000507408704423168,-0.00113954004749584
-0.000499621782604244,-0.0229667156013186,0.00305626025917524,-0.00214096208993221
-0.00687383529623218,-0.0255046346037618,0.00695864612237181,-0.00199826998377999
-0.00893469275096718,-0.015983681178302,0.000217743824342396,-0.00109229252240598
-0.0149128032366141,-0.0030636651452768,-0.00567730708325831,-0.0017363844759145
-0.0263892932661144,0.00169580284810818,-0.00400160172799385,-0.00307263295807603
-0.0318221393436037,-0.00203714967000688,-0.00107227844786515,-0.00240306720452012
-0.0231015408306978,-0.00507882469441347,-0.00135389043095717,-6.86392987839148e-06
-0.0102117324194781,-0.0024256996033603,-0.00127819729547441,0.00141128742220516
-0.00359874692687353,0.0030533483042225,0.000437617470455355,0.000935879619781177
0.00027636482694985,0.0070392765250948,0.000170234682307116,0.000283557031379165
0.00149199476025663,0.00607950866482196,0.00470051650160726,0.000741811268524
-0.0035124135064772,0.00312904394908605,0.0154946515166539,0.00205744224982441
-0.0114522805517649,0.00800997082825113,0.0150538073145141,0.00314260243682544
-0.0169913017001283,0.0184826167548769,0.00116630997140695,0.00299227020641844
-0.0194655290396747,0.0156784858241545,-0.00428713122133845,0.0024797169216474
-0.0201729386875906,-0.00638276184571977,0.00275628704342188,0.00333562486900276
-0.0208637136491089,-0.0386181893280783,0.0133094560387266,0.00506962869101011
-0.026939358605159,-0.0569696798342348,0.019194237395359,0.00595273120213489
-0.0310600618881725,-0.0250187550395073,-0.000740295290809385,0.00471275963358726
-0.0256031975096488,0.0277272010711144,-0.0333360593996795,-0.000466727811291137
-0.0240309006866467,0.0366413758892133,-0.0341889193975152,-0.00834617541923176
-0.027732092346167,0.0169909756991919,-0.0120317685160437,-0.0129390350695619
-0.0244384281610877,0.00603877836185901,-0.00109176583864929,-0.011470326345833
-0.0168183922322418,0.000971943924354134,0.00147995606376223,-0.00684463620919273
-0.0121702283964141,-0.00110267435211982,0.00822956280537867,-0.00185273720556381
-0.012041008095656,0.00573041240393912,0.0170647277315057,0.00248940009839929
-0.0166533594474162,0.0194337156795329,0.0260892396788855,0.00541464039158588
-0.0217857647076611,0.0290170432836439,0.0321442546557484,0.00673415506105666
-0.0193415826915018,0.0262976896941873,0.0332344301718176,0.00686861328412204
-0.00497187978076316,0.0130528828848216,0.0342301282887683,0.00626822809586543
0.0135881863575497,0.00118778256497602,0.0322987923678479,0.00521618038730144
0.019583311214098,-0.000372967854029009,0.021746349587893,0.00352367730425154
0.00554128846598848,0.00316144174370426,0.00793119740039108,0.00129324060271441
-0.0184603622674755,0.00266429866437891,-0.00249946197486707,-0.000747671839323642
-0.0362162909378808,-0.00305734172854886,-0.00661175245327378,-0.00212632946439319
-0.0364284794685122,-0.00762677499184055,-0.00657513579497942,-0.00281314548557634
-0.0216820835356022,-0.0145478926206423,-0.00650689421193811,-0.00309603352896423
-0.0106254072368752,-0.0287699867800235,-0.00490020014391304,-0.00291202335666608
-0.0180812429190197,-0.0350656465942425,-0.0044653730036632,-0.00191187971512544
-0.0343911780153034,-0.0219823124697467,-0.00578057601999959,-0.000594561799443253
-0.0402410368473214,-0.00316035078666329,-0.00283342089153327,0.000247154253647946
-0.0358089103747912,0.00483399007416977,0.00557136810344887,0.000665986652093559
-0.0308537244079797,0.00303463396581184,0.0134968339245824,0.00126739820287243
-0.0250916142796635,-0.00281342277226046,0.0180570385272576,0.00202807085346421
-0.0176216629005604,-0.00945056027504211,0.0243759045692573,0.00234372735769477
-0.00805888927885629,-0.00334869981508501,0.0223022085926511,0.00213220163380252
0.00309083540088686,0.0169507173272498,0.00324898154186335,0.00134590193464638
0.00886327617405842,0.0264722511751727,-0.00819461490571019,-0.000536433174850133
0.00740493695492928,0.0180020837624739,-0.0015229763104209,-0.00297126751119074
0.00251232422017965,0.00581267932838716,0.00628885060979439,-0.00444390616444872
-0.00183010160477598,-0.00214869690855521,0.0115582280122598,-0.00452253009610636
-0.00452540591353922,-0.00414940787945347,0.01909521139845,-0.00377463811773673
-0.00816766614949499,-0.00916614012382561,0.0261470226118858,-0.00261711464520172
-0.0159402156155761,-0.0275634406512383,0.0300862733957857,-0.00140235387016427
-0.0245754165668195,-0.0454837709618431,0.0306586738492326,-0.00026665650348507
-0.0303663748010867,-0.0361634264488034,0.0275766378460836,0.000764224453879086
-0.0331428014521571,-0.0034955476527798,0.0225000375399337,0.00140148352140285
-0.0358995220890717,0.0215593304394892,0.0159278720218373,0.00131252544335939
-0.0494127392701587,0.0255195587837591,0.00916876433269406,0.00051599576083355
-0.0641824643980536,0.016172232018502,0.00287068672818123,-0.000380899554122564
-0.0616131214858028,0.0105032666008106,-0.00383673527567822,-0.00100512841720623
-0.049229098544108,0.0169678444227216,-0.00810849172875296,-0.00123171266833477
-0.0411245883339589,0.0246511489687786,-0.00924469330720916,-0.000936582516389925
-0.0348161865574161,0.0309124436457523,-0.00820177651654877,-0.000724361288610961
-0.0155989510466234,0.0379529714332064,-0.00460419692616113,-0.000857720663283419
0.017724880019855,0.0368397891309793,-0.0032888019349544,-0.000368496232787129
0.0413616326569397,0.0188019127220031,-0.00643586226464794,0.00093551761592871
0.042890135934322,-0.00983284984651496,-0.00939633763314436,0.00186368033888006
0.0360811881684775,-0.0215596176721064,-0.00934583975477929,0.00128475129446366
0.0359746500128195,-0.00243053055738014,-0.00709125586857749,-0.000936438748892044
0.0453317512136231,0.0151963742968564,-0.00419058021503223,-0.0037413236515678
0.0468138688097569,0.00346859434114363,0.000739300855679983,-0.00548911769872408
0.0257398427617015,-0.0165475711747533,0.0115616413046273,-0.00510355223255117
-0.000391159381392933,-0.0265568043328254,0.0245867657259565,-0.00313785329063494
-0.0122612539061348,-0.0294409650273588,0.0298330226000806,-0.00123736593711876
-0.019559401781051,-0.0202428794155607,0.0261929267837314,-0.000441261734006208
-0.0384378777864809,0.000138082496700401,0.0197876383495836,-0.000587052482833585
-0.06075542528462,0.0134661321870897,0.0154808914871808,-0.000688562751180258
-0.0612332999798205,0.0145484290446809,0.00848441733269342,0.000641408077584536
-0.0334361763068905,0.0172112526624631,-0.00681864611785623,0.0034320873478233
0.00343118982274878,0.0244387163205963,-0.0189550347038559,0.00597496188779449
0.0285644314075639,0.0335940438769717,-0.0171417043149525,0.00737397954991503
0.0363596019744856,0.0405433683723985,-0.00791995635856118,0.00784480769472254
0.0360095480922639,0.0436683668673266,-0.00518575872719342,0.00691089692840349
0.0256055913612633,0.0477380926197875,-0.0104866914618245,0.00393151790331012
-0.00265838088791262,0.0451425505876233,-0.012423840966983,0.000614742466299043
-0.0292442996660087,0.0367085607231176,-0.00952656232562005,-0.000187613146233305
-0.0354638566576215,0.0346345882105047,-0.00628034660720666,0.00137403364017399
-0.0257036801257195,0.0283419069713434,-0.00185117615342428,0.00327875282912171
-0.00557039491800068,0.00725474516384585,0.000937809790536101,0.00451676191582049
0.0169686162831398,-0.0100618364554089,-0.00316884100358007,0.00449067089689335
0.0298463471561813,0.00122058420499256,-0.01145862044958,0.00242499564644336
0.0419463160950848,0.0290869922974416,-0.0164942534917788,-0.00187725232543572
0.0714722761649365,0.0389286415884063,-0.02068004772945,-0.00739097123747678
0.105209024249578,0.0211364809498797,-0.0229103124051766,-0.01294177423199
0.122612755493972,-0.0136937497873282,-0.010878768303547,-0.0167081434887345
0.125090746975092,-0.0342196764585518,0.00784687375956711,-0.0155257663766063
0.113690557605223,-0.0183145277954982,0.0165827119231422,-0.00921251487257079
0.0810897398537067,0.00711661383197938,0.0203526686465555,-0.00208408738295169
0.0272666170495552,0.00520027717149304,0.0233860170459396,0.00277747489375455
-0.0308168876199234,-0.0250286160595398,0.0159198634893216,0.00654722070640037
-0.0657993666134331,-0.0506310149847589,-0.00336824011810375,0.0106391138019866
-0.0613574850803042,-0.047391370603095,-0.023877191775345,0.0137317016930364
-0.0371705094955661,-0.0254048344354621,-0.0344531178018467,0.0137707589706693
-0.0279102122472793,-0.0119163935462125,-0.0342649044818022,0.0107219421454526
-0.0290744235857853,-0.0109720739172085,-0.0309500970715248,0.00719117037498461
-0.0211872529627877,-0.000507447314978753,-0.0261805666205444,0.00596581693460758
-0.00796886954661991,0.0226923870722894,-0.017548324016175,0.00702460360945735
0.00153373750296337,0.0458584270026383,-0.00547678841588063,0.0072016611278893
0.00177530936123071,0.0639868048168386,0.00151474394039761,0.0033518696719321
-0.00407022639055706,0.0724671873888307,-0.004042140493308,-0.00390669493215988
-0.01217968227327,0.0656863045887947,-0.0132479671072648,-0.0110321137925874
-0.0267496612210727,0.0432082220718668,-0.0172112824830355,-0.0148299992738072
-0.0448435989006842,0.012123512945249,-0.0163739226167748,-0.0142514982079514
-0.0565337927430493,-0.0186578614009999,-0.0140835197022387,-0.0104570704784058
-0.0555802625972601,-0.0509564445071003,-0.0146643956772869,-0.00579063716527347
-0.043501549985949,-0.0975158429557905,-0.0177697538643589,-0.00243022468289758
-0.0262952334109429,-0.14638003439922,-0.0241581420447179,-0.00112427422630926
-0.00727342359054929,-0.152049428917327,-0.0365412275758407,-0.00129582388317856
0.0188263711819254,-0.115388601316795,-0.0454607151605674,-0.00222524844067371
0.0480090117334691,-0.0865303163003344,-0.0424569053797199,-0.0031844720594052
0.0501065005535262,-0.0703561030108982,-0.0353084724003748,-0.00327773867277527
0.0204528817067564,-0.0444702246840077,-0.0352063042419257,-0.00235424035323538
-0.00384601366484359,-0.0141064988161086,-0.0417124389400729,-0.00115706617703481
-0.00652407785188492,0.0108976794452752,-0.0448655698495728,-0.000446219925608783
0.00140769275598207,0.0242968065342338,-0.0406527785329306,0.000365195761162815
0.0149349751388328,0.0218873375517954,-0.0313096490739087,0.00253525216685456
0.0249640205955392,0.0163413358545411,-0.0153276495776488,0.00527095650575645
0.0197520674590636,0.0241087748501607,0.00692222053509085,0.00696756131240406
0.00543708337309254,0.0392718931977579,0.0326447477555558,0.00735104521002869
-0.00700660389903124,0.0474605026049402,0.0576593986474906,0.00669231542735867
-0.0136857493446227,0.0480438092185623,0.0650706400212496,0.00528601573781535
-0.0137599075483743,0.0382091985510577,0.0458747871358114,0.00321023923718662
-0.0142383465105937,0.018087732801058,0.0172216671340935,0.000513302702613773
-0.0220996679365078,-0.00112436863929827,-0.0024732453367995,-0.0019251914849295
-0.0284525072252181,-0.0144581214826207,-0.0127469246010321,-0.00297129057303351
-0.0155772330036137,-0.0288110456285275,-0.0181341238260447,-0.00265669551021777
0.0141355428872405,-0.0563628213224238,-0.0188973962782776,-0.00207185771520816
0.0331320392229339,-0.0780409868431823,-0.0153902685715719,-0.00212967728890432
0.0312527392352105,-0.062298286374709,-0.00913939852364879,-0.00283870188666026
0.0272632667845533,-0.0238788386006108,-0.00413318446728519,-0.00363429292635772
0.0348961994599183,0.00470614042319375,-0.00473292511746464,-0.00393242238033347
0.0415862820302298,0.0166975045906041,-0.00838090284907069,-0.00351242792665053
0.0359554872928943,0.0204194497113591,-0.00761531667852014,-0.00245903171584378
0.0340465823492151,0.013732479063638,-0.000986875019853263,-0.000552074367897062
0.0399745683705141,-0.0101378592326765,0.00554939025650048,0.0019489067844293
0.032293654810817,-0.0303732326070228,0.0112044589246838,0.00412789582208924
0.00848468017860806,-0.0227399956523709,0.0192683499849564,0.00571619795476122
-0.0128900436516224,-0.00582281914816871,0.0236736250472167,0.006538522620172
-0.0214817960970433,0.00432454197602258,0.0169047220545339,0.00604547923758938
-0.017346406983952,0.0184661130943071,0.00693615063674627,0.00435136186174803
-0.0025585389946906,0.0354119023602783,0.00633937090170309,0.00227943342518588
0.0145323773556237,0.0445271275591764,0.0128135479953079,0.000662071116486598
0.0223651020608027,0.0441027752903999,0.0180048650317653,-0.000100916548132389
0.0206361895478254,0.0361708235794696,0.0219097218214556,-0.000363381116319786
0.0186589325088219,0.0240389051243072,0.0270549078080784,-0.000374899786345337
0.0239737713102938,0.0152228810455707,0.0334050599183937,0.000181683415957653
0.0343858832557351,0.0100539036003728,0.0407800323794248,0.00123474722665916
0.0388848585983251,0.00248458053785712,0.0425515980369634,0.00222603335083241
0.0326679986555539,-0.0058645538236832,0.0371108471516124,0.00258711822885449
0.0234401884581434,-0.00248180477739677,0.0286039857109051,0.00209780223535625
0.015016034298236,0.0172443473062269,0.0169568057949104,0.000759503799678774
0.00315149939171283,0.0329571296857327,0.00902140419123288,-0.0013872819715282
-0.0109247063358924,0.0292158242851901,0.00805631169317625,-0.00327730277053252
-0.0215085518239563,0.0158071216690699,0.00547606524268093,-0.00387042615559224
-0.0275810903090667,0.00517757067584717,0.000585185838192179,-0.00371261626800156
-0.0279199557541652,0.00216975876280629,-0.00617095665731385,-0.00320821540292464
-0.0232039007157454,0.00537898005686885,-0.015955402951744,-0.00196135399670399
-0.0187633887429859,0.00758307482025738,-0.0193606370010442,2.3247999756679e-05
-0.014335039512902,0.0023643817704346,-0.0149441100346452,0.0020465508527068
-0.00830435592131847,-0.0109922957437073,-0.0119953315989781,0.00309842899653243
-0.00348719110776339,-0.0283625453066409,-0.0102792106437502,0.0027103222405675
-0.00385650046362033,-0.0386215655854165,-0.00606349904962739,0.00155582313548304
-0.00979129046932473,-0.0324654226591531,-0.00168652668360139,0.000627834033911442
-0.015922355195291,-0.0179447736847781,0.000397239678244978,0.000160956665173793
-0.0193620280683331,-0.0081208315211034,-0.000572002556914142,-0.000300290023155851
-0.0194490093946134,-0.0011595447430857,-0.00257910390814466,-0.00161128662766994
-0.0156378456651826,0.0077233670461938,0.000521453022922677,-0.00413117498811784
-0.0109677969821574,0.0164319202405914,0.0122593827969641,-0.00644313258405306
-0.00871955973721732,0.0194109134871973,0.0232642684629601,-0.0064501404417198
-0.0101256850967443,0.0135924111797254,0.0202831765659339,-0.00377235885685795
-0.0122290516176557,0.00577860870246598,0.00572496409082529,-0.00022274789764785
-0.0103635333200621,0.00120618496493947,-0.00687667539707941,0.00194052728727255
-0.00419693752722662,-0.00189724241182871,-0.0146340402686582,0.00194689695469894
0.00354530696879163,-0.00176776963646061,-0.0198714840048036,0.00101388620166863
0.010966955792277,0.000488764785273352,-0.0212507593199444,0.000791971320485391
0.0167807256885348,-0.00203119153053519,-0.0190960121994706,0.00135550404032095
0.0184855968375175,-0.00522069978446248,-0.0139370416058546,0.00183623774696276
0.0174171550031042,0.00135317953809317,-0.0102402654498194,0.00148695477766902
0.0154461528271629,0.0137087876250625,-0.0124197277845771,-0.000319639394106416
0.0113394583214099,0.0195419888823333,-0.0168981959104789,-0.00353011971258997
0.00803438100943725,0.0198138018008855,-0.0188494389759106,-0.00671062711979178
0.00853182339024077,0.0208373959688218,-0.015993986918053,-0.00762631423610489
0.00996782608627711,0.0192522254923199,-0.0127407290958806,-0.00556551353184739
0.00878457924108425,0.0126308570996677,-0.0131233355044959,-0.00217119212390786
0.00440911416072851,0.00674208019761681,-0.0146588413032116,0.000154088885806743
0.00131602462555116,0.00607553945895843,-0.0137296733093336,0.000536059397193105
0.00855556727406239,0.00260794498291703,-0.00528341582331013,0.000319000228096943
0.0249461989956539,-0.0105593632337541,0.00414385317356897,0.00109405670146601
0.0367912317874457,-0.0150409951078945,0.00344422828270556,0.00293471542566278
0.0351007986176816,-0.00295083244923899,-0.00173445856456372,0.00459513092912628
0.0225545633756534,0.00533290926819931,-0.00207913792052508,0.00542048798257685
0.00738533388330623,0.00336243102802125,-0.000575016910200614,0.0055054412580014
-0.00399440190782009,-0.00253227295341932,-0.00353850994973116,0.00454035635462038
-0.0131357549923515,-0.00853175500642308,-0.0100481870945312,0.00240499594361553
-0.0190992972597335,-0.0099327145540609,-0.0143379079566855,-0.000526449826832316
-0.0151310634198217,-0.00675178849149766,-0.0157900820547487,-0.00364452669856417
-0.00544357343536343,-0.00418804919486688,-0.0171440569586555,-0.00595960181468604
0.000988273996007122,-0.00400920298031432,-0.0194066087845751,-0.00646475988612629
0.00150260772886903,-0.00506186727300029,-0.0218033214434352,-0.00523508379907007
-0.000397266707393018,-0.00787516879430636,-0.0208012147216995,-0.00278224290778423
-0.00013283004823144,-0.00849513578825158,-0.0167716639995097,0.00070485817228276
0.00744158954211472,-0.00475734054989459,-0.0133097346267688,0.0039217299823309
0.0247063398147568,-0.0038049924220251,-0.00996788465672457,0.00534051588302872
0.0380341655620722,-0.00704685425473486,-0.00751626802991178,0.00496246422310053
0.0384872314746666,-0.0124703981281814,-0.00889486533052988,0.00361236640103896
0.0352057467281159,-0.0152399639018962,-0.0127397245546001,0.00217367779132104
0.030765026963768,-0.00433507141354758,-0.012185341651402,0.000666818586263173
0.0225896611239645,0.0147051786588411,-0.00290224236638813,-0.00158535886733545
0.0141419573827725,0.0243531798799546,0.00765195417516625,-0.00412942615427152
0.00696282138732321,0.0180546019114481,0.0105594288198962,-0.0051643828933041
-0.000465891801004786,0.00424490904707577,0.00506510304998877,-0.00361771251584725
-0.00979331513009499,-0.00616653380043237,-0.00241725557167795,-0.000977139709060709
-0.0268736213915647,-0.0130562696469201,-0.00309569342648609,0.000688205327765997
-0.054356841135122,-0.0181866371481608,0.0027381845180257,0.00187139084793238
-0.0739897061525758,-0.0136684608979312,0.00135781318026345,0.00403669235704106
-0.0660954117776054,0.0017844459957088,-0.0116476139635579,0.00614762182080871
-0.0418745293094698,0.00958614088706958,-0.0201900241105968,0.00601975506880843
-0.023839454606602,0.000976337305784197,-0.0146289765336624,0.00411260744588848
-0.0138479715373195,-0.00918252082876518,-0.00257120676040065,0.00309028861817432
-0.00167387032794363,-0.00424430376951519,-0.00161899299363272,0.00363429055988863
0.0121653737808733,0.0102647143859432,-0.0131010167861997,0.00304781997651438
0.0174261333480081,0.012098499327796,-0.0148659167682563,-0.000165624601966364
0.00989792153806152,0.00088154333763632,-0.00516750585116022,-0.00374608885815724
0.000191664365906088,-0.00778707351196043,-0.000249819763996285,-0.0051260836616128
0.000375377550634947,-0.0118175607319592,-0.00103128194802768,-0.00417240168167131
0.00488944950983065,-0.0132157682510176,-0.000137952896079702,-0.00237769410304725
0.00337417541470071,-0.0141067439868816,0.00486963949278207,-0.000564592052534442
-0.00364672514647025,-0.0208027170223059,0.0110312818219713,0.00126839624050478
-0.0106501561881847,-0.0321880360115112,0.019152231975199,0.00272838951467547
-0.00928522169057997,-0.0181999048178556,0.0157825745317075,0.00345921001844571
-0.00143523816464463,0.0286510114552267,-0.00902908539760997,0.00192698582817055
-0.00302259617892228,0.0473320556986461,-0.0193433704708321,-0.00321996661508539
-0.017123244910089,0.025631171963841,-0.00142067109470823,-0.00797909514561437
-0.0331897124354879,0.0124924706624226,0.0144553038951687,-0.00753373574839952
-0.0431472338267515,0.0141869394567042,0.0190910069882833,-0.00277859447903643
-0.0434770030907778,0.014708765447292,0.0183391852213679,0.00314698826427773
-0.0370053569739683,0.0116199271897712,0.0149409892179213,0.00790074451372844
-0.0300886292595177,0.00710261706629229,0.0158505444751384,0.0102045518161493
-0.0241818188038774,0.00413540262434634,0.0183009402935012,0.0101967192637175
-0.0181624761527398,0.00447084969591691,0.0124560436492956,0.00830384395145915
-0.0138677954660384,0.00542554055618806,0.00240020323617952,0.00451923534765492
-0.0102599026749512,0.00569926922327327,-0.0022611880934449,-0.000807854559820053
-0.00597816669988901,0.00754044922201868,-0.00155688598678401,-0.00618694911919253
-0.0035916242439303,0.0110238553293156,-0.000787650694901484,-0.00979823816478357
-0.00490299741547987,0.0124439849151889,-0.00219483312883047,-0.0107616825290193
-0.00691508055187614,0.00943290228694924,-0.00388159238639809,-0.00952797564435955
-0.00595233665378269,0.00615656702491687,-0.00562977827751895,-0.00703187770755473
-0.00685633703148674,0.00563028938331194,-0.00553422189902711,-0.0039344092151312
-0.0114930333210389,0.00405216873588176,-0.00104131665445533,-0.000849125155706927
-0.0121126891999367,0.000853898283717416,0.00304023369984575,0.00178533839136265
-0.00640277309469101,0.000236637469111751,0.00319722059939322,0.00346403624203861
0.00104321577386318,0.00122345438608658,0.00205042253475941,0.00360343706947215
0.00899916055332555,4.98890330136535e-05,0.00236929015395283,0.00265410136555555
0.016108443874962,-0.00427158736636097,0.00330438194805637,0.00209247311482904
0.017952890560058,-0.0137073456348399,0.00487172473844839,0.00266329375918625
0.011671538555695,-0.0227410416167844,0.00722428166532966,0.00348663651478711
-0.00782004154579261,-0.0146333290493245,0.00430897764775002,0.00342036564608651
-0.0346666781237723,0.00823737247532906,-0.000328384712874442,0.00201686992650382
-0.0476656885278353,0.0201608429571463,0.00176251416206091,-0.000534886733764123
-0.0391435616109735,0.0106580755427921,0.00696998442403478,-0.00318369126804286
-0.0204962452603713,-0.00356464352770991,0.0100275177729909,-0.00474752846457688
-0.00674922607522534,-0.00616679785106665,0.00887638794579429,-0.00489682538949865
-0.00177295989689592,0.00209643668899894,0.00523570698665837,-0.00407521855829237
0.000736602019087412,0.0140967570705134,0.00219675362415419,-0.0029563798066313
0.00345408575175744,0.0230874449909079,0.00117100339336982,-0.00148869076650831
0.0074989495097664,0.0262332523813326,0.0030412825765724,0.000670907920216493
0.0141892195402516,0.0274191416955593,0.00758795536046615,0.00288787240807716
0.0257382066597548,0.0272285999467494,0.0103321032719562,0.00442402083822685
0.0410836796061609,0.0276364663661091,0.00213424073512021,0.00474756570332228
0.045495512856636,0.0297700740568205,-0.0108507725714061,0.00296593993303917
0.0301827610787779,0.0251340935861732,-0.0109321624721989,-0.000692585788109401
0.0114506572161995,0.015419276188611,-0.00157309174159522,-0.00440570920291731
0.00531501836409708,0.00757749739416527,0.00322001461946347,-0.00642038393196365
0.00757248528362714,-0.0117562485122321,0.00423797398455488,-0.00597835373040707
0.00964794846874569,-0.0457928378635224,0.00759032170300308,-0.00348308757171168
0.0146598302970259,-0.05931403396054,0.0116547633056517,-0.000139269644206978
0.0267985244656278,-0.037276460666025,0.0125950341607279,0.00265578688309698
0.0329533916658604,-0.00299036214036446,0.00599716493464895,0.00364998654761975
0.016924201026688,0.0217988673228719,-0.00499559410308365,0.00237068016756391
-0.0141557665004287,0.027482175523666,-0.00838329376431062,8.74806002949091e-05
-0.0370707405323586,0.0240919153170136,-0.0043751025978012,-0.00108825292643365
-0.0386297686853143,0.0244335330360198,-0.00175207929392576,-0.000504079278841782
-0.0272959572400667,0.0271895334542295,-0.00224165341459351,0.000969165602983422
-0.0175812236012181,0.0278043712791705,-0.00416363619098719,0.00213820216147016
-0.0117808959409507,0.0247910241262984,-0.00551508266584011,0.00249956739097067
-0.00558042034431307,0.0206228978144631,-0.00270195335079555,0.00229235064450579
0.00338744404258132,0.0163067618786125,0.00151243735997024,0.00155356548689356
0.0139411542814834,0.0103913304594587,0.00359644283337748,0.000284383150196388
0.0232261565090599,0.00256402978822255,0.0063621258303987,-0.00115968558594264
0.0301186042384147,-0.000757234690459133,0.000413997804526617,-0.00239872790624886
0.0339008935002573,0.00428355584675863,-0.0207643536518665,-0.0030181168837783
0.0343906305193717,0.00218645487855045,-0.0336254902779818,-0.00260998813195834
0.0326746511630045,-0.010304102518684,-0.0246101001540753,-0.000937151044316742
0.0318339597751852,-0.0138432989245178,-0.0121037765804423,0.00128467043717512
0.0317851488084641,-0.0101278948282162,-0.00614567775585202,0.00175763167395655
0.0259470445928344,-0.0138951009118318,0.000348837112053552,-0.000370289623925606
0.0144546109705207,-0.0214333481733231,0.00340793014052184,-0.00272587474320382
0.00533421523377954,-0.0281008652633619,-0.0032213486400485,-0.0035135738268162
0.00428780285300473,-0.0341775823400302,-0.0102395392826419,-0.00324694290946067
0.00647786142100652,-0.0366529448385322,-0.0137207963170198,-0.00257478947524527
-0.00289195736720289,-0.0284627894416919,-0.0192039345465551,-0.00153156681078738
-0.0220726958786252,-0.00386132602540228,-0.02156592729227,-0.000271031014964786
-0.0338479630626645,0.0224200574366015,-0.0144601224103556,0.000749196793426816
-0.0375591981579384,0.0331936902396411,-0.00574972900738561,0.00109186064793149
-0.038866059719584,0.0290586914576382,-0.00160208587721542,0.000699808453552743
-0.0334586893343297,0.0181728061444891,4.19435690493311e-05,-0.000133534776527546
-0.0221060032693307,0.00539829308934257,-0.00209162792768433,-0.000805206435496987
-0.0176505798632361,-0.0107051554977444,-0.0104502884641237,-0.000626173096888418
-0.0285506869041384,-0.0219386707712587,-0.0205782400502038,0.000258714250140434
-0.037601165210743,-0.0108145610022209,-0.0274760772505754,0.000957706929440618
-0.0273047957473887,0.00354025700347917,-0.0279618378666523,0.000277638169644308
-0.0113417432483378,-0.00617777444641741,-0.0149674800653467,-0.00165883483142775
-0.00328931925844419,-0.0182412233843703,0.00804017884268753,-0.00188531386932078
0.00239881284834257,-0.0164257734975815,0.027585830773181,0.00138502650907329
0.0111083994649024,-0.00789898284322236,0.0321193949466698,0.00578664721499964
0.0227655167200275,0.0055139469650607,0.0182334098165042,0.0082383216540228
0.0304206057700532,0.0156787905199902,0.00170516233174267,0.00733447864781874
0.0286164167015919,0.0148752191480057,-0.00374891841630052,0.00349751003675042
0.0225494999541811,0.00938616050207113,-0.00215584334306905,-0.000985635367759311
0.0158569964142546,0.00470411071949799,-0.000145855177819891,-0.003669506790002
0.00816542220062452,-0.00326777971851926,-0.00120690234793576,-0.0043381196059576
0.00187354491212824,-0.0121227532908329,-0.00123161451083006,-0.0044778711316362
-0.00137863244661939,-0.00840715942623227,0.00611826955414965,-0.00437121475330642
-0.00450701537905428,0.00739654977980427,0.015729521166135,-0.00307177174709629
-0.00968042692854058,0.0161689801907299,0.0152934763540108,-0.0003662480784202
-0.0165378335484377,0.0134049932133012,0.00322623289390064,0.00273880761067371
-0.0253574182311151,0.0142389664772622,-0.00876765671011723,0.00469004565041453
-0.0404799361589979,0.026058547347454,-0.0144064932786314,0.00465191054474953
-0.0681861788114723,0.0387446275071037,-0.0188458745951934,0.00337229567837982
-0.0965187565339008,0.0441091509952302,-0.0222220812830771,0.0023040755603385
-0.102760915454829,0.0457675157504518,-0.0186279272761319,0.00183794851976062
-0.0947108346354986,0.0448309397542983,-0.0112407836840706,0.00158120714904325
-0.090146989789425,0.0397865054177275,-0.00201514133290336,0.00134476815633036
-0.0779998450942595,0.027888678224648,0.00957839249576111,0.00133884157709106
-0.0514881503661539,0.0105218592676156,0.0158767899048448,0.00212441693592474
-0.0277733286428991,0.00643147933277933,0.0127184751751028,0.00345087923885087
-0.0139138252324534,0.0155616632827113,0.00791729429577604,0.00430731370464084
0.0031786105279237,-0.00250191625251577,0.0164983518726562,0.00430583444237242
0.0363440199870746,-0.0519885158902662,0.0439128238038235,0.00400277333224943
0.0848850521666536,-0.0795236024094614,0.0726225639674459,0.00395063122103189
0.132629000886749,-0.0652540190740565,0.0792068312919791,0.00355792133396768
0.153969046536052,-0.0352881340010077,0.059256141180157,0.00231532054667935
0.132965278743446,-0.00539258348814338,0.0302694755868543,0.000878607734156282
0.0824847666710151,0.0224562348268148,0.00678461266585477,-0.000616085722385729
0.025299468847769,0.0428521997797023,-0.0177056709599775,-0.00282024833528717
-0.0266778827698073,0.0460863359183962,-0.035861777965992,-0.00580383664065859
-0.0626981512665666,0.0355092045902309,-0.0309390801198838,-0.00802668625715333
-0.0800672570229842,0.0283558045390633,-0.0213504009566604,-0.00747565220306672
-0.0854560166903779,0.0309367284962107,-0.0241706421980255,-0.0044766182942304
-0.0807597487091635,0.0370350420732141,-0.0280920328104339,-0.00115113306642255
-0.0701739744555342,0.0381937438925746,-0.0232249535289667,0.00140924733846145
-0.0547827230097148,0.0282917809610279,-0.00891153000188052,0.00328010648146467
-0.0330141006509649,0.00977567878516802,0.00827039478651634,0.0044226093580466
-0.0087106695981432,-0.020973783389434,0.0204784638166173,0.00497589009502759
0.0130708458009643,-0.0583216078753238,0.0276968739246293,0.00549330988188307
0.0302201963556298,-0.0677556480759211,0.0287383028237544,0.00616792499851347
0.0423653837755989,-0.0475979296124319,0.0235075131428305,0.00602464421084988
0.0444081076857921,-0.032245857310036,0.0201040862368639,0.00421747299094907
0.0364331913697803,-0.0314148610890251,0.0185739404353346,0.00146626294364257
0.0239638966129896,-0.0343265316870225,0.0144242409486136,-0.00121689257910727
0.00463729119077943,-0.0387451312167494,0.0101277798353141,-0.00332347986198386
-0.0166921733898219,-0.0396502027886409,0.00481988082872504,-0.00451198520634871
-0.0169583436994009,-0.0230185619360287,-0.00175096985653909,-0.00494374029272256
0.00422222697306003,0.00278455791875911,-0.00587260901278013,-0.00515863693816839
0.0264973502819497,0.0164906064460513,-0.00783484844641222,-0.00520887810371261
0.0472317645560938,0.0126354449491855,-0.00939657766132275,-0.004826158349897
0.0708159674786988,0.00114724219412799,-0.00957472661641166,-0.00410269844660839
0.0918369226923109,-0.00357723471479386,-0.00582209402023983,-0.00325083931492498
0.0995148667362187,-0.00121753151568917,0.00036730924477172,-0.00206352583986251
0.0936526810275102,-0.00620138646988617,0.00393603955151738,-0.000423106871124002
0.078266975331488,-0.0245691026835478,0.000816713091602675,0.00121595496970464
0.0508734674374866,-0.0413236981640634,-0.00399916609148282,0.00257282589264086
0.0184009689413383,-0.0452849127934879,-0.000540234793858856,0.00351591753643819
-0.00581834757451623,-0.0463771600640351,0.00700701032027116,0.003926163059476
-0.0251243945030935,-0.0464772504495839,0.0112922751639506,0.00377479889040765
-0.0442255807741479,-0.0351862232138385,0.0130270796855796,0.00263356760819166
-0.0559962625757308,-0.0123953194824564,0.00997125339492972,0.000544275681729087
-0.0590998074878637,0.00954534952144177,0.000825064645917631,-0.0015712993790943
-0.0532469875705468,0.0161295658893257,-0.0103300695962058,-0.0033467784524171
-0.0403151293180939,0.00502064234267715,-0.0183981904850051,-0.0047193604763271
-0.0241857957996359,-0.00870919208992561,-0.0202919701023444,-0.00492066124689524
-0.00465687583454535,-0.00758613253117581,-0.0174486256226204,-0.00376745434179431
0.00850148503936003,0.00707220393682493,-0.0149046533182522,-0.0019719169371334
0.0123825217561633,0.0168346473004656,-0.0172401067398642,-4.91558433103395e-05
0.0210372961255891,-0.00166216075227692,-0.020803649351112,0.00123244667548602
0.0359370229486197,-0.0498944033339765,-0.0178058389505741,0.0013073965329826
0.0399728168724731,-0.0828098619203175,-0.00893447314568733,0.000916544785049286
0.026606357596319,-0.0712618779545995,-0.00262172208177659,0.000996841264522815
0.0100661774377473,-0.0474562550883876,-0.0025962458262067,0.00138494365948131
0.000661787429123151,-0.0424388436292029,0.00105095893503312,0.00123400658750954
-0.00305291579427773,-0.0402334149435546,0.00800590045479289,0.00049196198127489
-0.00476021852533507,-0.0169766815775387,0.0078356320427842,-0.000434922792002581
-0.00632732748110012,0.0107569792832982,0.0063621158190624,-0.00173180421981691
-0.00750904094881064,0.0210955159039663,0.00741108222549848,-0.00289608222623011
-0.00823602994689591,0.0178985043067638,0.00831788714057739,-0.00293154799191017
-0.00999952933892517,0.0110214681411113,0.00940756009433525,-0.001780891680141
-0.0143592851595226,0.00427954235801203,0.00719418032585971,-0.000154142655446473
-0.0169546127372325,-0.00388970731186672,-0.00143098721857503,0.00108024839454574
-0.0122293368659727,-0.0120890353056377,-0.0136790245223067,0.00141422607651488
-0.00236339779260644,-0.019358072721025,-0.0223868390837811,0.000640676410969744
0.00728796305266631,-0.031879039954922,-0.0240301913441351,-0.000872841416345208
0.00974670901335085,-0.0455585993400439,-0.0213084069554096,-0.00203697693231452
0.00498175554450344,-0.0442822204161764,-0.0169930890210891,-0.00195707058018797
0.00111273686347851,-0.032982730737173,-0.0126089487972995,-0.000681452794167138
0.00152819073135921,-0.0280819740367511,-0.00843608033679487,0.000847876826949641
0.00615300392477675,-0.0298852091731917,-0.0023732596745162,0.00173723498294273
0.0131025657590771,-0.0289853094582291,0.00234112014208187,0.0014825437810746
0.0152235880618048,-0.0223763313048231,0.00295341940243003,-0.000395360841201393
0.00505710028478325,-0.0158558211486388,0.00353819704075472,-0.00318800035338013
-0.01258172839657,-0.0113772438206686,0.00260139282188778,-0.00473971013146311
-0.0288580797318158,-0.00568914740220369,-0.00144878525436251,-0.0039417967897534
-0.037864483187185,0.00106349614764122,-0.00212692843844156,-0.00170308958490006
-0.0333597142244545,0.00752781468964324,0.00660921729367657,0.000268566907764699
-0.0187990585854434,0.00996884058657784,0.0212463487719507,0.00119545097196278
-0.00362222245561528,0.00287777540829256,0.0298302214844985,0.00191125057688867
0.00581081022763184,-0.00984937030607191,0.0258682931859678,0.00317151406439351
0.0106251888334856,-0.0174320562724982,0.0148031358751491,0.00445566894544894
0.0162352763722808,-0.0149130842347908,0.00658179448469511,0.00475016707171872
0.0228273942646058,-0.00973860626421401,0.00541012501067219,0.0034937639547679
0.0285219666408646,-0.00785899313720569,0.00711555178741826,0.000566292973530997
0.0322920816167983,-0.00446089346747331,0.00725659587675646,-0.00352755174267984
0.0349022518749887,0.00246900819752021,0.00261755488289438,-0.0073692101232165
0.0384096352567533,0.00704352091003436,-0.00883146903566728,-0.00956540507730963
0.0383787835702592,0.00758532723898447,-0.0194531209305527,-0.00955143002546802
0.0297413139438882,0.0102473730764738,-0.0176904427464721,-0.0075616697381883
0.0204859173900661,0.0147874517393493,-0.0102177332808121,-0.00467932729380774
0.0172551637963592,0.0124245343166957,-0.0067117966156853,-0.00201270827582935
0.0134628513082981,0.00300070190392498,-0.00227321675340184,0.000166932599413821
0.00522755827816448,-0.00443248219050914,0.00356455580752344,0.00184472581366113
-0.00347004884915382,-0.0055370241113956,0.00628093039194607,0.00307251183393136
-0.00789802525870484,-0.00485442754902799,0.00561984143366454,0.00411406686593571
-0.009568796001105,-0.00465627278943633,0.00419883544391049,0.00477731904400024
-0.013629597888604,-0.00117938760112959,0.00319987203764083,0.00478907796718451
-0.0165773186205436,0.00394891800690255,0.00329012833674086,0.00489879497982671
-0.0120566293016069,0.00521311562185304,0.0059354885322782,0.00624530717886449
-0.00259700314746697,0.00393032633134302,0.00823342277944413,0.00846397542403815
0.00377292170284639,0.00381393719278821,0.00835005130615572,0.00870483502725059
0.0041793257563283,0.00441177664046807,0.0079315621553275,0.0047376038840762
0.00317167328481518,0.00473656380875802,0.00604240512178192,-0.00182745079362643
0.00382713057739582,0.00416664724486281,0.00217682974583979,-0.00779639819329751
0.00531615094300786,0.00376628569584051,-0.000827542427364348,-0.011286141805139
0.00699405200246227,0.00406148100122578,-0.000909387328641899,-0.0121363910360291
0.00563517521943479,0.00472653407455617,-0.000695022843383375,-0.0105950184256755
-0.00161341972959366,0.00612485159294638,-0.00217026584282263,-0.00672309174353059
-0.00945116951034388,0.00590375218782648,-0.00174361682567812,-0.00165677806569202
-0.0112235259148146,0.00297655004943358,0.00165420386172811,0.00273750248223701
-0.00829065212216209,-0.00105911015918208,0.00317372413856016,0.00510573599255741
-0.00497055060395287,-0.00265161651353461,-7.76113486028194e-05,0.00539763829437077
-0.00343003998021291,0.00194695749328135,-0.00763768822698006,0.00461891726809331
-0.0031119015398587,0.00694330726060192,-0.0123553353898806,0.00351531426037996
-0.0014852139071505,0.00671290430893926,-0.00943216093055788,0.00294247933879848
0.000874041334809176,0.00367849770487134,-0.00408121381743098,0.00371162250454959
0.00314363927362287,-0.000489290386762495,0.000116431932276949,0.00498244315896618
0.00388346357918018,-0.0042301128854581,0.00299601408539985,0.00554630540405216
0.00196514207963084,-0.00373758581369553,0.00488141606047847,0.00515075078805269
-0.00103525653326998,0.00305209004923506,0.0067250611025815,0.00375782257893264
-0.00496083986747708,0.0103715061440652,0.00933978700044503,0.00186278417567348
-0.00520038233637513,0.013444484932268,0.0103482859564448,0.000255919461269554
0.0021978006119613,0.0160696002000633,0.00679277295602507,-0.00050046600000144
0.00966973386677463,0.017495157336501,0.00149390526095208,-0.000337641765007041
0.0083533616059135,0.0128212298841231,-0.00212765721478435,-8.97144334788746e-05
-0.000949937846128047,0.00716600235632808,-0.00336810444406312,-0.000387227394512564
-0.00991318520109464,0.00569035807515394,0.000702108977617962,-0.000620714776965426
-0.0122780274330053,0.00421586730794169,0.00550747525631656,0.000279879488933287
-0.00696171784325428,-0.00197864221889129,0.00248640899366698,0.00169965471665822
0.0033371759225952,-0.0168642283484493,-0.000104790253901098,0.00155450165583229
0.0114123523494503,-0.0306085116217834,0.00437435084563304,-7.46806706997073e-05
0.00852393060653032,-0.0212688783163417,0.00487978502939895,-0.00120910993587367
-0.0033843620818896,0.00166368391593325,-5.20998562456897e-05,-0.001577922919616
-0.012217111502103,0.00864094025434675,-0.00248048752291284,-0.00186097810116175
-0.0155619738599456,0.00270323660608338,-0.00343024590469647,-0.00165372580594743
-0.0151310568691306,0.00204355927930609,-0.00460327090643631,-0.000956277783252069
-0.00860917634208619,0.00662068494145595,-0.00439503582180486,-0.000590626427051649
-0.00286909659085094,0.00896836880288685,-0.00206661213640207,-0.000690013840570615
-0.00469122928371803,0.0083537530801729,1.70347640687132e-05,-0.00113917219011232
-0.00689028355425088,0.00627908307580625,0.000234936398155865,-0.00185216072430146
-0.00344536905027574,-0.000129766615367675,0.00160637126507565,-0.00205702187823613
0.00297208769856747,-0.0085470164129531,0.00430005770342757,-0.000533934194282624
0.00931717313494149,-0.0119886904102739,0.00607227638150762,0.00263156960102005
0.0123416990667226,-0.0132480292630495,0.00693808537344412,0.00514230464384672
0.0112261913528937,-0.0141466398618043,0.00699981598407568,0.00495297607861059
0.00945092724858162,-0.00948861978147251,0.00676286738088589,0.00230833559567226
0.00739521428873322,-0.00298118889404369,0.00598019304142176,-0.000837387157623133
0.0050741271188087,-0.0025493078150171,0.00371719220862785,-0.00253543418040916
0.00539060772402486,-0.00643592223143453,0.000207241843517716,-0.00269927609372249
0.00884607586835963,-0.00683816593357215,-0.00145037216352565,-0.00238690540829256
0.0141318544252614,-0.00392838620448632,0.00294740928072288,-0.00230482298295107
0.0182795609314148,-0.00541800016214589,0.0108231465436489,-0.00276878062197991
0.0189605026761407,-0.011099800979885,0.0149958223125654,-0.00333545218550867
0.0186695754943889,-0.0126993224084455,0.0118470950977499,-0.00335548460784744
0.0200458640023804,-0.00684277743564526,0.00661816956034308,-0.00298460183982949
0.0203489652387139,-0.00195652652092096,0.00491727144037415,-0.00248443766642897
0.0150626156299119,-0.0029059599798327,0.0049101926405732,-0.00178990326442119
0.00568768895880455,-0.00434983838941898,0.00483928438615479,-0.000659120977991432
-0.0029625411298531,-0.0064618179367631,0.00377212613508616,0.00114514243505401
-0.00813988528651222,-0.0082997484166953,0.00391524662864552,0.00280834043533023
-0.0105836492613619,-0.00550670292442903,0.00725864249365786,0.00291235509714179
-0.0167986186526588,0.00117229547064068,0.00994637083180655,0.00135558733610167
-0.0315561625064878,0.00730137400642755,0.00988722177619083,-0.00066915436730062
-0.0495744988825926,0.00739917221439471,0.00727488422268929,-0.00210875259526238
-0.0561090653795293,0.0019896584581253,0.00257398596462651,-0.00255656540552026
-0.0441116664868183,-0.0041609801597699,-0.00154107568973006,-0.00218291346828094
-0.0246815979568905,-0.00968468360843239,0.000211595752602182,-0.00146443298528349
-0.00304945636883241,-0.0157661566845298,0.00986362453421293,-0.000631622664683614
0.0178430165446205,-0.0171555990449847,0.0184991744642346,9.91678362813272e-05
0.0278159502794893,-0.00615230627062432,0.0170567270937543,0.000111000101708773
0.0269304629458535,0.0112661984235105,0.0120435411188496,-0.000448301183977736
0.0217356741361355,0.0234886651277403,0.0114808255645731,-0.000723274748130372
0.0214436051794443,0.0265264028495845,0.0117748152602636,-0.00068829020387891
0.0296096498817336,0.0177500186727031,0.0104598576351121,-0.000448812604374793
0.0274144898355803,0.00418712481639049,0.00732310250941722,0.000434583465289976
0.00496684277627958,0.00682561424621072,0.00430579299772045,0.00202291738286313
-0.0171542113254228,0.0213922991382403,0.00483501437882077,0.00370515890510625
-0.0257691877869056,0.0223576534238772,0.00705129757472842,0.00420902473446319
-0.0298281676056171,0.0121785267383186,0.0106456112412447,0.00267484760738144
-0.0402826507166264,0.0074300068998208,0.015435471435762,0.000406167972839616
-0.0483022068861952,0.00850627824564607,0.0173770454034435,-0.000889269641447988
-0.0426031791320903,0.00674255171147496,0.0152309508928824,-0.00120528665674607
-0.0314041415205808,-0.00157123997052201,0.0119231348392039,-0.00114199456123167
-0.017900724928472,-0.00512822315172027,0.00969424237641994,-0.000961210842831815
-0.00253114698464834,0.0038964796275629,0.00734838747312593,-0.000779394307659031
0.00867279306860651,0.0106847553768193,0.00481216721422546,-0.00073485026439944
0.014617159479447,0.00512281526504514,0.00401374072475778,-0.000631915524740102
0.0133672917937007,0.00426424548404617,0.00376774917653067,-5.3590005711261e-05
0.00759056137224867,0.0204016039876548,0.00306280777610578,0.00104964138653718
0.00650534157584822,0.0375301589115386,0.00489066963660808,0.00226761082050754
0.0136956027720456,0.0406931637171175,0.00822318139753757,0.00273914771206896
0.0245404388389607,0.0256645355488424,0.01023484333524,0.00215599156270855
0.0257226351495619,0.00333528810826341,0.012051201529025,0.00150158692184308
0.00425561765889482,0.000549157449549711,0.0156154795967584,0.00144498531741549
-0.0300486929535037,0.0148740580133237,0.0231090933120382,0.00118245296083472
-0.0492206995756149,0.025694136744286,0.0241417482918671,0.000559865976191676
-0.0394795586851659,0.0410614812970287,0.00996877532043848,0.000746744221096087
-0.0157066746675182,0.0600981792295397,-0.00361072543862464,0.00139860339374921
-0.00266070425656535,0.0592627618254455,-0.0056365632322469,0.00126634728201875
-0.00242239237688262,0.042003481164484,-0.00285931307470811,0.000436639952536116
-0.00242094592214056,0.0259621846248028,-0.000726928567969547,-0.000689152900865459
0.00172770618813705,0.0147340994284493,-0.00188603959596818,-0.00188987480194904
0.0137824083948586,0.00216165973778283,-0.00644041086103863,-0.0025495074951394
0.0336789705799631,-0.0331713787070451,-0.00750233350640059,-0.0026313196742314
0.0429357171612301,-0.0759076900806502,0.000227417727161379,-0.00251072364096779
0.0255132507759541,-0.0688219988180078,0.0125923972031229,-0.00135538134344424
-0.00235597892273575,-0.019857519676542,0.0183484522671002,0.00135285072847467
-0.0148937144986109,0.0257626020988771,0.00806790261260563,0.0037212821803556
-0.00852954733714252,0.0542064537172719,-0.00933029362367461,0.00363488853075256
0.00672356895250735,0.0576092501819467,-0.0150802319303732,0.00145938740181484
0.0242533239437337,0.041542775211756,-0.00931079214188838,-0.000844795057516428
0.0362091042353041,0.0214401627037047,-0.00263325512752599,-0.00200930324197654
0.0344893785029672,0.00417759533320177,0.00396874748141316,-0.0021683512510472
0.0245998795723878,-0.00188983234071096,0.0105141429476721,-0.00178728853776201
0.0165112679624541,-0.00292023231429551,0.0109447439680865,-0.000971197226048751
0.0119174269929519,-0.0079855945205743,0.00263591373581903,8.87700977768007e-05
0.0102119825117859,-0.00421860935304402,-0.00848996763171434,0.00118693323558142
0.00887973084268217,0.0071601973509122,-0.0161937971663697,0.00209156032610696
0.00335934427129941,0.0110595469886706,-0.0191508016232961,0.00254011157173346
-0.00515272323075153,0.00812288931363113,-0.0188898231457922,0.00257441188893473
-0.0121402201574422,0.00412443790671099,-0.017519859890588,0.00183465662076055
-0.017756110175225,-0.00206165979597832,-0.0152918372838572,0.000141224541095992
-0.0253869365650863,-0.004813498779037,-0.0192383080046706,-0.00127770500082493
-0.0356555471597521,-0.000728060772497635,-0.0346581542854673,-0.00207869296808235
-0.0407607292474901,0.00107471325621567,-0.0446360783452348,-0.00328375663473705
-0.033944217077218,0.000668617522927096,-0.0369883116566081,-0.00432271212637534
-0.0162602262139977,0.000503651577796433,-0.0211504714728311,-0.00392678733400001
0.00908775886129397,0.00106374762076146,-0.00655117821921981,-0.00227016397741874
0.0321903795296289,0.000457329038736871,0.00890635647254898,-0.000373766237610394
0.0442934915145747,-0.00434940840887445,0.0237774980102137,0.00120719594845213
0.0453512695595902,-0.00779288846986849,0.0259549077584309,0.00233017714619524
0.0384543945295308,-0.00417636932016537,0.0138236829789062,0.00258680217674957
0.0294161187806929,0.00492610537735171,0.00065423614134303,0.00199758243105842
0.029855902909433,0.00883122728611332,-0.00329060221802183,0.00145284940412714
0.0397946412603519,-0.00265469493039308,0.000130804816069668,0.00171583379555414
0.0396257841210047,-0.0179712676594644,0.00274295126120341,0.00253411690454036
0.0157204374342016,-0.0113684965341642,0.00113117629343606,0.00295485527692405
-0.026483470436075,0.010061329200858,-0.000277598724987713,0.00250040238253419
-0.0632199094047597,0.0197430175338475,-0.000273438444699351,0.00155648389196551
-0.0695618037742632,0.0176531404857192,-0.00280419811490275,0.000389551119767023
-0.0522760328641083,0.0117863672777235,-0.00633156308990143,-0.000834145880417904
-0.0329964418079357,0.00404463761941825,-0.00645046965011967,-0.00164380290490233
-0.0166998490309298,-0.000864045490563885,-0.00362260848307433,-0.00205307027042523
-0.00417654526607891,-0.0012571617436407,-0.00338383983701542,-0.00238187459709325
0.00247569242911344,-0.00129965398293313,-0.00916516781701749,-0.00258556127046225
0.0046841758349192,-0.00279072539236548,-0.0128733730545847,-0.00249471048141656
0.0051663627493395,-0.00382787529442422,-0.00978425597640123,-0.00194110146608602
0.00649563573721949,-0.00426737434859673,-0.00466430470382899,-0.00088932157367545
0.00918167608618373,-0.00457989393691854,-0.00147969152087888,0.000359237904445179
0.0100034646653448,-0.00188056242566951,-0.000316403679568319,0.00141095782194293
0.00591297529740329,0.00248626067687865,0.00516043918009506,0.00240962396196235
-0.0022902099240464,0.00381180623753861,0.0145322850107711,0.00407949251788263
-0.0113360938358921,0.00751856461038453,0.0152219010199624,0.00629399648745514
-0.0185949156195494,0.0176991883173485,0.00692894076304814,0.00745719742035079
-0.0225111754544716,0.0236425376115806,0.00243012850430335,0.00620745120231791
-0.0236027279563627,0.0158650598697166,0.00686675516960278,0.00257321114258423
-0.0229506870469381,0.00522794943651447,0.0141690990105864,-0.00185827692529601
-0.0195145373631409,0.00417458697270631,0.0158825806705116,-0.00449515831058909
-0.0132957689954464,0.00755034706030451,0.0124132040143164,-0.00403206147499901
-0.00617237324455283,0.00857383433053457,0.00839601021396268,-0.00166142323097057
-0.00174953805185121,0.00982950836047174,0.00618291748601553,0.000368349479915946
0.000107658723079159,0.0120223936240796,0.00503029810004979,0.00098496249998595
0.00341824366675188,0.0110563265309515,0.00219654964868032,0.000581404244989442
0.00446097905637452,0.00836288091787139,-0.00151988210425228,-0.000236779929921303
-0.00289834780904904,0.00446812185113671,-0.00132092466136642,-0.000773406170979646
-0.00984587334276879,0.00102298238968858,0.00117802945299268,-0.000414311284822064
-0.0049097807689212,0.00655707845408472,-0.00223024017958255,0.000416529955304005
0.00177060093950413,0.0154212605997887,-0.00906167626633225,0.000539687660661159
-0.00176643317481514,0.016018257999589,-0.0117219100411425,-0.000292298909602751
-0.00800993720779096,0.00793031056164738,-0.0124571310294379,-0.00115844030405719
-0.00919254316395847,-0.00619509214558003,-0.0124632270284624,-0.00149893391538305
-0.00775723290603527,-0.0147671824391632,-0.0172569080575294,-0.00120609382059859
-0.0100379052590017,-0.00686786564579277,-0.0309855854614981,-0.00081173569942548
-0.0180802387023862,0.0078230597963451,-0.0391268354241263,-0.00151755736517279
-0.0249992101995717,0.0129693219186576,-0.0374588687375085,-0.00282437769454144
-0.0267819280228651,0.00524188744320457,-0.0375467328894125,-0.00295576132960925
-0.0284757498089955,-0.0113609133357192,-0.0388427618450558,-0.00175508408842666
-0.0300865233972851,-0.0302705741279739,-0.0351823356166618,-0.000228083959634863
-0.0292938557460304,-0.0352397002168492,-0.0285743203535764,0.00126190856168645
-0.0288292147003235,-0.0202978639038283,-0.0221477966470741,0.00228440860686589
-0.0289957524047169,-0.00432595229063396,-0.0179926636154037,0.00199554936398025
-0.0287500680811243,-0.00135378751033884,-0.0169091876188537,0.000456956983986943
-0.0261608101478133,-0.010004024621223,-0.0142077534819473,-0.0012104591800784
-0.0170423668535132,-0.0156864649570481,-0.0144723552560199,-0.00179526689098931
-0.00421592488113068,-0.00214759111676692,-0.0229172398061708,-0.00178736310534333
0.00545845008150943,0.01513897704695,-0.0197953960028451,-0.00287750411489278
0.0130498991990751,0.0216875024324629,0.000206302425518515,-0.00433623229371416
0.0153617712996861,0.0329163335425691,0.0154152666214192,-0.00378075752210413
0.0097586198300691,0.0510324278943049,0.0163430564197648,-0.00131666561719074
0.00715464529193894,0.0566513381117387,0.00657560229382423,0.00069399949144684
0.0116560283986512,0.0354902858896348,-0.00611129891125584,0.000807726762481145
0.0146762828519252,0.00210655389691021,-0.016646589280265,2.08586350432787e-05
0.0131893187408764,-0.0144898719823444,-0.0251967831166583,-0.000101687258036615
0.0141146429423436,-0.0124425336551503,-0.0290171404614375,0.000466317102673712
0.0208719813540597,-0.00615451987542974,-0.0297172849871802,0.000881565206607598
0.0227984553425182,-0.00386880717273227,-0.0309905562978274,0.000167760534740141
0.0114817688215676,-0.00818651935092178,-0.0320074188435524,-0.00184903790180441
-0.0108970842913421,-0.0217666465487383,-0.0323571602645448,-0.0038752084500731
-0.0433761699931065,-0.0541360380124841,-0.0274737378770487,-0.0043731739275851
-0.0740238048946922,-0.0896760301305832,-0.0182726930443403,-0.00280688635036849
-0.0808099863834257,-0.0868952148015008,-0.00911668518243338,-0.000289229117109566
-0.0628139766874092,-0.0534629102906674,0.00250820174391214,0.00155985035235778
-0.0456978532149922,-0.0250715896832907,0.0153273183188189,0.00240038309526189
-0.0431282055701677,-0.00353416759057851,0.0238975085861777,0.00273113129844804
-0.0404440333296485,0.0146986254742571,0.0237271603488008,0.0026367918945471
-0.0253806930579384,0.0210302404360377,0.0185005604425612,0.00205712881769626
-0.00287646976059733,0.0161431641572104,0.011137538663101,0.00132755870479165
0.0147230269276464,0.0172655682156608,-0.00442222742985877,0.000749054237024797
0.0204679729768354,0.0266431265952145,-0.0188065163989564,0.000339738629553054
0.0257300943923536,0.0260993053549813,-0.0163094752738145,0.000107834820759938
0.0503222089755117,0.0117643731908366,-0.00259228762054801,9.72298509737668e-05
0.0955082337807569,-0.00751980332032948,0.0105021569000781,0.000425424494532116
0.125811688641622,-0.0277251820666085,0.0224803701388753,0.00126471354653661
0.106353824873965,-0.0398298086003787,0.0344451213954479,0.00266287055428601
0.0570658611789191,-0.0131823666044279,0.0256759765122322,0.00399281380966724
0.0150187085605306,0.0369930363487629,-0.00418865561848806,0.00245607820547733
-0.0108347065048537,0.0403435714323349,-0.013686621008468,-0.00293374192957712
-0.0227889329622604,0.00299454911468493,-0.00143347423586554,-0.00703556234707304
-0.0223668312176323,-0.0195559671982327,0.00379098299365976,-0.00580304649370126
-0.0161859372864562,-0.0197981585574064,0.0018650404971967,-0.00173631818353564
-0.0153261080528323,-0.0173482763941565,0.00169749108983915,0.00155618600265275
-0.0227413961814137,-0.0229744903830114,0.00425937781631732,0.00330871034834898
-0.0265228607852136,-0.0283053593080569,0.00784010254778361,0.00397681722503951
-0.0185868849685038,-0.0243151329315735,0.0101653799222109,0.00389569725132431
-0.00387252560173253,-0.0153388465571516,0.00904916354955791,0.00316544419941953
0.01356386334849,-0.00511535749709488,0.00151841539565999,0.00179923874221919
0.0317167593965751,0.00659040155043843,-0.00861863488745652,0.000413056546179213
0.0473207535562361,0.0147735688804001,-0.0107004658155613,-0.000141957170770069
0.0549482500209413,0.0165219804146433,-0.00669146555105495,-1.74455003900901e-06
0.049846697841188,0.011972169847511,-0.00428844583437095,2.93658942037648e-06
0.0361982278245437,0.00415498267692746,-0.00247387033312264,-2.14718114674303e-05
0.023538042511012,-0.00402534606127065,-0.000741095579264241,0.000792540126387462
0.0158658384410729,-0.0188673268587261,0.000479310071226927,0.0019659888511692
0.00749329260295259,-0.0308861010090482,0.00221096547710963,0.00198348118167389
-0.00108880187011196,-0.0189132454697942,0.00152957951341065,0.000446089646775337
0.000495304053370973,0.00377213110160778,-0.00308539100113483,-0.00196595254343928
0.0102271811485131,0.00947027834434758,-0.00446263614068717,-0.00401638009124511
0.0181546107746406,0.00183293581322757,-0.00104683364531732,-0.0040348577460291
0.0212809341837992,1.59774155926266e-05,0.00191937856820112,-0.00181680760535634
0.0189004691507565,0.00608656952024074,0.00188773607193316,0.00048058819646116
0.00988504394886255,0.00966664772633663,-0.000499450936125539,0.00101808499080088
-0.000922086646535421,0.00811080260179712,-0.006656411156111,0.000143447115399793
-0.0069260920945024,0.0045115177867126,-0.0226715763539866,-0.00151257350389118
-0.00748593120614835,-0.00366425422217206,-0.0387184736793742,-0.00349958050948123
-0.00448742500531528,-0.0153355474776134,-0.042604414337194,-0.00443784795600642
-0.00112970820579928,-0.0207822470422353,-0.041613130642436,-0.0035791682025438
-0.00137235241947764,-0.0163220580925043,-0.041074428980633,-0.00219821190550688
-0.00493628807101756,-0.0114040177483207,-0.0393393512523175,-0.00178162463485524
-0.00954342144054109,-0.0129052563934199,-0.036305815527305,-0.00184639361213449
-0.0154573293859915,-0.0163623872528357,-0.0312823671123408,-0.00117472565057522
-0.021038303523877,-0.0225544174238648,-0.0245999925519562,0.000464791355375765
-0.0238202350010298,-0.0309277050667065,-0.0148051647608958,0.00296469600176739
-0.0217519119182773,-0.0249267029369647,-0.00450680699687599,0.00596568466209714
-0.0152072800433752,0.00223287562945456,-0.00350671614828622,0.00734275120059704
-0.0126125030536233,0.0322216688242404,-0.0124676201221736,0.00472427854455541
-0.0174271917110036,0.0470788288831307,-0.0175601218815615,-0.000431732743141462
-0.0207996355758544,0.0446448169050416,-0.00729867793219653,-0.00393858678349007
-0.0163674710176536,0.0299759318645801,0.0157511419213618,-0.00307041428217406
-0.00560245010993102,0.0131571865986401,0.0403753149277425,0.0013790472144508
0.00642496140099508,0.00221686231427994,0.0597716663404009,0.00600111725788072
0.0161752543253232,-0.00574879923206137,0.0708913957339981,0.00782689223500933
0.0190106443334049,-0.0100586183612664,0.0631282842855174,0.00560095727488348
0.00917222872673124,-0.00553287289492557,0.0332189572654352,0.000110916798310554
-0.00841424709715353,0.000494519486375338,-0.00419825336163568,-0.00565562730088273
-0.0218790295661844,-0.00736222254626089,-0.0326311213959145,-0.00904403320095186
-0.0288728839168168,-0.0265913024824973,-0.0417824665127226,-0.00932812389327436
-0.0370431870576626,-0.0328780671391851,-0.0315059872396652,-0.00668881467227911
-0.0443276265105198,-0.0175690498806348,-0.0162149712419166,-0.0026729038443785
-0.0403639725233211,0.00489421867191556,-0.00752660769370585,0.000580992888523621
-0.0280870594777993,0.0216659133848388,-0.00173819537959762,0.00252262777736491
-0.0177621365819469,0.0301387453947865,0.00738062337279239,0.0037548457981135
-0.0111970718955535,0.0355553538424588,0.0141329531232444,0.00425405658960066
-0.00499935306677024,0.038001804023478,0.0124211843209655,0.00317246847758249
0.00171790780469136,0.0363131220199429,0.00970005818411363,0.00112930537378043
0.00921447578944297,0.0343723386003284,0.015209556628406,0.000260697354832228
0.0206147340186165,0.0310454614588056,0.0249072291365331,0.00138060648345425
0.0357741901086508,0.0251222786065775,0.0281838390814307,0.00332950968988873
0.0495269290303629,0.0220710300786137,0.0243770649885503,0.00432365701680785
0.0534184191391019,0.0221362784184816,0.023384073426934,0.003606154296056
0.038777379747438,0.0148837183898166,0.0290356014886823,0.00233162617379802
0.0101831497776514,0.000701016970423834,0.0323297428760575,0.00166837680997436
-0.0145928752679297,-0.0049162454430621,0.0315349396909601,0.0017911000540418
-0.0241408571223673,0.00649695969328342,0.0346218019296303,0.00272549083473034
-0.0167691269506152,0.0260089810920186,0.0393182573842793,0.0030711748064524
-0.00425255812079828,0.0331740101464541,0.0403322097677613,0.000779527464576237
-0.00583920181138065,0.0261133092951295,0.0475142831353564,-0.00315430406702206
-0.0157977184647402,0.0210413514370544,0.0618219793329531,-0.00537588798889245
-0.0173028631251075,0.0204612248870521,0.0627832427556047,-0.00462751364798208
-0.0145769743046917,0.0172616835233497,0.045514808148892,-0.00276420378553046
-0.0119102609754972,0.0161725354951521,0.0276607194216667,-0.00173020930911201
-0.00679442754427896,0.0254233082814977,0.0172407194388294,-0.00174531121798756
0.000387051279269093,0.033903243046866,0.0114260926269454,-0.00185433811532582
0.0131327567235134,0.0257269394796547,0.0102612376593557,-0.00141575464281974
0.0237567351384081,0.00182616736168221,0.0163581706576717,-0.000907860067943092
0.0202421254147394,-0.0211245908737645,0.0237553246242699,-0.000701214836926726
0.0112441718966404,-0.0196432824397325,0.0186773382617823,-0.000108674013711642
0.00825460459320744,0.00379329305420294,0.00506426154325232,0.00160474261896877
0.00543787956075369,0.0151033879773392,-0.00228214729974805,0.00381869540326975
-0.00199939865866292,0.00557312822768822,-0.000984238093158474,0.0043537793828297
-0.00582927076398411,-0.00413847619741883,0.00220934565126244,0.00210293048975366
-0.00864509797603252,-0.0102443192121835,0.00467545010505505,-0.000943484407736861
-0.0244007749280275,-0.0197219458462724,0.00810589577970274,-0.00242899455243376
-0.0428832081996483,-0.0234032679955427,0.00636033510512259,-0.00237173389076185
-0.047846380880024,-0.0161911066168235,-0.00133086818262003,-0.00230891189047119
-0.0452014925741384,-0.0116725671495114,-0.00249738893282754,-0.00285977785840564
-0.0422322917865352,-0.0187705881642963,0.00628351183926718,-0.00338011112479108
-0.0382426631182964,-0.0231555499157471,0.0157775495555115,-0.00312011022675568
-0.0355154463488841,-0.00295026386909621,0.0172860673025301,-0.00190137106653273
-0.0393070883497253,0.0338977272502743,0.0115677328680905,-0.000677829420954113
-0.0456154111191004,0.0639291656791799,0.00388491669956398,-0.000740188151994052
-0.0466578182944719,0.0734004446948441,-0.000197600141804467,-0.00190615406964336
-0.0406569936652513,0.0570549928438914,0.00168200050643869,-0.00246046939980511
-0.0255749033230598,0.0238554548154347,0.00398272992150522,-0.00127097442477577
-0.00108976354402385,-0.00634310921842814,0.00197936815484263,0.00127102859954531
0.0211404766218471,-0.0173880983785583,-0.00361220587154205,0.00390797548345875
0.0268782075303598,-0.0110116886314448,-0.00577882758880249,0.00508854301137413
0.0127039434702223,-0.00525782881096918,3.18653795547165e-05,0.00385159357073049
-0.00904752209558058,-0.0213961175482186,0.00634235257068998,0.000964528850749473
-0.0148615937746853,-0.0670462054205109,0.0100939125155038,-0.00118525008493558
0.00639695238478752,-0.105570878637032,0.0129016920784191,-0.000882082045728055
0.0422625363064049,-0.0898979173063718,0.014192762835582,0.000946340994306119
0.0689538614572464,-0.036404802742685,0.017788070364736,0.00225586831353175
0.0691197963868291,0.00720547830951634,0.0202431985720397,0.00240208418627804
0.0431240506197763,0.0266859203765513,0.0148357916738594,0.00180630400159517
0.00726443996982523,0.0284641437214473,0.00488462344164201,0.000721557025067757
-0.0182154791489568,0.0211323989246992,-0.00340952460745108,-0.000643209157748921
-0.0289120582657288,0.0174138180751303,-0.00718037677053169,-0.00185521782295506
-0.0342653713619516,0.0177262153058723,-0.00729523309893555,-0.00231330240176204
-0.0350636739979689,0.0146662353548842,-0.00797463902263199,-0.00181269499056105
-0.0277621909957129,0.0144699271480404,-0.0106489728694944,-0.000966334547780754
-0.0167496091120566,0.0206410850122098,-0.0126493766857056,-0.000646036801789837
-0.0039773532557445,0.0251238345978197,-0.00810698250890509,-0.0011153158980725
0.00945253110529823,0.0290460865679234,0.00539458260084443,-0.00179224929053838
0.0157948104742995,0.0328753532222361,0.019901983789916,-0.00202422872479648
0.0159976453203504,0.0283750945634231,0.0280866500185169,-0.00132292791388423
0.019028860039594,0.0201599820610987,0.0256763339570198,0.000526326344011637
0.0275970527275196,0.0168300262555893,0.0150917855945364,0.00264898848733305
0.0406945524672109,0.00953856079106499,0.00871303547432829,0.00386298670383012
0.0558759445720617,-0.0160154449733812,0.00844979097438852,0.00427391436512843
0.0660613384034096,-0.0427460342807378,0.00548356862723266,0.00446620036055255
0.0720036936375948,-0.0366026733758901,0.000935475225262214,0.00409041640594259
0.0822350777078559,-0.0139419230123173,5.83379260914519e-05,0.00236358059109345
0.0869672131016339,-0.00629555564579267,0.000849443773448837,-0.000403164790242478
0.0720575926230624,-0.00399051749903009,0.00146436192734444,-0.00280331291987929
0.049471076704663,-0.00167017792179286,0.00547879523849574,-0.00375459962267045
0.0285707578655014,-0.00978632035391411,0.0107488036237978,-0.0028883539996038
-0.00213024885504143,-0.0171507685200404,0.0119188141418909,-0.000872223035414564
-0.0359576893235481,-0.0119578691896966,0.0120645017196025,0.000843149670001749
-0.0558554097395911,-0.00246708375822867,0.0120073335773332,0.00154692093185996
-0.0636207747389681,0.00761530619525776,0.00590514277292732,0.00121595371967715
-0.0614320793740356,0.0134155390301288,-0.00728371300274337,-0.000167465117493196
-0.0467712013126291,0.00585786395505924,-0.0212475181670548,-0.00214032092640682
-0.0270960980846605,-0.0192470503997774,-0.0273891503351535,-0.00382728076979276
-0.0109594716539607,-0.0551757407142715,-0.0259589314998696,-0.00442216617713339
0.0027969259551795,-0.0768548798752637,-0.0249849335933479,-0.00375335512296444
0.0183549509537793,-0.0701281509889941,-0.023669882606606,-0.00276150958834634
0.0351835563709855,-0.0469435545325114,-0.0204085311949888,-0.00214642971947931
0.0462459043642614,-0.0250651106688851,-0.0207063247176871,-0.0014837721563992
0.0488431127292142,-0.0157486292238982,-0.026180589901383,-0.000348649720177848
0.0430109115245802,-0.0140708828571186,-0.0319861251238768,0.00111613972875038
0.0248503386696614,-0.00750207898716291,-0.0374537788611021,0.00180002782211334
0.000652352841216522,0.00169504140809625,-0.0408779105395615,0.00062135599744734
-0.0162335319479044,-0.00229916952342901,-0.0338681784902767,-0.00159011063969077
-0.0220407722693122,-0.018231157571762,-0.0120817177556372,-0.0028038230158771
-0.0170724656903394,-0.0122192647716417,0.0161924855154488,-0.00154602360442427
-0.00399112564024777,0.030776136314695,0.0342308954960785,0.00112778503706303
0.00660558438918696,0.0702051522790757,0.038588539841436,0.00216029943488758
0.00686604580135614,0.0665547606940555,0.0324356901940618,0.000955631904814129
-0.000929935026987218,0.0359396565819418,0.0121636366501805,-0.000144822333758932
-0.0119386963035461,0.00530011816120055,-0.014465642486311,-0.000178418335084761
-0.0223589890116089,-0.0257957951557637,-0.0316767425417888,-0.000226236276627159
-0.0298322921516973,-0.0536009130560141,-0.0343229742944626,-0.000367700808870058
-0.0337342940408309,-0.0595016959353964,-0.0232552141427458,0.000307835175572161
-0.0315059747009019,-0.0419580483581107,-0.0084563244091203,0.000859643203907299
-0.0228040475618414,-0.0310754544552362,-0.00772499523396652,-0.000156990921290315
-0.0123146756626292,-0.0383847867869198,-0.0202070432826082,-0.00168770956703965
-0.00184044942852895,-0.0403346399992181,-0.025525990974094,-0.00200387432441709
0.00872415543752718,-0.0309432827794592,-0.0158044145051191,-0.000957785264466513
0.0180704372724586,-0.0211112053626483,-0.00207231257448122,0.00068604047273194
0.02396532900895,-0.0154673621850747,0.00678675197388702,0.00201966109245769
0.0224456700948462,-0.0154632213389631,0.0120539351083803,0.00244140709119553
0.0178096747010685,-0.0171558599705542,0.0183755876603175,0.00199246887384881
0.0140990394597411,-0.00995322707845958,0.0290571399670325,0.00125782080278527
-0.00318329510591214,0.0157402323889065,0.0408469768761105,0.00104273692268222
-0.0367967237987723,0.050957132621441,0.0415605518051417,0.0015128962856739
-0.0628984077078073,0.0749558083025107,0.0296338845325264,0.00217632099602007
-0.070659979909392,0.080266853131638,0.0185978285658707,0.0027091753338616
-0.0666970941540851,0.0747807798355611,0.0130751650803284,0.00286885552222413
-0.0563425825496097,0.0683917490655958,0.00973757686394658,0.00227607647723058
-0.0428351137806257,0.067939227656682,0.00887379657679689,0.00110277172694688
-0.0268915095706894,0.0750253322421889,0.0111045443682636,0.000259785544963696
-0.0103005232404883,0.0815398725582302,0.0140250808991306,0.000420146267164001
0.00684714684377236,0.0799428639162702,0.0140021389348256,0.00110820050154715
0.0267608552351986,0.0640946313570316,0.0128574930529833,0.00144835371349321
0.0507506380684306,0.0259617272164402,0.0140381223624222,0.00154471178449845
0.0837371483322295,-0.0289409963603862,0.0135271727446195,0.0016500592174771
0.11897765351648,-0.075469203648528,0.00806247773691047,0.00142365828820129
0.134263167977732,-0.0736201803870455,0.00431449270781718,0.00104569704639138
0.114219062721645,-0.0162143657760314,0.00464041981988047,0.00100746386964894
0.0556850809774475,0.0453402889470483,0.00144554827663566,0.00106493718375959
-0.0228051592079553,0.0703430148646256,-0.00522505806820838,0.000464014979454321
-0.0808041308397472,0.058985216022427,-0.00818821569459966,-0.000902005333123519
-0.0984908350239209,0.0365656050493235,-0.005573131540173,-0.00188049739418216
-0.0908213420432833,0.0340694906721474,-0.000725796376994464,-0.00176597278197848
-0.0734450267547795,0.0462987247422832,0.00486601158813403,-0.00116976183746465
-0.0543731103682936,0.0497393219472898,0.00723314461544265,-0.000722876479578982
-0.0353403995513839,0.0340557525745407,0.000835985017610105,-0.000498166944893459
-0.0139592040596304,0.00386747002862984,-0.00737128214586296,-4.0695291902957e-05
0.00391376212733259,-0.024386319292001,-0.00765962202541656,0.00111835306375612
0.0217341495302776,-0.050143934942845,0.000855097610154947,0.00279309790935962
0.0484731467743355,-0.0819914077247046,0.0152073237693257,0.00399810766067219
0.0733662182714265,-0.0995155132883545,0.0332883870301614,0.0040167603001529
0.0815541617644871,-0.0763562980940569,0.0451712997015532,0.00305592210841998
0.076488812283996,-0.0300769494280468,0.0341338593794802,0.000945672588744301
0.0696636007859692,0.00515048746394273,0.00522653240936271,-0.00226679834939174
0.0596801752018163,0.0240667270519223,-0.0167856804814519,-0.005259429154596
0.0330475499754209,0.0331228959418869,-0.0235097493323323,-0.00672623139581202
-0.00555389783380887,0.0316664638253815,-0.0237083536874179,-0.00605625147072101
-0.0274042192047042,0.0203638560441509,-0.0222635174534023,-0.00360442865009404
-0.0223141736239802,0.00472598254924371,-0.0192024510660395,-0.000899965449416232
-0.00699011048172425,-0.00969463522340246,-0.0178638852163696,0.000687875921123873
0.00578796565684542,-0.0211900590565361,-0.0201053282601073,0.000811154955330397
0.0137977555271762,-0.0305122440081864,-0.0211015762095203,-5.76822279325279e-05
0.0195478242166372,-0.0371815998997971,-0.019629589742364,-0.000917943776415494
0.0263644727348969,-0.0422768977053945,-0.0181619542076208,-0.00114720002043633
0.0323926724589188,-0.0460306724786651,-0.0143609323805323,-0.000906319200342637
0.03658106126647,-0.0460454829424041,-0.0100297566224152,-0.000705039322488901
0.0401290484249001,-0.0430947023972327,-0.00972284651903991,-0.000852552583572711
0.0395744923885382,-0.0385420637634301,-0.0110131458970404,-0.00113223094108516
0.0344222031158627,-0.0365099860187104,-0.0106082216827972,-0.00121938005952759
0.0322725178407011,-0.0382747089725875,-0.00691031015785173,-0.00100730977968446
0.0316950712451394,-0.0402184845337509,-0.00134219853826058,-0.000514554544399056
0.0263611048275988,-0.0397142243047042,0.00290524288776076,-5.65119583112367e-05
0.0117614331178494,-0.0371223039190782,0.0054696461893408,4.09334919372425e-05
-0.0109658701964192,-0.0374562119489799,0.00674826854436423,5.04937293241535e-05
-0.0246313872507276,-0.0389046228215241,0.0068675090854438,0.000375159984773026
-0.0231670690658601,-0.0346561877314146,0.00640758460366632,0.000765867016490584
-0.0195195161498949,-0.0277820114192489,0.00508373814303875,0.000820893700387135
-0.0183386392237474,-0.0236492719601103,0.0040639682414475,0.000715872625977205
-0.0143392116482371,-0.021294525650903,0.00429833072470952,0.000794598135219713
-0.00865759401355615,-0.018030277552126,0.00527813257234096,0.000681668907228847
-0.00608541422131667,-0.0135251870104009,0.00544216546855067,-5.29060833996987e-05
-0.000948947851736028,-0.00929487840969896,0.00249012750769238,-0.000835767831421404
0.0103692814596713,-0.00380600428098071,-0.00324531852097455,-0.00108916017409497
0.0175327940288655,0.00437832348879917,-0.00746284680311885,-0.000904505384070942
0.0210827230683272,0.0129619307630613,-0.0100048339757462,-0.00054207476994026
0.0310135065218466,0.0178964257343589,-0.0128398857908464,-0.00028594037854927
0.0359989711001588,0.0197139765243096,-0.0155599501870004,-9.55083428655482e-05
0.0212046177808716,0.0213821351623868,-0.0176401990652254,0.00015731113903616
0.00125187112183575,0.0226712998876178,-0.0183499255271595,0.00028670874271409
-0.00576651967569178,0.0227172967278584,-0.0177762974323239,0.000122537120403709
-0.00618632499696493,0.0200348400347186,-0.0144082477589175,-0.00042594870755488
-0.0095767344220558,0.0174306702553546,-0.0103905627388748,-0.000939591951612743
-0.0111968713870742,0.0170370047672433,-0.01064562268324,-0.000996106872658171
-0.00738137002637486,0.0125419285694516,-0.0148288316788144,-0.00057514853099777
-0.00786562422975928,0.0064033442812893,-0.0192368477742857,0.000409454975316807
-0.0209901178286733,0.00556291113209899,-0.0220392290056518,0.00151409463712636
-0.0325191398185276,0.00166871968476734,-0.0207495181847104,0.00236025863583642
-0.0241852441431833,-0.0141767310188168,-0.0135811209559161,0.00338135704980339
-0.00550541212591071,-0.0265804791215439,-0.00658863488607773,0.00461756245584009
0.00798955889338379,-0.014295824969436,-0.00590695981698786,0.00483109098427452
0.0163132939388634,0.010124354969142,-0.00812041469493655,0.00280345826979757
0.0181297066196728,0.0148407933694028,-0.00927406627993685,-0.000539369666879099
0.00727982513055203,0.00100318734357824,-0.00884109712602806,-0.00275641118568209
-0.00922519282660433,-0.00531072759557123,-0.00788697283172102,-0.00264575675748978
-0.0133603173268827,-0.0012727532126177,-0.00781182132563771,-0.00114133719957105
-0.00187873969687125,0.00680966595558693,-0.0116580496933498,4.90499893944134e-05
0.0116317751581328,0.0189769315352038,-0.0206487404239894,-0.000166793029145413
0.0168919850167576,0.0261228537397246,-0.0282796417374773,-0.00147160484264881
0.0144861695708178,0.0240533093553219,-0.0273267329171317,-0.00250825057261937
0.0128882541667781,0.019906111599761,-0.0208749414145864,-0.0022751853992031
0.016971419713897,0.0171139027340643,-0.0171533615932251,-0.000947683324367649
0.0222333512916403,0.00901655841544577,-0.0164585966133878,0.000365112983313553
0.0199042017169937,-0.00713545085718468,-0.0146101772670198,0.000831664255294723
0.00727919093737055,-0.0131634313815869,-0.0116958437759739,0.000666069319128371
-0.0084153918993365,-0.00229068887332853,-0.0114090750730264,0.00028102492784946
-0.0217934579860657,0.00988128451595558,-0.0147321188642471,-0.000378827852504534
-0.0288832217795855,0.0164519168474606,-0.0185772275271209,-0.00115378095482849
-0.0243438928723428,0.0129682630966195,-0.0164680782046925,-0.00135142453153184
-0.0148179120993314,-0.00529890955940489,-0.0119608019009755,-0.000349540424532699
-0.00923570524841483,-0.028572665518904,-0.0105789819523653,0.00178185000725728
-0.00533247340707254,-0.0366709335348365,-0.00497221022656891,0.00415857097453585
-0.00101497123494366,-0.0269058968354902,0.00898387992419534,0.00573987757450515
0.00193867378817362,-0.0203110155041894,0.0245806319305748,0.00613546008311886
0.00523110382478774,-0.0120990085448309,0.0214366418779776,0.00540736175387547
0.00910306723547501,0.0168863317452975,-0.0099227590747216,0.00254578455563446
0.00617367525895466,0.0440702892408387,-0.0375461832374469,-0.00344114239049895
-0.0039256682931777,0.043828388102316,-0.0367809782059972,-0.00976379652067087
-0.0133993384203678,0.0271560502058361,-0.0234301139828735,-0.0117916641542176
-0.0157798683371401,0.0130554071358124,-0.0141701612807728,-0.00860154504105163
-0.00816887429938171,0.0068910873357714,-0.00995377994031783,-0.00311559487262637
0.00321704598646893,0.00385596718350732,-0.00783385272178228,0.00174684005798531
0.00566139720271823,-0.00282401802982856,-0.00640079986600992,0.004934550381483
-0.00363367154700566,-0.013232181824993,-0.00723490819278803,0.00632873014978585
-0.0154498713646785,-0.018067219265311,-0.0115472509104995,0.0059390381498625
-0.0217324602631874,-0.0112264170689809,-0.0135610010303054,0.00398390146130875
-0.019016461248988,-0.002383285306903,-0.00856450701977573,0.00104182610576093
-0.010091912098197,-0.00860015792404423,0.000788928286248927,-0.00162326675645514
0.000545119635429352,-0.0362386162199106,0.015014636741972,-0.00270528314782609
0.0102899557701733,-0.0638178043836571,0.0261879618481813,-0.00216105132264459
0.0122869860211158,-0.0622809153063098,0.0221077869766898,-0.00148163112042419
0.00672085602795713,-0.036172541952279,0.0104700773941032,-0.00239031014484646
0.000391619615408779,-0.00648768153337888,0.00113024948407752,-0.00376680848105264
-0.00884762647823855,0.0168650176225739,-0.00643626510628172,-0.00287313856360398
-0.0180467174454388,0.030237688461869,-0.0111667603471299,-0.00016200742048823
-0.0189253359999537,0.0327682971198029,-0.00965115618839059,0.001794045459647
-0.0163275152603018,0.0278870415143318,-0.00515758757419309,0.00230834680304423
-0.0181831386119642,0.0202785442662899,-0.00209309518977896,0.00242308186345588
-0.0198284477926498,0.0130826117963881,0.000111575989822202,0.00259985208171693
-0.0157166583858622,0.00934073007399567,0.00181707720412208,0.00245813277550269
-0.010938099644371,0.00818039832463417,0.00325907552016649,0.00166999108152963
-0.0106632682924249,0.00673467629789679,0.00449599041589491,0.000257244155494978
-0.0109531549125048,0.00466098411519636,0.0051007160728328,-0.00159818174532423
-0.00841995903282328,0.00145740629038125,0.00638432138767485,-0.00347190025795345
-0.00556844040131904,-0.0025106117498895,0.00878761409384396,-0.00438905167583099
-0.00112278998648619,-0.010197348303158,0.00969064422981193,-0.00391900372274847
0.0070037400747727,-0.0252913556812051,0.00743582138073267,-0.00263522097280214
0.0153316138568205,-0.0362449426800786,0.00304384224239809,-0.000952773399456529
0.0218037299934494,-0.0293321161964311,0.00145487122450801,0.00110822188146682
0.027117039984546,-0.0131289633609618,0.00464642538085513,0.00327959775007169
0.0273185640891119,-0.00510632176330952,0.00708079214479196,0.0046334379169141
0.0161011809236573,-0.00826499257556293,0.00491684008818952,0.00420141150771615
-0.00141758120866026,-0.0114995216129847,0.000208423141514998,0.00195951954014905
-0.0147375671585492,-0.00702633323846515,-0.00103521238375157,-0.00125672153537124
-0.0229235524286577,-0.000693473364236539,0.00397820226860474,-0.00447922383885369
-0.0266644407771341,0.00377666332097437,0.00945645245274649,-0.00681145260014275
-0.0255018426912417,0.00909898187776601,0.00890618370278435,-0.00731908767955713
-0.0207333535974604,0.0119475522848756,0.0061922409283881,-0.00541382648558811
-0.0130710975147757,0.0109449450909714,0.0124612836697345,-0.00154545644651566
-0.00553284288948269,0.00771927650275311,0.0246840588472961,0.002715359734803
-0.00233016572399134,0.000358839992765137,0.0263610219991702,0.0056561318487932
-0.00342809691298589,-0.00993822995550223,0.0162021706452917,0.00688897604930085
-0.0043946724372131,-0.0177817006927916,0.00604557613370986,0.00707671124003964
-0.0018124061659789,-0.0182884913601236,1.05399020635492e-05,0.00619470436826022
-6.82690768165376e-05,-0.0126845006661541,-0.00301091220458668,0.00405816501811341
-0.0049903304084061,-0.00724478080308555,-0.00258088325455651,0.00159522949399082
-0.0119184082771544,0.00297144260402632,0.000288084003160825,-0.000151675014888017
-0.0144698832040641,0.0212038624201625,0.00270116993606699,-0.000918280068410294
-0.0167618303876091,0.0304911925842996,0.00297150549569242,-0.00111419690063465
-0.021773274679439,0.025662194966036,0.0018530854312949,-0.0015590890024995
-0.0248060529532079,0.0175535942617962,0.00280556761868676,-0.0025059017780519
-0.0253902814641664,0.00876631972553152,0.00563914447146854,-0.0031037464611835
-0.0238818011115448,0.00303782291540037,0.00520176540603087,-0.00247487533490071
-0.0169501691313049,0.00136350704280161,0.00100804013994288,-0.0010566812092324
-0.0102824503670273,-0.00458111567155032,-0.0064859874545597,-0.000227482525995317
-0.0142982627919127,-0.011398670559642,-0.0185438804039256,-0.000933642509996363
-0.0248030115116904,-0.0125746076418388,-0.0295822578208895,-0.00247512388735348
-0.0309858006590798,-0.0214441389644858,-0.0336281743110319,-0.00307163931439327
-0.0296457294878353,-0.0346997879790086,-0.0327780341060071,-0.00190532258275158
-0.0200299708981157,-0.0257261107356585,-0.0303428193752089,2.33258563633624e-05
-0.00263544528596767,-0.00196317308656877,-0.0232817805225816,0.00101254106179838
0.0156838840407925,0.0132522199879935,-0.0126271207615835,0.000839760737057204
0.0262715957010636,0.0164139025890343,-0.0089738432249359,0.000623261520909474
0.0209612760466425,0.00539775016977099,-0.0128752445997054,0.00109548289799197
-0.000911861413030519,-0.0217962193828029,-0.014468640519729,0.00240049769513517
-0.0182370992464595,-0.0629523879148007,-0.00905292737736118,0.00428591725503513
-0.0149034939874128,-0.116239385134315,0.00758725859300594,0.00613433830291747
0.00284120797949154,-0.136890022006903,0.0365665535247589,0.00750172639959179
0.0313135127173732,-0.0724653196630257,0.0599642991889183,0.00752152480669093
0.0545183666289903,0.0213507706793492,0.0627601701834903,0.00472736081887871
0.041448180925587,0.0614062607626909,0.0512524624384568,-4.92023163410141e-05
5.76073680910727e-07,0.0577219132593949,0.0310106844349716,-0.00320549554355999
-0.0328238212098171,0.0492521880027662,0.00663760231207813,-0.00316910410827466
-0.0439456288967039,0.0423155910133563,-0.0107712758860445,-0.00234156047135807
-0.0420953358107337,0.032548694877089,-0.016895678335278,-0.00298324729782012
-0.0341767996087455,0.0221057158926813,-0.0145720957156405,-0.00462539117122174
-0.0265878312904564,0.0124348703062456,-0.00745772991010022,-0.00568821296816603
-0.0259858038062821,0.00230635854744503,-0.00214236942560304,-0.00518112383923945
-0.0289613147021168,-0.0038946163717955,-0.00105635196556605,-0.00338914962745519
-0.0280987942394736,-0.00609190262308541,0.0020756078657185,-0.00147984034454099
-0.0240876711456182,-0.00677239597818175,0.00768677274124643,-0.000151358138311688
-0.0293607778001767,0.000828797515897005,0.0097820323623429,0.000426252573647486
-0.0569579131999162,0.00979580165860976,0.0117195733666594,0.000235311513712148
-0.0949839216263049,0.00650260546473522,0.0184527686428931,-0.000229893891628795
-0.11277172405874,0.00164455475770125,0.0234931956225531,-0.000165041139956155
-0.101687360241896,0.00776215223243126,0.0204889072748874,0.000605016679634913
-0.0779174085267738,0.016814736921946,0.0146628306454032,0.00142271503562751
-0.0546724541437013,0.0189822939499354,0.013238026794738,0.0019095837218062
-0.0345219306738031,0.018826537935961,0.0149284073562512,0.00246597216251998
-0.0178798036659987,0.021659918768666,0.0167635400579534,0.00331893205405321
0.00172647910010701,0.0124921354597581,0.0180121140729922,0.00388295031109491
0.0323337121207447,-0.0209687696918422,0.0174984259217982,0.00377364545777302
0.0693732108563863,-0.0512511475668375,0.0163347504754591,0.00313437529318435
0.109887401305939,-0.0485112161958401,0.0161353648026614,0.00198603701894961
0.149340671708185,-0.0255090462099156,0.0170001709436896,0.000592823114977471
0.165297306499832,-0.00520379246283416,0.0203043792873028,-0.000566155708510515
0.138091035698342,0.0106488768516335,0.0276760333580845,-0.00138564563470939
0.0720813915262145,0.0278687844514848,0.0358537664012931,-0.00215692440098482
-0.00412688681112916,0.043428988702308,0.0398616061246201,-0.00291471190319293
-0.0533857848286386,0.0497266867121838,0.0399149007316818,-0.00305452741954844
-0.0657899968486969,0.0482710386079205,0.0372799368197161,-0.00244053339605463
-0.060280661726625,0.0456233602866209,0.0312271111423606,-0.00180915664064721
-0.0529745646610935,0.0421135639212728,0.0226131955725488,-0.00154825061236444
-0.0467245685216919,0.0367306244976555,0.0129467461890259,-0.0014244560901423
-0.0406564362922597,0.0307631415355528,0.00567402042818394,-0.00128041933207699
-0.0334508985410699,0.0224000333033058,0.00243733058051323,-0.000997208827503812
-0.0243588472377066,0.0103369000533337,0.0024775200243787,-0.000386020973299941
-0.0196877921042891,0.00159209952654404,0.00534874827127105,0.000386489922990968
-0.0235044586135422,0.000974986183253645,0.00545819542745574,0.00116852524286865
-0.0267874067272103,-0.00122071188977053,0.000238675268462283,0.00230259613057243
-0.0173929007891322,-0.0110459102080541,-0.00343915555959542,0.00375297999823
0.00782879196263869,-0.0178428819353976,-0.00103353158990623,0.00475855454440824
0.0422036668128691,-0.0143229646118756,0.0024676627721794,0.00474537136952564
0.0675809661579798,-0.00467033790465322,0.00154243206837838,0.00361137767189483
0.0696404495943443,0.00493744213581147,-0.00280806426285886,0.00175543670586194
0.0628375606611788,0.00890933443996611,-0.00902254698351406,-0.000146051603462941
0.0709139445885086,0.00634934683574257,-0.0141476213538696,-0.0017814264097318
0.0887831816829291,0.00127953054393103,-0.0139784161231775,-0.00303955537120874
0.0957334899108359,-0.0051479481871229,-0.0109688276327975,-0.00371064249521427
0.0876009505939272,-0.0114157367980562,-0.00952603166559303,-0.00376527454818172
0.070693459812339,-0.0132882670553168,-0.0113992449880031,-0.00361404429872248
0.053299472846061,-0.00965936156248247,-0.01369907652881,-0.00365902711091431
0.0420315278875506,-0.0031786816801145,-0.0133569566993904,-0.00350558261251034
0.0329866951372144,0.0047566390092634,-0.0143788466389784,-0.00264973549502552
0.0186483464395208,0.0135158689268579,-0.0157077787067628,-0.00145073772132326
-0.00117166863626668,0.0220388140144807,-0.0134443660622017,-0.000235027458804824
-0.0249626373996054,0.0296993152729849,-0.0126266135294876,0.00102813064047066
-0.0511776158723928,0.0367466501755703,-0.013947002396921,0.00212954028167183
-0.0725799757931408,0.0436946847172852,-0.0149062611218862,0.00276764415109538
-0.0767137809789677,0.044300081389776,-0.0169618699815405,0.00265581140846832
-0.0592898374034596,0.0276590716022944,-0.0154553413816053,0.00182786024160352
-0.0354936927025987,-0.00106604060355631,-0.00867354565882006,0.00114044325086816
-0.0183868031335488,-0.015977149300311,-0.000447863279021521,0.00150690877516593
-0.00718805748201538,-0.00604154163733346,0.00748754079107651,0.00256122063268259
0.00500245070062867,0.0079127615574093,0.00904871834443122,0.00289713718550471
0.027124559102322,-0.00110957918428258,0.00206093595464772,0.00170007430107583
0.0576264258650706,-0.0386595823005374,-0.00783072948377679,-0.000126121168928249
0.0723940670671925,-0.069190954881974,-0.016582782190368,-0.00123576066199246
0.0541299327988488,-0.0516035659089178,-0.019179760454028,-0.00135829407599142
0.0270183903173245,-0.00524974532434437,-0.0130839381062022,-0.000786831963393086
0.0147072805635868,0.024771371733879,-0.00780412943510359,-0.000116826672153573
0.0039221940150978,0.0316242290367576,-0.0115733281590269,-0.000414098369470719
-0.0179921667383177,0.0303873608539891,-0.020570577613168,-0.00226203449747249
-0.0377292321529405,0.0268364104866789,-0.0250871712997904,-0.00449339426449203
-0.0408965891069177,0.0188471848111435,-0.0218366898243771,-0.0054540191829376
-0.034526367735012,0.00920738876789561,-0.018328328964038,-0.00503941475909339
-0.0284103685470528,0.00275359992037011,-0.0178862602744552,-0.00377783093966344
-0.0224902123880737,-0.000301963719561239,-0.0171821195381159,-0.00189339150049585
-0.0158945766286471,-0.00120638075523041,-0.0153377224813884,0.000207292103178045
-0.0072636276100421,-0.00346213974030276,-0.0138165793624583,0.00182664937044512
-0.000522228087908229,-0.00908645734001679,-0.0146610664649447,0.00234765219724559
0.000215067946487676,-0.0144157509238528,-0.0164089235870978,0.0019822203037916
0.00206471688046423,-0.0151580425189208,-0.0145026281036949,0.00173992528046675
0.0090565412366546,-0.0136603388186172,-0.00994980576437019,0.00201390856716409
0.0165043436946775,-0.014721732120222,-0.00711380014167312,0.0021709411725698
0.0162358007026052,-0.0150145529114677,-0.00740460435984358,0.00176129750495648
0.00200342387781416,-0.00742025080848174,-0.00998558798638634,0.000986207576586368
-0.0136224096230872,0.0036428423905313,-0.0151057995501502,0.000246404275929443
-0.0160216900936608,0.00645923329751886,-0.0205306323650526,-0.000388022024052529
-0.0130737644879509,0.00182948836218636,-0.0226025383454427,-0.000819066205030084
-0.0147254617230934,-0.00301845525094767,-0.0212445036295163,-0.00075845246242615
-0.016741555454323,-0.00986104735742603,-0.0170371819750779,-0.000548746776369269
-0.0125486938992338,-0.0222349282216448,-0.00864033533721006,-0.000512529242677975
-0.00200475234746107,-0.0319538861693249,-0.00021948427712444,-0.000245324845457564
0.011064480572935,-0.0335306553418355,-0.000614852645746348,0.000350618030225698
0.0281170288374628,-0.0347694378468504,-0.00707540255961424,0.000421680002397288
0.0459469974511532,-0.0357651361522039,-0.00906461918864652,-0.000702309560372889
0.0468180294563447,-0.0275328074390834,-0.00731651950448761,-0.00210804010329514
0.0295696029498065,-0.0114017888067772,-0.0087012236780096,-0.00238731937794601
0.0151428653117657,0.003326919113451,-0.0131359731612358,-0.00152451387539413
0.0103904735823984,0.0133114851619307,-0.017511438624048,-0.000441120792440142
0.00772689634926279,0.0196797392833559,-0.0195847312313773,0.000128578133141078
0.0063871819780038,0.0200387444216156,-0.0180218161358197,-1.93965208442564e-05
0.00693446507156271,0.0156891448583808,-0.0120733882128451,-0.000648569863261678
0.00658226419842605,0.011171392017367,-4.31494345621182e-05,-0.00113885128191964
0.00558718996458404,0.00683112182965688,0.0125884645098006,-0.000715800033894441
0.00283750361497046,0.00504894265576451,0.0120765697873279,0.000208561296893955
-0.00140022867715023,0.00657417635426294,-0.000510915808668817,0.000180277507206785
-0.0016839684267412,0.00386490590140138,-0.0133452341503582,-0.000764597936362391
0.0014696878119541,-0.00998945397605865,-0.0214371780284378,-0.00125633690020093
0.000244862407881219,-0.0228055475804767,-0.023289580418315,-0.000777386094737873
-0.00896600011201689,-0.0164762017612861,-0.0214591383717451,0.000134520080895465
-0.0185661595960326,-0.00197401208511925,-0.0197893883352474,0.000564118136172296
-0.0173312245080451,0.00352855703889672,-0.017407610274676,0.000244296435750783
-0.00775527853206454,0.00332478488764407,-0.016248399156112,0.000100626338527221
-0.000322645620152417,0.00452802841275137,-0.0194446642514777,0.00082121989821429
0.00449155531142582,0.00736988733952654,-0.0229210169827292,0.00171754233173201
0.0105428576569113,0.00926264111418123,-0.0210542900775841,0.00173903130492773
0.0143225205246166,0.0105196239991086,-0.0128522267274254,0.00113028289970654
0.0118666209603614,0.0123079494197067,-0.00434571950684735,0.00124451860048567
0.00718627507738749,0.0154401630638185,-0.00245401373828653,0.00219812117655276
0.00241299243469673,0.0172580522421237,-0.00411623174620317,0.00257862365225674
-0.00391263429120021,0.0187863518590079,-0.00306648485445375,0.00179225578314696
-0.0115106954814286,0.0222884918866069,0.00122312101474673,0.000505659441456839
-0.0171607750319088,0.0208295791200429,0.00618779904396995,-0.000498684543443664
-0.0146940196114557,0.0131491534107713,0.00895178768304898,-0.00093549574771939
-0.00466956320002557,0.00676305379515462,0.00871814977310896,-0.000774788146173925
0.00634632651029592,0.00673920332951117,0.00545911715674323,6.72910377944966e-05
0.0135454253624079,0.00752879185462419,0.000853542252668087,0.000874553716878232
0.0160507792179453,0.00263902303141751,-0.00389251810860512,0.000794005399031439
0.0165805831878165,-0.00225349275703686,-0.00963667780629398,7.07214958503993e-05
0.016072973700766,-0.00227370652739655,-0.0128185644075699,-0.000881982552040154
0.0151433553663857,-0.00216745316945378,-0.0116476566850444,-0.00155672501454796
0.0144569688053492,-0.00691958755708089,-0.0122715089700029,-0.00124097769627112
0.0123022529780983,-0.0128756764961658,-0.0173321520736774,-0.000108894227400545
0.00779655207364821,-0.0137934095206552,-0.0221543132066737,0.00098807218149696
0.00156973100827717,-0.00927057320064134,-0.0246706104253006,0.00147402832430096
-0.00136918446798607,-0.00215809291609503,-0.0241088255673827,0.0014040925577476
0.00208375346096098,0.0018938608349802,-0.0187050220702527,0.00121521001067755
0.00659803313229813,-0.00109844622195924,-0.0146163820555635,0.00110047881219685
0.00839893833417721,-0.00338095367492897,-0.0143734321471851,0.000745032850097439
0.00627951328276164,-0.000894553305137692,-0.0121182612614334,-8.39926651907873e-05
0.00117715142193199,-0.00313740192706584,-0.00626404966165509,-0.000679628199913975
-0.0016214758370523,-0.00777689614537179,-0.00052844056702521,0.000443223659980511
-0.00173901821056726,-0.0071260839994437,0.0024932851174861,0.00346559204981955
-0.00350012582953177,-0.00653555742126219,0.00390525654052237,0.00559924936807393
-0.00646724118413132,-0.00571414862351361,0.000958080434599648,0.00437887054685464
-0.00841841423791158,0.000313386571988785,-0.00566305101132766,0.000720301460926223
-0.0112337669069123,0.0110411544061291,-0.00868885829522696,-0.00286436753917216
-0.0147570761672207,0.0237826400091884,-0.00577716374383683,-0.00471462372279957
-0.0141240518661502,0.0336915566735761,-0.000403342585413671,-0.00474168204240078
-0.0103329917833576,0.0364259989455696,0.0025430758930238,-0.00346424502750799
-0.00806063648482869,0.0256621282201267,-0.000815858973160774,-0.00175433420794609
-0.00237512828139489,-0.00174692675765854,-0.00705261203376452,-0.000565160352071653
0.00684528902756129,-0.0243666993061411,-0.0080178171839286,0.000290108107032772
0.00542497516327499,-0.0149939332480967,-0.00324040593126748,0.0015860419025759
-0.0100352715643585,0.007790570188476,0.00395814346890952,0.00282209216037093
-0.0263724212630159,0.00979053916378304,0.0105762839881233,0.00274217931598134
-0.0344767237911094,0.000735685830921526,0.0131997817843026,0.00140234144791102
-0.0313408778479333,-0.000314386257199602,0.0117410380047689,-2.01858536686525e-05
-0.01376445612877,-0.00575517074367489,0.00826023905754456,-0.000734224243048394
0.0128486233690439,-0.0249571836667004,0.00317810237890742,-0.000688110662671083
0.0280890175753191,-0.0353330586503323,-0.00329226152198407,-0.000138395428005166
0.0186931419066553,-0.0229305562192588,-0.00864624129476421,0.000474907949071865
-0.000967603983266566,-0.0120412301000792,-0.0112142630109832,0.000672073156348167
-0.0162431956788852,-0.0187391314626534,-0.012823905707623,9.29323282512842e-05
-0.0343147519253244,-0.0253201729261612,-0.0134789504277389,-0.00096885424279517
-0.0591538212613366,-0.0169820966422532,-0.0109261879329106,-0.00178423980053859
-0.0765570120315713,-0.00393445308360345,-0.00970469302757972,-0.00209602970267787
-0.0761779623111698,0.000477058972569062,-0.0128396466168724,-0.00194055277533854
-0.0667396700172311,-0.000475011944695316,-0.0153519355677248,-0.0016186801056101
-0.0562878398416655,-0.00294181479124841,-0.0151007490983362,-0.00142142642526246
-0.0376454757188727,-0.011157365197643,-0.00953752738065873,-0.00113479847215067
-0.0132589989601427,-0.0156354078014439,-0.000282225988032479,-0.000326339438155799
0.00358197011501764,0.000845552891110345,0.00145023297572756,0.000632087889404429
0.0120231744165153,0.034181591902646,-0.000471541045604148,0.0001596791027146
0.0172309517772866,0.0640550294012969,0.00571389650088143,-0.00170342190687842
0.0286357638701486,0.0746457501102341,0.0175723790368124,-0.00208082590520974
0.053718094351457,0.0639702266911834,0.0363105435873776,0.000535666686450061
0.0800943999112799,0.0469880211837352,0.0613131869718831,0.00445468847959723
0.0857601937657665,0.0400060600020789,0.074283957716458,0.0076023583430651
0.0620272092475941,0.033971812809024,0.0618017307913428,0.00851982051314406
0.0173815355186743,0.00880515083564162,0.0314526317303908,0.00660871739718136
-0.0365762971327761,-0.0269466592104526,0.00122531803385365,0.00313534493968856
-0.0822816813289367,-0.041475013700608,-0.0210237310384993,-0.000131020751509611
-0.0934570397661602,-0.041908605779355,-0.033734017320583,-0.0026010028539909
-0.068625894413111,-0.065528936071553,-0.034094112820079,-0.0045754791982142
-0.0333114350035982,-0.0951150764210395,-0.0248231735378172,-0.00608572412073124
-0.00263372544592317,-0.0867391949668518,-0.00981812072675296,-0.00646029790658157
0.0162669528931107,-0.0466582091767413,0.00623278075491088,-0.0055962694690984
0.0159880756562032,-0.00528936751081654,0.021117837914064,-0.00443492246727308
0.00451228561131715,0.024757201823944,0.0298437592532977,-0.00368374694889926
-0.000383474605137529,0.0379311800165186,0.0253020704885211,-0.00309763971384739
0.00525465264487693,0.0360218856893336,0.0150158023090032,-0.0023987678884967
0.0136990526659828,0.0302916525884875,0.00897332069055955,-0.00190366633701841
0.0206991226876153,0.0269743209545294,0.00620742747231333,-0.00122800153112282
0.0255295959076732,0.0252767065126557,0.00409308953971694,0.000704070084983932
0.0273288728473384,0.022794805274216,0.00553493449987735,0.00361889538789558
0.0264072425518524,0.0196252231601208,0.0129234533812469,0.00585522929043182
0.0270318932661132,0.0198425244671315,0.0197505067525247,0.00648574895512481
0.0295720341113203,0.0255855256720954,0.0165891906305122,0.00548676632439823
0.028498127013088,0.0268897094192697,0.00763352039442162,0.00326004842336797
0.0235323102698708,0.0122275734681243,0.00339234858015551,0.000997784984786892
0.0164404557960485,-0.00836802578038676,0.00522446231873523,-0.000464238178504945
0.00901722362062227,-0.0151799809370814,0.0128812877316486,-0.00115805287188812
0.00527334836517064,-0.00765416221537269,0.0230811390624718,-0.00141967587134792
0.00520040480130629,0.0034021047074118,0.0284260432326071,-0.00173893149157274
0.00694958484476967,0.0124170885599556,0.0261798827787573,-0.00214810933119724
0.00667915846198265,0.0170170148934605,0.0233418171754707,-0.00247780469188598
0.0037998648442655,0.0156385721464261,0.0277230529550819,-0.00273664289200925
0.00330338387373422,0.00439069520202175,0.0322019535109828,-0.00255887779543467
0.00849595103791229,-0.0194740449332426,0.0263270053051168,-0.00202638000905784
0.0161945143483683,-0.0395581235285317,0.0178344341379262,-0.00201098687852263
0.0166880010176074,-0.0360298959652111,0.0205103814923576,-0.00260005256324473
0.00677005707300667,-0.0196609560052951,0.0298149132248761,-0.00282693072113775
-0.00713810144174106,-0.00693675836299849,0.0288862203160869,-0.0019143018721658
-0.0195480643810679,0.00768114297164987,0.0136337443506227,-4.92119356064026e-05
-0.0284651682879592,0.0256361487000083,-0.000546818062856849,0.00188062410804907
-0.0296747832101516,0.0351245234723207,-0.000749078430180416,0.00320084354794003
-0.0215570150942427,0.0328957854652386,0.00469256078502957,0.00364554596256283
-0.00920529737266929,0.0254137144803348,0.00279281991796364,0.00315239854872286
0.000761058098501976,0.0211446420137046,-0.00114175864806101,0.00186885995100742
0.00257015203940355,0.022619046640672,0.00343101274230853,0.000547222584617427
-0.00305661739412166,0.0225479850003913,0.0116251952567828,0.00026991286137032
-0.0191300136705128,0.0195516300146983,0.0131524313350078,0.000433492175822909
-0.0428758984961784,0.0267106635838949,0.0113053190021787,-0.000449190418301223
-0.0524527922374728,0.0450236487418824,0.0115547835606864,-0.00180467739307217
-0.045527725340548,0.0486214079526558,0.0133193911574986,-0.00225035440724698
-0.0447914824328203,0.0271666206748074,0.01663392571756,-0.00176791622563462
-0.0616210123567389,0.00607391392193764,0.0214334462574185,-0.000910587224409939
-0.0816753602026983,-0.00246450364684239,0.0236521472909851,0.000218205521404952
-0.0775746175634403,-0.00837462861033524,0.0209160042118027,0.00179584932062794
-0.0427353549731547,-0.0119022477971341,0.016211788811353,0.00325727743412441
-0.00300676153294518,-0.00772019803919386,0.0133361923938336,0.00343588818060815
0.0168522502649146,0.00761841757988447,0.0133659718926656,0.00230694949965711
0.0272089174680935,0.022921470147515,0.0115527075192051,0.000956901653428194
0.0569149302391068,0.0198751540218433,0.00887681796676109,4.70391276051522e-05
0.0967033173696343,0.00255807444530771,0.0103985309192974,-0.000228511084875059
0.102525917885218,-0.010527158706652,0.014975161342479,0.000329962038004987
0.0656963593099208,-0.013592811315057,0.0179724257389728,0.00161962827202315
0.020851457564998,-0.0142756416636176,0.0130921575217321,0.00281020696363818
-0.00822975222355754,-0.0137070454037768,0.00334699390020517,0.0029300594697877
-0.0234057011163343,-0.00913542591505018,-0.00087474282673127,0.00195620667664847
-0.0329967770097915,-0.00554413597325006,0.000930780525723527,0.000575576420839161
-0.0341497887033844,-0.0080239792711822,0.00485728582022272,-0.000775117023701094
-0.0227057268471569,-0.0168323769761737,0.00821809334569654,-0.00210299093408128
-0.0126988857591741,-0.0241278188355814,0.00419254648554585,-0.00306849840352952
-0.00790348094160506,-0.0215041751382133,-0.00537062916789181,-0.00308473811887706
0.00791801012248077,-0.0139076591771035,-0.00551603413630514,-0.00230029996816578
0.0304649235173525,-0.00298433373652924,0.00385700387232787,-0.00146756881470277
0.0419292467424127,0.00714462138095489,0.0141259050500136,-0.00118575945281183
0.0421953768268727,0.00463552353343057,0.0213848380415138,-0.000860046348544114
0.0415140072512919,-0.0011718554050654,0.020790776360541,0.000496121733888315
0.0446882177427848,-0.00494312672844002,0.0134342795443977,0.00196350400229185
0.0440205066506053,-0.0160958552014957,0.00240409030404901,0.00212196506923578
0.0329013871925755,-0.0224818268158523,-0.0085595022913812,0.00132161440449425
0.013714743139413,-0.0172691153583469,-0.0100981775237274,0.000790991576932762
-0.00687744929463139,-0.0144544599835661,-0.00300444083159638,0.00145668348773242
-0.0143194703784906,-0.0117984894478581,6.1959408978244e-05,0.00286460300816914
-0.000128009069788732,-0.00159383084611669,-0.000964412318378452,0.00317791336752331
0.0223283484993981,0.00356139419188187,0.00323200421560524,0.00165186987843711
0.037048370650521,-0.00783439704998656,0.0110079720779184,-0.000524377064211132
0.0432042160451837,-0.0277576010087435,0.0149703888819637,-0.00192191613377765
0.0427560918514056,-0.0396166716761244,0.0150163005846057,-0.00199365103272939
0.0364217508393934,-0.0293017635547113,0.00572115771727062,-0.00118525840682899
0.0303054883979335,0.00105055891053031,-0.0132249903641824,-0.000828205581885509
0.031575344216765,0.0236745825379837,-0.0208499491822388,-0.00196131596376922
0.043564378757329,0.0251263328259343,-0.00862645085743577,-0.0037284412487181
0.0585600206509589,0.0174888928932233,0.00334122089890355,-0.00419978831403181
0.0621933053360364,0.00314255819934528,0.00235719856390176,-0.00272164361269764
0.0571416390856262,-0.0160066859699305,-0.00164802877752158,-0.00035482986898203
0.0549337425279952,-0.0298901608590496,0.00262148360254265,0.00168891102267418
0.0499945394606203,-0.0323092471624112,0.0122166218670035,0.0029265883386101
0.0351840263423388,-0.0243043325703431,0.0181805738285117,0.00318388713630338
0.0155063834252487,-0.00888003210635428,0.0153488992313015,0.00256018967246641
-0.0036530915248695,0.00529738318553017,0.00645494708220509,0.00143136753696459
-0.0165518108428892,0.00803320882646076,0.000522202453949197,6.93803305420941e-05
-0.0177050422056188,0.00324288658227509,-0.00123053632041074,-0.00102413880387908
-0.0125010471807952,0.000151381524039337,-0.00118583233178497,-0.00126455393707709
-0.0188001606882115,0.000565626906860054,0.000384477947900635,-0.000544515045114507
-0.0379228303118915,0.00292205974276584,0.00284078653961695,0.00037364224441252
-0.051480350380427,0.00783417355258681,0.0042857687484734,0.000426821405864089
-0.0552000779535861,0.0170129994841494,0.000914566711153604,-5.82123954466803e-05
-0.0539225951846196,0.0287163231468107,-0.000372487668856538,0.000167567578432051
-0.0445796668424103,0.0363273690000458,0.00909966005305735,0.00119972805397499
-0.0241618285496112,0.0353349379109366,0.0199951246677773,0.00188438189232294
-0.000287478939226024,0.0303742241471455,0.0197738331752386,0.00134085871899994
0.0179719414437409,0.027548100935425,0.0082258229174668,-0.000541698708661365
0.0331637333931995,0.0266610914476608,-0.00439926971022934,-0.00329596348407146
0.0455213798728988,0.0246210398071854,-0.00976756358838124,-0.00557767297546264
0.0504784618515854,0.0152415468711615,-0.0088212911425615,-0.00571395298113975
0.054296126941248,-0.00278302832182641,-0.00595278303552901,-0.00346598527549371
0.0628164904845538,-0.0155196196787237,-0.00299589639218069,-0.000455636728420791
0.0635530523850146,-0.012549243010916,-0.0015970307019445,0.00126383156334037
0.0437866129366429,-0.00396608300815867,-0.000890294936659885,0.000793394103491244
0.0139184756975196,-0.00121195727042564,0.0020118901869961,-0.00051900940042596
-0.0110487879702237,-0.00216024141082651,0.00349003275193767,-0.000453210826482937
-0.0289566850610398,-0.00155304620507752,0.000987166431890583,0.00149971835773227
-0.0418480371918395,0.00111423071115421,0.00292880447867892,0.00410085981175184
-0.0475615454087157,0.000830323939767539,0.0106164062610507,0.00573171786637157
-0.0425884429661953,-0.0109154689256388,0.0133322153105447,0.00566391236976526
-0.0280959424902484,-0.0319281926912024,0.0119115256860976,0.00430043954613267
-0.00882217192562308,-0.0549006121825348,0.0177077583947585,0.00261274910859727
0.0110158515363344,-0.0529246499650904,0.0169675686420119,0.00180992584447443
0.0175330144254504,0.000928959054375664,-0.0103207122352181,0.000244323050092242
0.00377256340308829,0.0502700855919114,-0.0311189984030713,-0.00533749403856038
-0.00849171892059994,0.0418861885729377,-0.0227583836490454,-0.0116277696958256
-0.00343798521418044,0.0159174859589635,-0.012482822763358,-0.0119533104416518
0.0122942620172334,0.00315875439393854,-0.0112293702372366,-0.00606524670239327
0.027335992852777,-0.00784174711295718,-0.0155975680970279,0.000885633647985069
0.0334351718040673,-0.0141778020667341,-0.0245905941660454,0.00412651618967575
0.0298576784889731,-0.0112852556314139,-0.0288650745497992,0.00258268088771607
0.0264145604178913,-0.0171272111637497,-0.0259818269904265,-0.0010157275199724
0.0309224395043917,-0.0347761376976919,-0.0224340153643724,-0.00307826432968761
0.0377131616209991,-0.0459404774957104,-0.0209165684171726,-0.00238398475742567
0.0351674528083549,-0.0502328157112304,-0.0203961879429824,-0.000361150170074895
0.0126742290973113,-0.0459559621774982,-0.0179182529899978,0.00152616582066324
-0.0182437979960194,-0.0272049873915973,-0.0137776433587518,0.00289012446190737
-0.0249827601322871,-0.0105210754415258,-0.00970916206866913,0.00346142124389608
-0.00564857016130959,0.00022797699680565,-0.00576209398680031,0.0031257780351101
0.00838676785799011,0.0162284046512916,-0.00497591149541436,0.00219360344480712
0.00414939822752129,0.0322257195770369,-0.00403545009886929,0.00131642300632336
-0.00192520716675132,0.0392191875462799,0.00281664226466801,0.00113034974847454
0.00319310022948362,0.0376828381240491,0.0105375761607734,0.00119338208500714
0.0139731444181081,0.0327892293355296,0.0108170606643245,0.000543854254317784
0.0221497993117351,0.0211877273358443,0.00105774469402003,-0.000636008501619917
0.0234203586271804,-0.00132587886085536,-0.0141268458019937,-0.00135746690908302
0.0142795873906362,-0.0113303422345721,-0.0267340555259942,-0.00121507677488304
-0.0071479528555724,0.00612094839690431,-0.0307292109896273,-0.000756800157049327
-0.0369630885998213,0.0229725034942698,-0.0298882498549442,-0.000698720838474376
-0.061411897942981,0.0187136319901299,-0.0323845278002832,-0.0012411355517673
-0.0689893066543325,-0.00212103490211844,-0.0355200111801744,-0.00217918856139025
-0.0583171748628351,-0.0258374888681325,-0.0348081461533556,-0.00267379500456425
-0.0385678780876153,-0.0315859854043112,-0.0334866107496988,-0.00192766361359908
-0.0254153772670015,-0.0173779940005207,-0.0309630394326626,-0.000458644575219751
-0.0222410212812703,-0.0124355715776792,-0.0223510533790042,0.000792901588758724
-0.0218073030949095,-0.0290878999431633,-0.00913398653760519,0.00198710089517598
-0.0211561279917271,-0.0308345361914202,0.00262034814287432,0.00376032758905528
-0.0165551076584555,-0.00300231206863039,0.00933761587549936,0.00550378968478127
-0.00843078085002826,0.0182688767106361,0.00686570987852105,0.00581051931083059
-0.0081436543788527,0.0197612135610496,-0.00470179960170371,0.00428345300450582
-0.0182092426937452,0.0188362905802816,-0.016543762792448,0.00181586644862121
-0.0280648854733274,0.011150456533978,-0.0205349424475427,-0.000325679729658052
-0.0300883423079602,-0.0210235673147475,-0.0143038697041329,-0.00146538327699167
-0.0239621832856839,-0.0612884962346773,-0.00029702792262961,-0.00171185894408678
-0.00701514663156888,-0.066546423200252,0.0229041647913789,-0.00134407772527903
0.0237841584015593,-0.0334300723485859,0.0426835114977267,-0.000893815746921823
0.0494479342384787,-0.000309826922064979,0.029543070975915,-0.0010195929435369
0.0422795753022242,0.0157928483824375,-0.00736934351779882,-0.00115303751208004
0.00632477662898474,0.0196801908631688,-0.0284599275434609,-0.000372471530155531
-0.0261683065195227,0.016607051400655,-0.026241129468781,0.0008339263533943
-0.0334393767702923,0.012460266397943,-0.0175995769119126,0.00157409048591382
-0.0243943053677144,0.00862312504246971,-0.0105794569514944,0.00148745551001112
-0.0169240315681551,0.00224005734182527,-0.0061278229356099,0.000934572572259042
-0.0140673886223333,-0.00534505250182229,-0.00326861823226491,0.000808820594519162
-0.0128089772085683,-0.0045408957437484,-0.000927377037638233,0.00125055137938757
-0.0127655663899132,0.00478513574346783,0.000356323437569856,0.00153716997610553
-0.0117995497359248,0.00882059535811445,9.81123969781846e-05,0.00117048645287513
-0.00958780470790629,0.00240408728726396,0.000114665234405783,0.000372214796567788
-0.00783514967084784,-0.00620281759217691,0.000618481261574636,-0.000280474090611649
-0.00592781883540719,-0.00965329427163374,-0.00162691896315643,-0.000826847785154755
-0.00565192371784597,-0.00827409721796379,-0.00499851467839723,-0.0016973280446176
-0.00762765297633435,-0.00565476665432751,-0.0070675656782177,-0.00259031684047912
-0.00903643258069936,-0.00420639500827409,-0.00926304098162534,-0.00318884036661109
-0.011786971198451,-0.00588637813332495,-0.0111663982524384,-0.00350898110588182
-0.0164982395939925,-0.0120398180118092,-0.0120882379733538,-0.00325013713278464
-0.0162438760592336,-0.0289100127997357,-0.0105049041476375,-0.00211488520156045
-0.00591469464601871,-0.0489286879212511,-0.00372879502306257,0.000173462164784938
0.00567033742798376,-0.0442328766950907,0.00778536239914777,0.00318538853865629
0.0112149564866283,-0.0182056555324116,0.0199940266046941,0.00549932654594615
0.0165197809113724,0.00126628475932529,0.0259275838876469,0.00629935748348558
0.020072335360047,0.00354265934230178,0.0213521004094312,0.00542621047970237
0.0230448537077409,-0.0149096637320114,0.0112634086861982,0.00310069008576649
0.0285303915060601,-0.0399022005369916,0.00383300039130991,0.000320283708188397
0.0293001490933565,-0.048401827326717,0.00046055443037298,-0.00214930790649139
0.0236686956350394,-0.046498507709985,-0.00143887589713104,-0.00390141132097641
0.0118588890162969,-0.0374004060398256,-0.00377649491045331,-0.00467948565488196
