0.00299625500929818,-0.0176206920048656,0.00160415010885487,-0.0108772353502933
-0.000517705302235733,-0.0161338932441394,-0.000217611832527564,-0.00759720814338782
-0.00584549843890337,-0.0131458877348172,1.39564072295911e-05,-0.00558385324443083
-0.00998858140194741,-0.00876755689068405,0.000753260097349114,-0.00597058925261376
-0.0123789919135112,-0.00431287662352391,0.000911253391089913,-0.00695699864837231
-0.0129261028127231,-0.00126563616868816,0.00169509472416692,-0.00587331824857567
-0.0128928640644216,-0.000227131983738033,0.00300883029337844,-0.00194715018431459
-0.0121440450367334,0.000269538292714243,0.00309768945608346,0.00313638391825875
-0.0116673864341152,0.00241648956788961,0.00142823848218444,0.00683780498604094
-0.0135706703117277,0.00607274424590088,0.00137203821887614,0.0076201718675839
-0.0144342805907023,0.00760165627489175,0.00410858940281193,0.00572659701276149
-0.0111981200066551,0.00513897022769563,0.00783912854290326,0.00250248026590678
-0.00745664250054375,0.00315422488329381,0.0111086313669026,-0.000533210564672581
-0.00575509066822045,0.00534067133244749,0.0131998410546997,-0.002233740890735
-0.00297440824585664,0.00882180181131169,0.0134470608870183,-0.00229486812552842
0.00292708485376762,0.00948167870144006,0.0135261802518188,-0.00127124131243465
0.00776405414199622,0.00778422968017282,0.0153548883552013,-1.01376746677816e-05
0.00783203767986736,0.00662920095074761,0.0134399404857758,0.000920899655801586
0.0058285449582446,0.0080922427465736,0.00418672189759535,0.00111823737758078
0.00413833224633987,0.0109255313930545,-0.0067209605538621,0.000143738477149092
0.0015498449899422,0.0044692819012883,-0.0158713555556313,-0.00196742120957908
-0.00124904882829029,-0.0135106140094521,-0.0225931543527769,-0.00451345452244897
0.00178085245447408,-0.0230751656121799,-0.0226064096899673,-0.00657293692084079
0.0095627254943359,-0.0146796100288278,-0.0156835528479965,-0.00725502956633425
0.011823254574944,-0.00374495544516918,-0.00810302818677004,-0.00604690417973648
0.010327013755166,-0.000375605105261917,-0.00418559474956047,-0.00328502076228264
0.0120310898754953,0.00431399503502921,-0.00172100344777696,-0.00011167128651384
0.0136000241433193,0.0177826870973019,0.00264955987606619,0.00241290344136673
0.0129576303153346,0.0311752564733165,0.00526423381716043,0.00381008632887726
0.00962026402927345,0.028937689006522,0.00184815520667557,0.00387570964131694
0.000278926384998242,0.00999325039096644,-0.00413383286924777,0.00262564362750248
-0.00935845274361428,-0.00988336368140507,-0.00719922078740421,0.000454467924628936
-0.0106116177805226,-0.0151750291877464,-0.005958845235924,-0.00176762249582525
-0.00559652705374433,-0.00553375502150525,-0.00307452575022007,-0.00330417798391421
-0.000300101134185231,0.00698894630460558,-0.000883708367778629,-0.00413448516616787
0.00311667534766036,0.0164620992843629,0.000140340391536559,-0.00441590635922413
0.0053922278724165,0.0257428133070047,-0.000455078282803462,-0.00410272524145468
0.00560666909258163,0.0308110221884192,-0.00157847746095246,-0.00329506757658652
0.00322461282164854,0.02275154163071,-0.00124873028498123,-0.00243636896318137
0.000609667773008778,0.00681347553748723,-0.00168274030660221,-0.00203597838923429
-0.000719640567593847,-0.00511440471139297,-0.00476136699158929,-0.00229084511344692
0.000257552924371096,-0.0117248951882516,-0.00787727758530285,-0.0030113847579268
0.00232970163950353,-0.0153193728542246,-0.0101795828904261,-0.00350425039689777
0.00386809436698057,-0.0162212831600929,-0.00989400819300401,-0.00292521467092769
0.00591920114102243,-0.0149677135452041,-0.00574483122493534,-0.00140147218193487
0.00725303638332649,-0.00967144880128295,-0.00219444034398664,0.000177629310184889
0.00725574898423423,-0.000269913492907552,-0.00104870386400549,0.00146235544350007
0.00709225547352292,0.00806679372082489,0.000745251894994235,0.00279305372689302
0.00692695439738404,0.0127102734469749,0.00335918491063796,0.00406461402914355
0.00791904667699085,0.0166666443751622,0.00492663546040757,0.00459479900288175
0.00756416873990676,0.0215345055202898,0.00544991171564663,0.00405028961606151
0.00285783782747476,0.0245049264467771,0.00552613893650732,0.00275003075087107
-0.000326109507375412,0.0220221241378842,0.00645404909318545,0.00141102686827663
0.00273043184887019,0.0166867253627714,0.00798605131167691,0.000114774655886904
0.00803439900327264,0.0150625965383898,0.00838608771658213,-0.00115486827023335
0.0126096312733269,0.016495421156947,0.00865156299063138,-0.00159253723085658
0.0150157946021665,0.0198353099437942,0.00963520804229252,-0.000847429630371215
0.0168754821622234,0.0254955231232089,0.0112221672915111,0.000406944626328155
0.022164645937055,0.0275308466573757,0.0115959496515627,0.00116964029464355
0.0264297086766596,0.0227207477731494,0.00881537705797896,0.000936421816440094
0.0223206396054711,0.0170037004513166,0.00615237137395391,1.97940931018258e-05
0.00956090609909581,0.0143664779267278,0.00599879328155757,-0.000884145157519193
-0.00211394885004136,0.0117903420189573,0.00671779150611536,-0.00124078944652735
-0.00586319571542084,0.00664708457412239,0.00658887997722308,-0.000928374909156546
-0.00683567865937439,-6.33039655028103e-05,0.00480194098686168,-8.6114537186825e-05
-0.00799614740392661,-0.00481238158707689,0.00336862620942694,0.00147099184844121
-0.00817102509352079,-0.00909145255442711,0.00410650628681735,0.00394097627012121
-0.00842157328324849,-0.0190665265726181,0.00413475875319121,0.00654101991555789
-0.00935872576091282,-0.0302135016226902,0.0016019416240892,0.00771748857397075
-0.00736818708020925,-0.0258132785098611,-0.00124496167823153,0.00651148926246367
-0.00152611447977642,-0.00303948129854664,-0.00287211702331167,0.00335181072972458
0.0038975370184439,0.0191370850139887,-0.00314662199496547,-0.000967906572811691
0.00695315398951671,0.0288164398352495,-0.00165699635849269,-0.00542895912954016
0.00609127803689375,0.0305586583892949,5.57096354771892e-06,-0.00787589648168699
0.00132996805141474,0.0281494950252796,0.000631998032854417,-0.00658813169603134
-0.00181676011162578,0.0195257194718777,0.00045734586738312,-0.00266300703849412
-0.00118152314780632,0.0102066065940487,-0.000906812526107565,0.00119054009129183
-0.000163386487764844,0.00978942552239476,-0.00128604975541887,0.00356577424379578
0.000463161636755378,0.0141999418610374,0.000498850213482345,0.00476012078287743
0.00185720895587865,0.012533158283163,0.00205321632453777,0.00546447968057209
0.00316771153676138,0.00277383767394229,0.00198509403929413,0.00552236436422899
0.00281259295332617,-0.0084947951289686,0.00144182055734629,0.00416078204553592
0.00167998218470815,-0.0147120482874183,0.000625509474240196,0.00168411135350864
1.06252584036349e-05,-0.0168525878955725,-0.000936660278126057,-0.000806683658405351
-0.00327525197425316,-0.0187291480759577,-0.00343023846004554,-0.00272612965931751
-0.00514498227971248,-0.018416028743756,-0.00559434441815977,-0.00374040346862551
-0.00343376125781674,-0.0149462725469485,-0.00478305848485525,-0.0033592931112701
-0.00259799278701509,-0.0110928473101668,-0.00240413347061451,-0.00164624155208712
-0.00433283159585981,-0.00839135712655682,-0.00114177069783848,7.70820772936082e-05
-0.00463742126306748,-0.00576789629050451,-0.000893137908953631,0.000627550426191429
-0.00315282004014528,-0.0022760626693763,0.000328471671983453,-0.000348919006023456
-0.00322451052610667,-0.000873054004202818,0.0018114646368198,-0.00263783467944267
-0.00517262122481689,-0.0034430914337191,0.000258463570091455,-0.00452945252843502
-0.00741704556979104,-0.00590134449800544,-0.00159204847698188,-0.00460820676888858
-0.00883004262095579,-0.00411804423406964,-0.000257869176872581,-0.00442262722469627
-0.00708220027607259,-0.00185486663330999,0.00129675176463777,-0.0059233101131675
-0.00324601772241888,-0.00368888033208502,0.00210937851274328,-0.00764740939674495
-0.00133208628776829,-0.0086758781205355,0.00336717306877519,-0.00695222697235773
-0.00154438573792968,-0.0145564324083196,0.0044079665807493,-0.00380685856310215
-0.00121914184480629,-0.019787904141536,0.00433864198767211,-0.000233424978198764
0.00108117860060155,-0.0236081924288595,0.00343631548620464,0.00098602339941282
0.00262504997459619,-0.0233848367358612,0.00346505756195157,-0.000711258765443304
0.00118815927181842,-0.018661505245649,0.00473353876463213,-0.000348813813915503
2.0112830631947e-05,-0.0113833912985727,0.00633065747659857,0.00715701444471934
-0.000308788671566604,-0.0039399795838225,0.00753135567285625,0.0189669816018454
-0.00175965528342249,-0.000861401041032241,0.00645821819089066,0.0265015204695206
-0.00199667716264533,0.00119577264616642,0.00424746027874109,0.0233584427186892
-0.000786665894551914,0.00941001850617543,0.00526202369681563,0.0100499919952382
-0.000830369209067689,0.0211818309479456,0.00873795697882152,-0.00614943380126306
-6.52592083122813e-05,0.0244258523184377,0.0109903454461388,-0.0173352982954578
0.00102708404464685,0.015399453560997,0.0104444363085944,-0.0211785712232394
-0.00278729750595968,0.0027037325312227,0.00853197794622764,-0.0194730893789245
-0.00991408428989835,-0.0111929187703041,0.0083261764875146,-0.0141739174311413
-0.0131102546973107,-0.0215315905898693,0.00888481607374567,-0.00710811558747076
-0.0101538036358214,-0.0214623477288556,0.00786694555965714,-0.000618080885226918
-0.00480658302635471,-0.0170224544785411,0.00719991757935771,0.00364188810558113
0.00168270097787875,-0.013284825063056,0.00760983512094942,0.00593444623961693
0.00761667985496262,-0.00828997329899455,0.00764118968106342,0.00710794005461957
0.00956367385518061,-0.0036664422957642,0.00795252235431069,0.00736089133281417
0.00906864170183237,-0.00148947473651333,0.00748060716584655,0.00692721330148262
0.0089387694918252,0.000206759942468585,0.00633031394370639,0.00626058414754634
0.00618139815820194,0.00304109411345289,0.00609639574945808,0.00573096016699743
-0.000808704724206635,0.0079924030701387,0.00482278253430071,0.00527528121902889
-0.00409811958788464,0.0163907549593266,0.00340499997822788,0.00459588566971127
-0.000681579703279523,0.0281214130218219,0.00405411445282732,0.00367118716445082
0.00115545873060126,0.0408205808688328,0.00391542913774486,0.00260554084910896
-0.00275558333496628,0.0491641561575787,0.00133994926030837,0.00152634779404435
-0.00822072965259168,0.051938005522482,-0.00120682997220839,0.000679118372058563
-0.0127951684012423,0.0498960490915276,-0.00253378048463122,0.00025744021364077
-0.0172523310715412,0.0317424249940475,-0.00477118936741326,6.69112973457672e-05
-0.0211805104474537,-0.00602230161645012,-0.00815883969398403,-0.00021972299347201
-0.0253368623709501,-0.0432514986952647,-0.00949591211594432,-0.000570285652738115
-0.0301482387063918,-0.0570525824791775,-0.00711970972494529,-0.000848832978461076
-0.0314585069678949,-0.0398937320708708,-0.002443353020942,-0.000749457268627008
-0.025199392576672,-0.00829322772068515,0.00132015934752431,-3.6464807164525e-05
-0.0145007771925801,0.0131399028963991,0.00223410760714161,0.000798104043711518
-0.00600213088619521,0.0153123037963995,0.00011917777746105,0.00118514876726272
-0.000975150585724577,0.00447637246752171,-0.0033994802862032,0.000935460905856134
0.00230211137593015,-0.00506789389687611,-0.00556634922163726,0.000167605032885869
0.0053912956246742,-0.00154267809259083,-0.00561949855502563,-0.00082095561822623
0.0070151223554627,0.0123151588296033,-0.00472642317733944,-0.00191199958552068
0.00414126822886947,0.0233411292871163,-0.00441890861298508,-0.00287922416382043
0.000354730222518807,0.0256088316833215,-0.00476086499278774,-0.00343266185560556
0.000217087325125268,0.0219108583328671,-0.00562387044604088,-0.00351940317150397
0.00106698541533595,0.0154679871599457,-0.00677899580399948,-0.002950835620722
-0.00131392966792906,0.00937343138365077,-0.00716529001616275,-0.00186541690162797
-0.00712506403867182,0.00334083351666088,-0.00698727453300611,-0.000647358921532535
-0.0158693094894761,-0.00262999796417734,-0.00656816340882944,0.000929865587195637
-0.0253426847135157,-0.00397123451697417,-0.00550078785362918,0.00269751026406597
-0.0291785090599555,0.00199834378825737,-0.00391202170880341,0.00369030845739292
-0.0217546664869864,0.011471081794351,-0.00226924733767437,0.00350009666995826
-0.00492586406155185,0.0182729199436195,-0.00129013436493242,0.00267206596601609
0.00986955521938068,0.0213484875240789,-0.0013447979434999,0.00192356180841339
0.0138386702596478,0.0212633588081392,-0.00252065662222652,0.00112601681303946
0.00943097169043675,0.0177258653927361,-0.00353858634288188,-0.000368294031362295
0.00319086090190786,0.0120551863472927,-0.00304826759841177,-0.00248792964895801
-0.00199549661381731,0.00416279875963449,-0.00393537925140987,-0.00484127475530939
-0.00516516163809351,0.00130862067958608,-0.00505682969357876,-0.00713372546057329
-0.00263958177378337,0.0107054275389243,-0.00199118205319471,-0.00812163174076939
0.00272636210078952,0.0209351410619827,0.00300360297111868,-0.00619923886714453
0.00583356930138669,0.0203049899147477,0.00629882832434322,-0.00200983521446763
0.010252781086242,0.0137947953886808,0.0055668725627163,0.00168061089664018
0.0123058501634417,0.00700677733164847,-8.78392294995957e-05,0.00315991573817813
0.00660697645560594,-0.0068633661518519,-0.00710477797244166,0.00295363531306096
0.00177925661014964,-0.0286889157880176,-0.0120512828160063,0.00181912094580852
0.00171413258956968,-0.0448991277367866,-0.0165176790720232,-0.000516068762826781
0.000826627645777926,-0.0481832705179317,-0.0202156986157366,-0.00384315764692044
-0.00425611271674723,-0.0421009614350079,-0.0192124559032307,-0.00628150225579222
-0.0119763635305451,-0.0362715846577848,-0.014128284589535,-0.00593762741149454
-0.0134852265101335,-0.0331268388587078,-0.00775827397444639,-0.00301112735652667
-0.00406125688236039,-0.0217198699979414,-0.00134180135645164,0.000713385787754876
0.00818216457739312,-0.00351124947567329,0.00327500075070404,0.00389310367097128
0.0152216449245082,0.00950299947570122,0.00538160992041957,0.00627133158014905
0.0189440919153663,0.014460836234617,0.00521305042557597,0.00729537242846002
0.0233926384414241,0.0146003364456114,0.00366849825440248,0.00636873691352855
0.0262361966737869,0.0154014211748786,0.00358580527229234,0.00445385742357902
0.0253764721817904,0.0150234189204972,0.00549845768584914,0.00311630453191428
0.0214535332172384,0.00697448854066628,0.0062198983171479,0.00250524597543383
0.0135593729423242,-0.00107395485981899,0.00464457321831964,0.000967547821736217
0.00207725287284979,-0.00285668819995992,0.00302298637024858,-0.00293005961027663
-0.00843087804468741,-0.0119702299775894,-0.00014653454613973,-0.00746268635321294
-0.0106211584533798,-0.0344243051158313,-0.00600893479721208,-0.00840740407829488
-0.00274430240497283,-0.0461255806075429,-0.00839093698558757,-0.00480859371308821
0.0111058933320914,-0.0320466341023894,-0.0043919283707934,-0.000867603197423576
0.0235970612845499,-0.0166790399793107,-0.000948080620722903,0.000106105804212326
0.0268956916113559,-0.0159087187509144,-0.00379165589923437,-0.000828698295375638
0.0225662169246767,-0.013158841442206,-0.00888024297886858,-0.00125464665253751
0.0167533045872068,0.000135726113547429,-0.0109678808540526,-0.000298375607507175
0.0104964441441544,0.0147004884017248,-0.00974868229222838,0.00144055675130213
0.0058689099235582,0.0101977009891678,-0.00907670988366297,0.00284087807026941
0.00650835492256061,-0.0224063763763703,-0.0132815059784998,0.0027090699796744
0.00907097307599007,-0.0488063319865522,-0.0170763168398037,0.000736996306752153
0.00649216404573921,-0.0421428195659214,-0.0134916779972435,-0.00139821785472448
-0.00143767766383437,-0.021073862789551,-0.00563230252934372,-0.00143287178765681
-0.00408039070613492,-0.0065009518043078,0.00199457651229226,0.000954896836679279
0.0034955817285983,-0.00126175520841287,0.00594603746063679,0.00383285290029587
0.0113996364793005,-0.00274800946851697,0.00173816175447348,0.00520582315022913
0.0126362382653917,-0.0100260492320268,-0.00694111838483784,0.00469781145553836
0.0118297671174381,-0.0181627876360102,-0.00984840933375212,0.00272524496388828
0.0113310222858744,-0.0176014360068248,-0.00505883377245979,0.000155343358991756
0.00770773313076821,-0.0111152647582087,-0.000987189802373637,-0.00192544691408405
0.00220961775256632,-0.00951480160383235,-0.00146981751921053,-0.00320048735431286
-0.000660037778991446,-0.0127590038082071,-0.00371388042036483,-0.00372404492967295
0.000578283037899742,-0.0169689310518185,-0.00600997388567122,-0.00402275010089159
0.00409232515340068,-0.019724579777486,-0.00730557552346216,-0.00514305659346141
0.00611764602891909,-0.0174605796189804,-0.00760602672470327,-0.00640346679880958
0.00355611860990798,-0.0119059617682579,-0.00759578125369802,-0.00549536021156656
-0.00291240457534287,-0.00648519324124261,-0.0081073363192969,-0.00215711547872755
-0.00895354989298332,-0.00199739804909854,-0.00824321865633997,0.00139938584066993
-0.00980006315874249,-5.01908568805547e-05,-0.00696328381261822,0.00345804482430359
-0.00459763443131582,-0.000911928808997119,-0.00539308414814315,0.00391890925810922
0.00363455080261576,-0.00281433945393649,-0.00517300986249348,0.00367260421945826
0.00816828699332601,-0.00518661344717032,-0.00732232692322442,0.00348736280289889
0.00602501733513713,-0.00763959499577735,-0.00912198780952135,0.00318409807318267
0.0028489792141819,-0.00731270972490864,-0.00869091991536316,0.00219940094682036
0.000533918002199378,-0.000410172318590571,-0.00663292526617441,0.000448622332015579
-0.00311261526988052,0.00809827207171316,-0.0027296154796248,-0.00157923524860666
-0.00632736135140818,0.00728479131689504,0.000628840467163636,-0.00330249535362874
-0.00683744672665308,-0.00275397128817879,0.00133689868214046,-0.00450418024713687
-0.00583323467257428,-0.0108374232087851,0.00112744389371258,-0.00536974944550049
-0.00453369284704376,-0.011363167439576,0.00262309852591151,-0.0059334180149741
-0.000638632920301366,-0.00872411922407687,0.00454758334862586,-0.00567458799152641
0.00560121484613645,-0.00670669276303495,0.00522667565491501,-0.00418320088852495
0.00981147015295357,-0.00454487526815558,0.00558284322700527,-0.00162194074014988
0.00955322426481057,-0.00198950272922904,0.0059995918768095,0.00147140478890221
0.00696799569392557,0.0012324247489073,0.00672477710838413,0.00416938868910452
0.00683972807593978,0.00730227810397888,0.00622365812818236,0.0055333669586084
0.00702763800851652,0.0149158695856787,0.00494419368589169,0.00528513656015644
0.00341901057272032,0.022001372819512,0.00609201290070601,0.00405064164632823
0.00018444583225467,0.0281994854116926,0.00932795601453231,0.00251581187908325
-0.000451560081572232,0.0317544093073187,0.0106761744188307,0.000858489335535107
-0.00263003736449255,0.031879493866995,0.00889044240930143,-0.000560210464343203
-0.00854210826882388,0.0271873851824691,0.00790620602770613,-0.00146042471910117
-0.0147408446054634,0.0136062040433888,0.00719851987404722,-0.00173468702196271
-0.0164594169405977,-0.00462302921432008,0.00439612547223175,-0.000968222050438333
-0.0143432267461032,-0.0149101090009311,0.00381656958852455,0.000464504138852381
-0.011653701584615,-0.0120760456314087,0.00675419453249884,0.00153837771072388
-0.0100790502438259,-0.00457749297094116,0.00999758505978836,0.00168791944016349
-0.00916162198676583,-0.0019581399307944,0.0117513731352544,0.000484922605376409
-0.00614589405889044,-0.00261517671222432,0.0119139959918782,-0.00173824902760965
-0.00264978470418367,-0.00199019176109355,0.0122222648925385,-0.00356645333225906
-0.00139989260074938,0.00200092816069423,0.0140527095188092,-0.00394400152565054
-0.00143867052782365,0.00407297684387384,0.01414399458336,-0.00284926306855419
-0.000565552555949251,-0.00266184716856024,0.00954588990258309,-0.00098579344406534
0.00292420763951699,-0.00887165734378067,0.00683736003357043,0.000633095149621932
0.00522436309125253,-0.00683022549792616,0.0103125433894239,0.00186466509209647
0.00270695335134306,-0.0062064396597521,0.0133060366965031,0.0038999052119359
-0.00182091275968715,-0.0126678794399489,0.0108762923597348,0.00745524212450326
-0.00396356256552928,-0.0163501588858831,0.00772291822609966,0.0104525917402242
0.000417851164441064,-0.00687719157210231,0.00816085572445185,0.00941381683721483
0.00851657409604243,0.00896688334906377,0.0105063816458602,0.00412188844794553
0.0122605548769008,0.0176524500101885,0.0130452087357222,-0.00161169501882493
0.0110944493856096,0.0183187065436957,0.0139538555942685,-0.00425789875102126
0.00933179062294166,0.0148700246692398,0.0126826170243565,-0.00362672368017742
0.00747032477339987,0.00694258755445713,0.0104136175128169,-0.00152309190516987
0.00297035610480074,-0.00268027147162843,0.00772980252837919,0.000519489611124841
-0.0030608397479755,-0.00818323906366291,0.00623226496354715,0.00164171083535818
-0.00757230217280059,-0.00698106782880748,0.00691439003956752,0.00179339975112557
-0.00794397154350127,-0.00212464726327494,0.00778850497361702,0.0018506226163024
-0.00353168049292208,0.00184699256029438,0.0075853947943916,0.00251555616021697
0.000921981775404899,0.00163987740648737,0.00794859543141257,0.00323449984438071
0.000325749249190412,-0.00415506707546581,0.00740010579673911,0.00306047420232978
-0.00316515809470508,-0.0125319651058985,0.00244299795152639,0.00246721457802292
-0.00649284727360422,-0.0243449993087124,-0.00508802334200678,0.00226243754931193
-0.0101021126095765,-0.0391758325343606,-0.0105782957108913,0.00183682667170335
-0.00967956670948464,-0.0495943437753925,-0.0108511342227238,0.000528070579330093
-0.00473857752839636,-0.0498275472345666,-0.00544948187217722,-0.00175183602742046
-0.00216442715295901,-0.0397013033846132,0.00151888119006544,-0.00497134137349587
-0.00101514346894521,-0.0268265456258862,0.00413891035278661,-0.00837055772488406
0.00198678679900137,-0.0179898103923592,0.00277416479360198,-0.0106875526557763
0.00409338639346192,-0.012414013929954,0.00153413462719076,-0.0102692121189534
0.00603905152419028,-0.00975337386122195,0.00155094089416447,-0.00560775837299565
0.00947183990771664,-0.0110450493347321,0.00204825693767091,0.00240032126473507
0.0107509492491812,-0.0128258007214453,0.00112953723919467,0.0107830618962521
0.00905314113210276,-0.00869936912443817,-0.00118274230187255,0.0168009366588539
0.00718817196588003,0.000919469193305778,-0.003019704897016,0.0186665046629055
0.00376383999064214,0.00950821354191542,-0.00359737391173149,0.0157853923722644
-0.00150751188504594,0.0143508453116031,-0.00340890511486162,0.00899040837155659
-0.00216560377321077,0.0126282656798044,-0.00413433455224242,0.000382402338727057
0.00398331761978702,0.0046572305829312,-0.00608138960596784,-0.00746481131922769
0.0112176191878772,-0.00173989755904079,-0.00847336191932019,-0.0139875594474753
0.0145841349952316,-0.00207299549052779,-0.0104464167725199,-0.0205321679703602
0.0125816070959601,0.000336880198049507,-0.0104000386163449,-0.0244596418596874
0.00712569616110232,0.000667466434532424,-0.00729008461377267,-0.0193527772963544
0.00256803812635641,-0.000786316583412335,-0.00335076667133971,-0.006428604260198
0.00190434716195573,-0.00195545456296977,-0.00186528719778501,0.0035563605066194
0.0033732282166404,-0.00284545927657062,-0.00109064743734263,0.00319525064090464
0.00265015498421938,-0.00124092087272733,0.00101298169208999,-0.00443563172637042
0.00111712603120952,0.00475054476185671,0.00243787478292653,-0.0102904576440754
0.00344791643525639,0.0135390018512188,0.00281276808843688,-0.0084944543291206
0.00776232737214573,0.0242951442085309,0.00444220768294045,-0.0013399425392377
0.00910043133143713,0.0329631874747286,0.00493393101109484,0.00544343973962409
0.0069472295671587,0.0343905286488032,0.00201456821335478,0.00873489768328902
0.00465942188046272,0.0314523832158868,-0.000220397906147702,0.00841597705600232
0.00343042092859292,0.0279397767534737,-0.00126044145245297,0.00617611980270011
0.00236785670708375,0.020785631008227,-0.0034374309255807,0.00423957144131367
0.00115722849123656,0.00775320005899801,-0.00484494087448419,0.00415438831748811
1.55110939849545e-05,-0.00361898813128249,-0.00555937068288439,0.00673715046170954
-0.000711827537411659,-0.00353317831305617,-0.00844554663412633,0.011403768589804
-0.00295717978554221,0.0016506550835348,-0.0122535461526851,0.0146328795797818
-0.00771089796141156,9.18274081948483e-05,-0.0154694028157894,0.011579069791095
-0.00935896907541343,-0.00494029476635276,-0.0170582142554953,0.00143273810662204
-0.00448392348883127,-0.00484019678291396,-0.0154316062458183,-0.0110782212484553
0.000125489828368729,0.0023581781755379,-0.0127601227070107,-0.020134955261942
0.000996502675456911,0.010972117807468,-0.0109795246289339,-0.0232525248436477
0.000674885222086388,0.0159423760058019,-0.00994888876631761,-0.0212712034928344
0.000186961409224256,0.0215523053606587,-0.00877989630558017,-0.0155045953499063
0.00118668925322983,0.0318759319346375,-0.00652993386478622,-0.0068077680133076
0.00385519856008297,0.0394599758740019,-0.00360015163818206,0.00257994099228507
0.00559099580787213,0.0367291894029866,-0.00182329933454599,0.00880759703564685
0.00608096849655583,0.0304143618215955,-0.000870545120085482,0.010108508160027
0.0054675224596821,0.0287589297773765,0.00127887034748543,0.0085813433360892
0.00290498925702573,0.029097813809892,0.00305142501793584,0.0070635913531252
0.000328741365672756,0.0258737538244055,0.00358214291999926,0.0067446217522657
8.85380124170272e-06,0.0165692950035161,0.00443899946000918,0.0076934491247654
1.83864681289025e-05,0.0050519935366492,0.00620261978320853,0.00943209457474218
-0.00308930890560462,-0.00396004003872263,0.00724529554006285,0.0109035438540417
-0.00751980501803298,-0.0111254121413234,0.00625366133562902,0.0109143905913415
-0.00777832890349008,-0.0147570083505702,0.0056094213192527,0.00932698082391514
-0.00402997980366406,-0.0152426823062723,0.0044989585684743,0.00714963885797556
-0.00235448945999136,-0.0191405570068649,0.00122664327664884,0.00540233739390274
-0.0030721982896806,-0.023923615558545,-0.000318212617536024,0.00432631128788201
-0.00206320022345799,-0.0208499027151977,-0.000177945312980338,0.00342720534696702
-0.000392298760687527,-0.011632581700258,-0.0017769454461749,0.00206079206739434
-0.00101116057077312,-0.00244105422071784,-0.0035707849790628,-0.000280468295121601
-0.00298391284428386,0.00659632268419327,-0.00247484120449602,-0.00382405919414917
-0.00189685841949473,0.0177081241268773,0.000772096456563273,-0.00762720070466588
0.00403238480445397,0.0268633051087238,0.00375951462212817,-0.00890090505409389
0.00828672532559761,0.0220762968659976,0.00610897281899601,-0.00601977251482061
0.00363192966726003,0.00269283282653655,0.00543946800588262,-0.00175295774345926
-0.00703934421735445,-0.009505751237148,0.000391432430054408,0.000235274012680616
-0.0140401964518495,-0.00231867775613925,-0.00514215862063312,0.000313204096576463
-0.0127329248666481,0.00900071246149926,-0.00975367487481885,0.000756002173706116
-0.00946556037766683,0.0146275403228909,-0.0129864225648296,0.00165402293142477
-0.0092892218860409,0.0186254590170107,-0.0135068305683122,0.00209591902993131
-0.00728708583777227,0.0186737652290882,-0.0105027902988044,0.00204815483767918
-0.00054221426508093,0.0134628119949842,-0.00231594161362461,0.00157644794386603
0.00673717385444245,0.00772662845720411,0.00651565817075432,0.000861798086114652
0.00921236383607978,0.00324727458373833,0.0104276258339293,0.000370114070413908
0.00662881546856092,0.00302793202404902,0.0122302319742688,0.000387830753838934
0.00353621230081173,0.0072115314138516,0.0121528775857863,0.000936667073306926
0.0017864544407948,0.00932190208458791,0.00872692850479504,0.00115194779053156
-0.00076711837642071,0.00640082497377418,0.00446955006022256,-0.000221616191287983
-0.00395071852195727,-0.000188551987853915,0.00152589150640309,-0.0029295951636409
-0.00355226896842921,-0.00482534686814406,0.0016960420048341,-0.00568532603199571
0.000643274089518608,-0.00309727682028386,0.00195977674154303,-0.00748097756311345
0.000898104383368886,0.00180703167037759,-0.00159892829032235,-0.00775154376967366
-0.00449074296632816,0.00487554786566251,-0.00597590929947939,-0.00684306368043291
-0.00672573455996306,0.00539573124478686,-0.00785423929068475,-0.00549369374121026
-0.00387949252617956,0.00858910435659722,-0.00801243623397681,-0.00409682801407786
-0.00291167476546517,0.0162493263856727,-0.00708538998592364,-0.00265359516228921
-0.00640515629872743,0.0232210032725189,-0.00508169072918678,-0.000869321444689481
-0.0111053859128055,0.0275421766017868,-0.00274905818932153,0.000878405827319084
-0.0136231106109178,0.029148780660424,-0.00210828004054193,0.0017390511183765
-0.0139550830052537,0.0239161670331525,-0.00413812583917236,0.0018548576738574
-0.0137006438652449,0.0134721992724116,-0.00703465992887931,0.00152342516858871
-0.0107626975007938,0.0104413247595141,-0.00802489703225553,0.000274756454919023
-0.00450811933997881,0.0169989459616775,-0.00664994967306807,-0.00165965877449793
0.00345556646672116,0.0218526373793207,-0.00636313390164951,-0.00323073354410207
0.0107711642869359,0.0231628648179278,-0.008257931773444,-0.00408867633800777
0.0143944920441866,0.0256762560615379,-0.00865742173526543,-0.00442628475797037
0.0146995882469875,0.0248525983011209,-0.00751343063627425,-0.00424092448945162
0.0104884722621128,0.0123956734126744,-0.00951632224972742,-0.00345367340267543
0.00166769052501308,-0.00624900723316264,-0.0117536169457498,-0.0024405525706017
-0.00511090737957108,-0.0224234184964961,-0.00976085480510819,-0.00193959872998566
-0.00669138985074215,-0.0354196925608959,-0.0091101859901778,-0.00199810404579515
-0.00835050620278552,-0.0359841950218211,-0.0120161738139234,-0.00200786646416548
-0.00795683388211553,-0.0188530552953333,-0.0124186660503015,-0.00164109025489635
-0.000424504470530883,0.00222081607567969,-0.00806105986847,-0.00139195698239703
0.00580008996704865,0.0155692367558935,-0.00243823323427633,-0.000986167593120921
0.00458492879697614,0.0214596916490345,0.00161175270235802,0.00124916509621762
-2.44644251951118e-05,0.0229447569414486,0.00430141565682304,0.00479000422053162
-0.00382118821074854,0.0204344613027634,0.00327408165785982,0.00682533392672981
-0.00578083951487673,0.0153896255065282,-0.00263246401357856,0.00625151661076957
-0.00660461922743745,0.00950155441276975,-0.00755168848362015,0.00436911896758773
-0.00532141137575439,0.00128960799789363,-0.0077191430211842,0.00238243025797775
-0.00439152023474431,-0.00614290577344764,-0.00487243290338535,0.00025635889744468
-0.00712326471758052,-0.00694142108069812,-0.00249047228586489,-0.00182004890188536
-0.00760017328382175,-0.00330175165989867,-0.00165260529003916,-0.00302776307795291
-0.00190427251652546,-0.00205767924696435,-0.00109869301801132,-0.00297615106112258
0.0037891610174891,-0.00687562682251846,-0.000737845669930759,-0.00203402063514777
0.00393882772416356,-0.0160175942002673,-0.00110542696042214,-0.000790107311120169
-0.0012404520680645,-0.0249490153510307,-0.00264391620908336,0.00128652919664341
-0.00722510434982028,-0.030984069791812,-0.00446922925996739,0.0050195473229598
-0.00943283064369134,-0.0344181714862892,-0.00355215972476085,0.00855117365317848
-0.00553654047261937,-0.0348555906304698,0.000446316868558347,0.00863891243112635
0.00576472156346471,-0.0296744816765079,0.00380659327989763,0.0049141577379793
0.017375843371951,-0.0209948218148743,0.00520099524440933,0.000155452983141341
0.020321056639279,-0.0137639947765177,0.0056952071631834,-0.00290410519525511
0.0176609101215984,-0.00897326903124074,0.00596378517556589,-0.00351128068394645
0.0139840536149348,-0.00392580753668814,0.00677351103912648,-0.00227166101291498
0.0118945070625322,0.00368841580150371,0.00798045741292736,-0.000257605224682512
0.0154241115072721,0.0100484980993054,0.00942764078490344,0.00143676807498978
0.0203488160675608,0.00861835191229035,0.0106251691206288,0.00241072980239938
0.0141339748287059,-0.000128064042758315,0.011087555220774,0.00278133134241214
-0.00310626168565768,-0.00800120132601216,0.0108795090973623,0.00248277186740775
-0.0129352772276091,-0.00691087192165299,0.00965433453156924,0.00138679926740774
-0.00887998707967822,0.0027815635293156,0.00752693381216138,-0.000174342875445694
-0.00505425177401165,0.0104516872863947,0.00440510010393847,-0.00174872777775796
-0.00853399662496645,0.0112458312439536,0.00275102412856961,-0.00295716592010522
-0.0124501628755731,0.00765731446430373,0.00414118927015282,-0.00302715852225233
-0.0104902520399618,-0.00473493833853755,0.00468355793952982,-0.00189370695071687
-0.00623190958789829,-0.026901154964708,0.00456472067070236,-0.000567100241113321
-0.00620775195073209,-0.0506227448965535,0.00679713817750521,0.000292977394250178
-0.00786653488425076,-0.0649914185724628,0.00813727667094014,0.000815535666263819
-0.00903617352699418,-0.0580390178959899,0.00604603362346831,0.00116409775177039
-0.00935607150032098,-0.0280957982778349,0.00398757919102427,0.0011989584834663
-0.00328468364520779,0.00596159237311987,0.00383895015442432,0.000879172570748453
0.00659478700031843,0.0192166331040669,0.00382649006716061,0.000219863792948781
0.00986789516523727,0.0114498838020831,0.00231467240795166,-0.000533024204676709
0.00575739909544246,0.00531070253090182,-9.23220365716942e-05,-0.000774073255329848
0.000556807128995509,0.00883706827856368,0.000171558506111379,-0.000204449321656234
-0.00125479817571183,0.0126113139082875,0.00328489060666191,0.000862764679378068
0.000814507285219628,0.0139287699563115,0.00600665345548035,0.00171001951100111
0.0023007478460598,0.0144669178834758,0.00768425242988955,0.00175550718730528
0.00143252420377829,0.0136122779870634,0.00927638796390857,0.000923013798861496
-0.00283364099900325,0.00723976912793068,0.010430964367034,-0.000442688319283521
-0.00882991956165248,-0.00462731528468673,0.0087291484263071,-0.00171599388238992
-0.0090148498058774,-0.0127538411622502,0.0058915063575104,-0.00236771034701524
-0.0052534989087846,-0.0139153303035112,0.00512090909709396,-0.0019383390944616
-0.0027913483245611,-0.0111413323649874,0.00517057087610786,-0.000542721195378464
-0.0027989373633864,-0.00900449762046881,0.00486167724692794,0.00073441430375118
-0.00397175547544895,-0.0114131101977287,0.00208249974287703,0.00115727152514433
-0.00125782059408095,-0.0141452210427213,-0.00219705734981317,0.000695335559030343
0.00293521226371476,-0.0140778017845048,-0.00377966004601225,-0.000703035978433834
0.00280500732634816,-0.0109672048407288,-0.00365891759911697,-0.00252515574615429
-0.000508650345453882,-0.00078046965385685,-0.00186133745935124,-0.00344045682453549
-0.00220365021753724,0.013202273559355,0.00162000885870813,-0.00268615572003326
-4.57149349979685e-05,0.0219495962213627,0.00329364268493514,-0.000851859031302082
0.00289297672955043,0.0203339719051581,0.00123281622676228,0.00105519697953006
0.00254316527196542,0.0115885062993449,-0.0037594575724444,0.0021632164068203
-0.0019217237690463,0.00710891182698025,-0.00716791292884889,0.00192240910003071
-0.0099521390036743,0.00337140403882061,-0.00762093557327762,0.000542076482389265
-0.0196593689391123,-0.0126961401180824,-0.00825996114557911,-0.00191228320519952
-0.0247901802720348,-0.027990396144668,-0.00925950101518062,-0.00501017499839866
-0.0208210387285109,-0.0242352793989535,-0.00839964492458644,-0.00641226966000766
-0.0108798481139104,-0.00930343078617004,-0.00433781475582866,-0.00399475400116873
-0.00263070095226163,0.00402555321937464,0.00109534747018784,0.00120768693503255
0.000129946712829307,0.0148941943647961,0.00523562610968489,0.00617268915112278
0.000546087314632838,0.0264847637783668,0.00752813066089902,0.0091197575252369
0.00180677267092303,0.0342455927061389,0.00747490368426146,0.010511142089176
0.0048506919021103,0.0322022398041133,0.00512371007111601,0.0112787507339806
0.00840833796549594,0.0254190609063063,0.000687970985407139,0.0112214348432732
0.0102542481096553,0.0205602664150506,-0.00328042565242843,0.0092634019729407
0.0120158918649605,0.0192375287232908,-0.00272976732859957,0.00426549107414723
0.0120691908840239,0.0151410875882139,-0.00118188184444846,-0.00383564846002026
0.00535768493899734,5.80312322227307e-05,-0.00371991127020315,-0.0127727450180196
-0.00395031230935032,-0.0152570514831468,-0.00651703596484355,-0.018293680973606
-0.00847369414783257,-0.0230877576932175,-0.00437770472962064,-0.0169573315192008
-0.00819337317867168,-0.0357320339290523,-0.00124619873761138,-0.00944510876725518
-0.00829899927177214,-0.0526267936857636,-0.000184384221075719,0.000809659409083896
-0.00978586052662449,-0.0549664301275567,0.00153463964499388,0.0109074827904904
-0.00636599644846444,-0.0360173078969803,0.00238516933050123,0.0173948125011862
0.00253243777241248,-0.0110377782808805,0.00249295672473704,0.0165352665316669
0.00928410004450328,0.00521132858063647,0.00450925012190703,0.00804841258977427
0.0080225791447846,0.011468862586621,0.00688739440202305,-0.00395551081159389
-0.000466052371321029,0.0118084138880561,0.0071705408360165,-0.0135942341133909
-0.00994173446408271,0.0106010063504532,0.00568625828554635,-0.0167399971266401
-0.013890453111764,0.0116491907057512,0.00471961607530742,-0.0132799133802519
-0.0112270104109306,0.0152835099855708,0.00470542201028847,-0.00653899682336069
-0.00875748367598549,0.020710392739711,0.00434818739504934,-0.000199703965450732
-0.00765172344230218,0.0254850805906558,0.00175282871887459,0.0041710878585407
-0.0014094612316594,0.0245004070033569,-0.00257485842747993,0.00651493909086227
0.00733130438094649,0.0132529451018277,-0.00561943062705115,0.00704337556546294
0.0102673005225852,-0.0063966955415896,-0.00654695747571228,0.00549302487633733
0.00803060712906199,-0.0188608426258442,-0.00553030309325861,0.00161156199026715
0.00541613321435846,-0.0161774898949456,-0.00374577035762138,-0.00260165967263689
0.00169096189355501,-0.00951367786703662,-0.00276514052480849,-0.00408595444592759
-0.00260885986276397,-0.00580663571101019,-0.00371820220970951,-0.00215528012315026
-0.0048435523182774,-0.00222636877967326,-0.0055548257166607,0.00146395683212797
-0.00638653995931174,0.00104565930882709,-0.00414848249041094,0.00499491473059219
-0.0109074976733177,-0.0021325071460764,-0.000498839747647564,0.00752169992593438
-0.0179159545547777,-0.0138316778713402,0.000806915132136743,0.00794043397760997
-0.0206007742892753,-0.0270656022756898,0.0004024342535686,0.00524408421856079
-0.0167801294878936,-0.0337049777554886,-0.000857264654349851,0.000459183870573306
-0.0126361800743454,-0.0311478888643434,-0.00310106532346023,-0.00366315560375348
-0.0113327785009108,-0.0198868784759085,-0.00239376394723505,-0.00549205477063817
-0.00854845525829243,-0.00595485015836978,0.0012447256579472,-0.00475044692719421
-0.000840710381979241,0.00173698332792795,0.00251140926883436,-0.00184826641232508
0.00741842279811493,0.00577385460752615,0.000342245712361163,0.000262256900037641
0.00779904380089101,0.0127899987112303,-0.00195700365513038,-0.00282093545506204
0.000283470343705274,0.0167949015245314,-0.00236945433213542,-0.0108754398793209
-0.00470844256011948,0.00942787734514213,-0.00346408783094112,-0.0169930580848896
-0.0035425927326615,-0.00452908326696159,-0.00603434886640222,-0.0151966209955811
-0.0018787458957053,-0.0126386968725913,-0.00608413689766782,-0.00741631210595721
-0.00284061361102113,-0.0077172966638946,-0.00494661094636869,-0.000309789005704386
-0.00532833376177042,0.0022864145929035,-0.00470371861700234,0.00267109603268032
-0.00673074595414228,0.00497177052529052,-0.0034236071100561,0.0028193669412698
-0.0062483557244559,0.00167529185849193,-0.00244271880664937,0.00161593362890751
-0.00457796216984913,-0.00169620049388142,-0.00243755592017372,-0.000240775859192482
-0.00379020683856057,-0.00868006349123048,-0.00239753998550691,-0.000755688077384894
-0.00660808417486699,-0.0221452318003414,-0.00278267041838865,0.00207389542271505
-0.00783287865211106,-0.0292693588562443,-0.00326280443246452,0.00721734304065038
-0.00173230770468041,-0.0185744986757823,-0.00407738096680384,0.0113866706500665
0.00493906194309751,-0.000580166465225358,-0.00448459509654921,0.0124824852836237
0.0047535332760529,0.0085217077650666,-0.00541909178335199,0.0108284380272523
0.000887645740633783,0.00692422425696994,-0.00815232331148519,0.00831816870596392
0.00163608979354218,0.00166784283843429,-0.00880833525448825,0.00699666076302293
0.00558192285430182,-0.0041661277480407,-0.0079275852809998,0.00746405396528343
0.00507353383898686,-0.0101229364133242,-0.010009696076268,0.00799947700243536
0.00253536983393052,-0.0123213351484576,-0.012012294266384,0.00579158770642706
0.00101634795506188,-0.00906353010943731,-0.00832574513156284,0.000263759828170222
-0.000592491289971808,-0.00594256496051194,-0.00306258660302977,-0.00613434619006826
-4.43507528054936e-05,-0.00801766612497262,-0.00238763053375581,-0.0112732926990836
0.00260766380645958,-0.013545957308174,-0.0050813222931003,-0.0145638452951311
0.00414289365999398,-0.0170722288459748,-0.00783878786421555,-0.0153125278284326
0.0031057070068256,-0.0134444208947928,-0.00743317467952791,-0.0133346493763746
-0.000761656585948619,-0.00415397897348247,-0.00361772205814468,-0.00967230928880832
-0.00542861666278441,0.00108117019475404,-0.000776847791366398,-0.00521089990684638
-0.00724433966491862,-0.00148143588847142,0.000564845662783114,-0.000310238968816304
-0.00618796862720488,-0.00300216573011991,0.00191812998749979,0.00409410833901746
-0.00587010678837537,0.000930324443996718,0.00270487679905418,0.00685136687099901
-0.00755764558771505,0.00488069452476637,0.00326360278194441,0.00803634158234844
-0.00528785649601065,0.0057161000248626,0.00255692030043897,0.00845199250430842
0.00274822369717674,0.00369623595364923,0.000481300518790815,0.00836034330778354
0.00866669342429995,-0.000798632717989002,-0.00184271485991623,0.00769932714067582
0.0108029299162156,-0.00451634966120282,-0.00452191623587797,0.00665740666100561
0.011953549400202,-0.00651867988528328,-0.00696430548526828,0.00544284279163887
0.0120776385353493,-0.00770376234372,-0.00711983788652901,0.00427007486293597
0.0110150655976721,-0.00493551359721583,-0.00390369710075516,0.00330696646810631
0.00790332514901404,8.02233967024807e-05,0.00101449044290791,0.00243699043905065
0.00393472195088741,0.00270372464004803,0.00446114462282546,0.00147864968071761
0.000964086228000902,-2.60331490337168e-05,0.00300772493246579,0.000566059510891691
-0.000946334947442111,-0.00985602422157302,-0.00212066139470132,-9.73128493115729e-05
0.000719666631051123,-0.0216796924649988,-0.00566930210430022,-0.00113376188637941
0.00551969702861051,-0.0249873888998695,-0.0053629966329988,-0.00308336110247599
0.00733170359927585,-0.0167625707316579,-0.00259033321133758,-0.00495487040684512
0.00518216580133623,-0.00468354217756241,0.00183994860818366,-0.00543356244913705
0.00253480991043553,0.00608798146307871,0.00699676948444773,-0.00474447988298522
0.000913929022077879,0.0133664048708459,0.0103314525106795,-0.00398524574854615
2.86942881083281e-05,0.0161560269131363,0.0120732778406837,-0.0032728518166839
-0.00022276150747103,0.0170881537376205,0.0139633439825866,-0.00230152135223583
0.00049633590947269,0.0154706970551051,0.0152579956434013,-0.00193410984924989
0.00210708571429106,0.00950450229869405,0.0154069315405061,-0.00320182146669381
0.00405687763546529,0.00156053404210974,0.015891100293367,-0.00472037717417956
0.00553558551006354,-0.00371426098141107,0.0177721263872195,-0.00355985546845821
0.00783799359081301,-0.00230116781135846,0.0216030356708548,0.000615009618811935
0.0100570156443178,0.00113687032982269,0.0253358127734965,0.00499347219066814
0.0103630453232325,0.000140231951475046,0.024292422223036,0.00719292910453219
0.0114273284802101,-0.00298342797399908,0.0201740731440211,0.00749387968095148
0.0150074093433198,-0.00577868904436077,0.0175336286181703,0.00713521963053788
0.0193071872825553,-0.00538853770334401,0.0153426884764033,0.00594962360215651
0.0201251515767765,0.000799646656620382,0.0121057836296217,0.00321700343991508
0.0178025306157523,0.00646027967315388,0.00894325404756684,-0.000394902941938009
0.0166164010526928,0.00841607194699432,0.00811028588889282,-0.00366448153346442
0.0138119810383032,0.0131155662120753,0.00909608376567804,-0.00637805703085618
0.00795144307602347,0.0217367181730155,0.00943080496984102,-0.00856939681980297
0.00300322659226761,0.0281358013101367,0.00852428831252884,-0.00973376489871516
-0.00199154386752239,0.0260379525456367,0.00672531258771132,-0.0095904858387734
-0.00759818571915493,0.0216103872031501,0.00587453923030966,-0.0084976814245033
-0.0121874159160805,0.022076952599645,0.00588462275694887,-0.00656973035137768
-0.0179896246830568,0.0161540626230748,0.00575909675379016,-0.00363461889850559
-0.0233940751940235,-0.00456330440133221,0.00486517964093767,-0.000147494870211458
-0.023671946370713,-0.0298091033021858,0.000297132780817635,0.00290371145968743
-0.0186853649807351,-0.0333102399209672,-0.0045777163050038,0.00473068940333978
-0.0112784407380721,-0.00760707810770555,-0.00400111723541149,0.00528800283091063
-0.00192077611161656,0.0184413765663978,-0.000725824113894845,0.00470895066158932
0.00683748294101555,0.0243142788827176,0.000563646403214806,0.00235242177793251
0.00669224026469322,0.0179977359006275,0.000633654655622953,-0.00144116647855784
-0.000495627924776101,0.0143725306429476,0.0013745734197507,-0.00421302723993524
-0.00346442205631142,0.0164768073958178,0.00235136781106163,-0.00423628788462854
0.00404952958865265,0.0190320444462168,0.00357879716170737,-0.00234099398541497
0.0186448857559971,0.0172716402545426,0.00330154267160889,-0.000400599073103669
0.0273888582226434,0.00954849588138174,0.000418478306551265,0.000494259630936854
0.0211040345000556,0.000456335125454182,-0.00214594255292393,0.000215486670917446
0.00465706736520657,-0.00207355672605995,-0.00348312347971289,-0.000764045481461559
-0.0120024659030477,0.0023661985129515,-0.00570714662516861,-0.00152666447614056
-0.0253752905310454,0.00659511488615903,-0.00810602200418298,-0.00149052281888632
-0.03549688067256,0.00700932938960178,-0.00893925887923473,-0.000755836604031632
-0.0379487880517508,0.00585281560783905,-0.00980757163481352,0.000786263134411369
-0.030725984252949,0.00813869305409809,-0.0110996784053256,0.00308058588996334
-0.0193491259455155,0.0127418339242749,-0.0120458906259368,0.00441086799188295
-0.00649991739547905,0.0150919320957104,-0.0125814823729689,0.00296553306400097
0.00790849132624259,0.0163335981714397,-0.0121904399988257,-0.000426152340468056
0.0179203042539368,0.0166819265434884,-0.0116609456370328,-0.00295928705211237
0.0160025167860612,0.0152455320259807,-0.0102591296971276,-0.00311490407749307
0.00555365713264653,0.0142966892170581,-0.0083149615957562,-0.0024602847800247
-0.00300730085522042,0.0121559273281169,-0.00773831874685087,-0.00331844345032596
-0.00734827848423653,0.00461552563556947,-0.00668243284376599,-0.00558685512346342
-0.0112972216692467,-0.0025314797377503,-0.00586960815951896,-0.00704109266920761
-0.0148689488570414,-0.00259000119998385,-0.00731644571025799,-0.00634524249192859
-0.0133519814586305,0.000454395459229262,-0.00822324025866114,-0.00431554485533324
-0.0103616592012788,0.00204011129144614,-0.00749680714502795,-0.00203696748466762
-0.0118769892286433,0.0022154648879827,-0.00599026093095617,0.000495790570039631
-0.0117627307319832,0.00271132099138405,-0.00347412508580009,0.00353041134902462
-0.00653191987776338,0.00472016378660087,-0.00150923329047189,0.00721188820086336
-0.00117645171576286,0.00615631146019918,7.87432958770668e-05,0.0113881214778778
-0.000889115582478491,0.0050739818602333,0.00198222617371975,0.0145657539459168
-0.0056819595018992,-0.000772813299362136,0.00190230309843891,0.0146619845532652
-0.00857492485813095,-0.0107731490660345,0.0004504966958245,0.0110094722502658
-0.00481712379325498,-0.0158081461249325,-0.000142497410417075,0.00492443708423554
0.00252748155628667,-0.0109485079201655,-1.46628648788564e-05,-0.00112663378273922
0.00887844746054613,-0.000401355794989978,0.00139910700384662,-0.00493416692235602
0.012545232005478,0.00989870634881887,0.00425171472780494,-0.00589894419856531
0.0141365035622045,0.0152935843271291,0.00699532296053311,-0.00480065382394181
0.013824336133498,0.0127515701187269,0.00766035596593598,-0.00291167198997576
0.0106082287837907,0.00791556083522108,0.00662108733073691,-0.00116171308007425
0.00495380956396136,0.00813890642999763,0.0072637634355482,0.000355667767757517
0.000645302549955494,0.0082215618213098,0.00887165606511714,0.00179072940486807
0.000362337575672909,0.00335759118177901,0.00868089627686942,0.00299371519330828
0.000253151723371566,-0.00360792224801796,0.00762091489380586,0.00315059753025549
-0.00126201183599901,-0.00990795657800136,0.00561270531702756,0.00179879363884234
-0.000439147279452541,-0.0169751326038069,0.00113380231289353,-0.000260513431436294
0.00171298232824745,-0.0242133992465347,-0.0030897180404474,-0.00198727375612941
0.00356957570831817,-0.0237059529717615,-0.00429687212155307,-0.0023126169638319
0.00539406862838335,-0.013359850102467,-0.00227579111717961,-0.000168717041764579
0.00976406548795721,-0.00115207749049367,0.00265001819591048,0.00431392139880013
0.0175787845238544,0.00739036544073793,0.00713083103692253,0.00895077954238297
0.0172289497884256,0.010851514931285,0.00839258981589787,0.0109598589693815
0.00541260759489946,0.00930607776087642,0.00745966256473022,0.00937818314066428
-0.00439391895552208,0.00460828971862598,0.00610383728106874,0.0052214014505643
-0.00616279226694747,-0.000490761979648695,0.00540453198046163,0.000911623386140047
-0.00400222545659856,-0.00128983471007011,0.00774816956858373,-0.00160440086412309
-0.00252545464472868,0.00117012851240766,0.0112611554962759,-0.0030370994240862
-0.00304343870362856,-0.000457589533522824,0.0107708572878979,-0.00463677721653198
-0.00358121222666472,-0.00488227535876486,0.00780140449874737,-0.00681048791497251
-0.00686551280859854,-0.00621772928260291,0.00662832430919401,-0.0102027703848642
-0.0131630460860952,-0.0046802712465978,0.00760019159010172,-0.0130089261382547
-0.0133499629705259,-0.00144255450458516,0.00802618515442507,-0.0111392826102329
-0.0082123651400136,0.000448457816198983,0.00588172106222595,-0.00470811011491269
-0.00617169380039912,-0.00218981019333367,0.00211806094301922,0.00156558447779529
-0.00575866087499942,-0.0104190306423999,-0.00194268899590493,0.00444844379882257
-0.00251802757849554,-0.0181311366099684,-0.00500971060704027,0.00460391373534661
0.00385190160481516,-0.0135563575746,-0.00488684678391361,0.00445581136891112
0.00773341887539023,-0.00278049401323614,-0.00167904520472687,0.00570971670190263
0.00447365265910031,0.00148362412885711,0.00235440276966434,0.00783509374421715
0.000976162663459665,0.00325875304657927,0.00566024183362648,0.00872786159456093
0.00161039103890143,0.00895009168503071,0.00847097495703049,0.00705703280760019
0.000790244810401308,0.0136115487875914,0.00970495492957139,0.00298651392989311
-0.00156258634765703,0.0132563215075718,0.00878152016728066,-0.0022738027619619
-0.00114152825493102,0.0119046992059906,0.00872056773561725,-0.00704314813352865
-6.06300398049821e-05,0.0105872693463847,0.0100188299155733,-0.0100415200078938
-0.000341885111173302,0.00667470708882434,0.00887947718093536,-0.0109133572552316
-0.000967508407868093,-0.00173118103355956,0.00543192713416841,-0.0102632405103447
-0.00251634131940527,-0.0113812026014951,0.00329058337129053,-0.00922458522440109
-0.00142566207975485,-0.011786009612898,0.00440345369631762,-0.00818415204721998
0.00502839397182658,-0.00245031510658269,0.0079791612192301,-0.00645511500486438
0.00858784316387125,0.00517646560181751,0.00902711035878417,-0.00388551009329125
0.00364784660006922,0.0048411311441408,0.00724632041970133,-0.00109018584706595
-0.000758739633410362,-0.00121163939828627,0.00600478576794025,0.00182681379767148
0.000141356257822519,-0.00699378074256518,0.00482703374843866,0.00483530722218347
0.000503926602369718,-0.00773357107643871,0.00449573847353681,0.00662299063779512
-0.000148345040844274,-0.00394617323763834,0.0050763782934756,0.00609835715014593
-0.00323822377116997,-0.00152675234642615,0.00297640698937699,0.00430368701213699
-0.00825404517335956,-0.00469802750482698,-0.000354301355956266,0.00276779927951267
-0.00739012450242683,-0.00635577324619752,-0.000703508866104608,0.0016082234304868
-0.0023133027604311,0.00153242479404271,0.00155972786482317,-0.000180597985324145
0.000701086478352463,0.0127868292418184,0.00495436654882407,-0.00291852110642992
0.00175953424612347,0.0168349092963673,0.00604853100480998,-0.00537998055915424
0.00130692667050879,0.011950701605772,0.00375200573293539,-0.0061506386754172
0.000936144411164655,0.00742454535606025,0.00205478085873353,-0.00464629143021311
0.00216249541680073,0.00907491809699916,0.00259377181718031,-0.00160282887312259
0.00267768513377069,0.0113133110948271,0.00458307440847762,0.00131921392630256
0.00117960188590055,0.0129332903264985,0.00675873698055101,0.0027869937569533
0.000966739015557707,0.0169501626007324,0.00705013471682311,0.00196072639235047
0.00369795894300662,0.0184184579230548,0.00466528161470113,-0.000384389371638509
0.0017223877919682,0.011066298447859,0.00158574485880045,-0.00159561559956903
-0.00393889123149588,-0.00182968504247594,-0.000531258952051097,-4.44383961841352e-05
-0.000964866035000787,-0.00946830275388565,-0.00264859772720189,0.00388489869442973
0.00955956238939394,-0.00818388302453301,-0.0045133103686279,0.0088249527406416
0.0145118245003433,-0.00339132187681672,-0.00502878502297468,0.012877529067373
0.00999701806702793,-0.000269949293901818,-0.00502715958575962,0.0138349677814745
0.00570867096755346,-0.00291782643471477,-0.00413044829654774,0.0100024896299452
0.0068907852691532,-0.00651891696305934,-0.00164381336004571,0.00246055487405692
0.00609704968520287,-0.00545753583162589,0.000124177397631792,-0.0052141394962415
-0.00117407505787898,-0.00344418821036328,-0.000320340170051555,-0.010076959838231
-0.00837462115941202,-0.000171654238618023,-0.00167184778163482,-0.0107346422739626
-0.0124003600548382,0.00613417497372958,-0.00389651614603143,-0.0076857523511085
-0.014503750865114,0.0124359038831305,-0.00552151497242796,-0.00339333390667903
-0.0107562943657171,0.0155388334795327,-0.0039966698494554,0.00045423363547174
-0.00141502513194679,0.0170923630610455,-0.00138561110207375,0.00363092950065716
0.00597979844864283,0.0184320860505035,-0.000869163770838488,0.00565595342842241
0.00749065095775252,0.0138676617379732,-0.00224654946312129,0.00667978630267511
0.00473087547334479,0.00365492193384171,-0.00304675326387074,0.0074658658904004
0.00153710275103926,-0.00207109375954848,-0.00235528082664325,0.00750058043220646
0.00118004852658213,0.000971177169310857,-0.000792259279716976,0.0055967466874503
0.00218748685987388,0.00616840892943554,0.000663971364809425,0.00162052071892599
0.000529242600460725,0.00550196085756356,0.000534513194535827,-0.00211647183343823
-0.00102379991778212,-0.00490559672702905,-0.00134797475417578,-0.00220272292501135
0.0047481382030853,-0.0159744682738166,-0.00418823692900711,0.000827575839184507
0.0146985673036558,-0.0136652980346137,-0.00693602018700754,0.00257729629481789
0.019057351998076,-0.00284206662571294,-0.00708116487608919,0.000780320044764775
0.0164369599487181,0.00409749493420248,-0.0047383205630976,-0.0027358304551123
0.0110288554843221,0.00590403228578106,-0.00250351698073093,-0.00521025611811077
0.00591231341172182,0.00800240974376236,-3.00237376908881e-05,-0.00555837676464041
0.00264200455540595,0.0121592943785921,0.00316250828371085,-0.00399881585516799
0.00182400789072842,0.0103202564991722,0.00484089938404944,-0.000674247523316013
0.00288316253568446,0.00126503927105529,0.00394162876659254,0.0040811706326867
0.00191408314411931,-0.00264949008383265,0.00258151948515515,0.00810625970796694
-0.00301986623697362,7.01207393721259e-05,0.00157380954158992,0.00866772696204999
-0.00541528738247292,0.00131794280550345,1.40647849998297e-05,0.00571191118993788
0.000236792303801306,0.00232740537272578,-0.000315477082515018,0.00133242172650746
0.00892304364610626,0.0057485450690101,0.00209243300154402,-0.00236950385844305
0.0143131916592387,0.00702778808378625,0.00338333754129645,-0.00442941843363796
0.0170546267202247,0.00858558275278167,0.00107780357376833,-0.00567696597617137
0.0173397257093505,0.016901139288913,-0.000600732916824709,-0.00717456838388814
0.0126874439249421,0.0261650172681742,0.000349523732201144,-0.00781626984503481
0.00707726378219035,0.032594969783002,8.59410874245166e-05,-0.00572130097532675
0.00763464657134818,0.0404053022162063,-0.001224388930954,-0.00114241001069249
0.0134267785972733,0.046238761369008,-0.000776359736282986,0.00448200140566865
0.0167799412223538,0.0455644249114477,0.000154769779242347,0.00994870932717984
0.0130509644626493,0.0378488822734399,-0.000692317225272939,0.0131724610565705
0.00685717008842398,0.0213016306746005,-0.00253386186086595,0.0115346157331158
0.00289721840450642,0.00179126037856633,-0.00205210547924981,0.00469345439825591
-0.00342985125977275,-0.0186554177398116,-0.000138535780976394,-0.00477557301843992
-0.0148141597239942,-0.0501163133676892,-0.000783439741682794,-0.0133331694181728
-0.0260742661871321,-0.0864340776502309,-0.00397981072934422,-0.0179745022111836
-0.0308193375505045,-0.101646198724951,-0.00629369280467005,-0.0172879609950186
-0.0246169923361645,-0.078297630964526,-0.00576525577268422,-0.0121021639297102
-0.0102946549068655,-0.026743558089875,-0.0037324979530225,-0.00498279409487844
0.00634637571416498,0.0238617812479387,-0.0027165063864789,0.00121545766833481
0.0233557245644504,0.0530210923721205,-0.0031580192964038,0.00470117521041624
0.0368203361914083,0.060057114043151,-0.00329080499031007,0.00552431334282171
0.0388024002010887,0.0557365225418113,-0.00167545894766727,0.00504327217939106
0.0286440687307255,0.0483075867472231,0.000968856861850281,0.00438747422532795
0.0155846484793991,0.0375898824945568,0.00151300012327912,0.00370598826153413
0.00492098394345496,0.021347716623707,-0.000920411405799608,0.00222352307854957
-0.00489973040599184,0.00111618760069255,-0.00309581565010771,-0.000243851766563943
-0.0115230542974644,-0.0151200683270601,-0.00375812601527769,-0.0023053989885039
-0.01069280218533,-0.0190556977025923,-0.00434920341716002,-0.00280563688286949
-0.00813009701644887,-0.0172793614604091,-0.00591032098005815,-0.0022021214229071
-0.00926773427611739,-0.0234861864441154,-0.00806605231945175,-0.00186600035311847
-0.00934636163637771,-0.0323703057858319,-0.00873108906244505,-0.00253574011196185
-0.00625350458255745,-0.0323710645295083,-0.0084343177744346,-0.00383832328608607
-0.00589279443319091,-0.0276363736355283,-0.00940123300860849,-0.00586178105738385
-0.0094281707939969,-0.0256460638038325,-0.00916557489321149,-0.00852576912625891
-0.0118435424704828,-0.0282111788782924,-0.00700397959024335,-0.00932453770045975
-0.0103470185459612,-0.0312944554190058,-0.00723521349847822,-0.00579333404119113
-0.00561814893279247,-0.0270246097089269,-0.00929373991119662,0.000584010943521729
-0.0015993187196362,-0.0191213207922685,-0.00939979840749767,0.00531231788133807
-0.00146901140973988,-0.0162763403000219,-0.00806778674840542,0.00551138706928285
-0.0040923284338691,-0.0140195133855917,-0.00834555564545137,0.00222696424914569
-0.00640472169364205,-0.00869010071564889,-0.00919326722330355,-0.00175632754940409
-0.00830755451288094,-0.00388600270991984,-0.00830816168227825,-0.00479086943968721
-0.0110761444346442,-0.00428628511623728,-0.00758094730312827,-0.00674358980257941
-0.0115929121364224,-0.0106544122382669,-0.00703047985451681,-0.0074017246463652
-0.00719909610499987,-0.0184838285305057,-0.0054415814173679,-0.00597664556097064
-0.00238514763001181,-0.0272616097320282,-0.00411419888173993,-0.00273658514171184
0.000410167355689373,-0.0353323633463505,-0.00286396081737834,0.000514267567350549
0.00286075008553595,-0.0379212602337301,-0.00261044668952766,0.00276525896616551
0.00377850313909167,-0.0360466855970643,-0.00343242509734277,0.0047681622560174
0.00360001886160521,-0.0328903630021547,-0.00381585395476177,0.00748706790474141
0.00429122844535809,-0.0281297633881692,-0.00376551978000408,0.0103970199140661
0.00626898922244319,-0.0232279394521086,-0.00241299887846066,0.0117004223971704
0.00870848652923569,-0.0200735274168957,-0.000951528209538808,0.0106273457783783
0.0104817453355335,-0.0158358620168927,-0.00118369315892535,0.00800478252163823
0.0115949515466141,-0.00893257445381594,-0.00215254467630445,0.00423223807794829
0.0107428143100549,0.000141258610409985,-0.00210345894611168,-0.00111069075695491
0.00667844033937049,0.00906762768039315,-0.00147618014100692,-0.00743996515409622
0.00202789963351294,0.0141096704657813,-0.00170965849746832,-0.0129325229161343
-0.000920533083090957,0.0152009615832783,-0.00425626981927131,-0.0155179922412483
-0.00352970382030829,0.0144919557946943,-0.00957508052644752,-0.0144640622414458
-0.00467803709248987,0.0153803392463965,-0.0133431598391286,-0.0109142701943798
-0.00247597296215849,0.0175170690029969,-0.0121008779315681,-0.00590536416620659
0.00162935201511479,0.015229938745988,-0.00985513098754217,-0.000158754037867867
0.0079033080224878,0.00799907669757101,-0.00976884666998987,0.00509948099028014
0.0150440251685596,0.00276073352547322,-0.0105909420507156,0.00835444009066949
0.0186962771273467,-0.000219499237957943,-0.0109764685403284,0.00921394775482296
0.0184622335918749,-0.00555895183027646,-0.00915674376159812,0.00967196070595694
0.0158200204435569,-0.00874675556876813,-0.0063285845726383,0.0118320766242177
0.0103072030374267,-0.00982128443322429,-0.00392201251882465,0.0155032218426403
0.00318905408947104,-0.0124165646441249,-0.00151028154353313,0.0188204647716403
0.000220844125490605,-0.0121325321266404,-0.000450384344804418,0.0193448837796183
0.00294263448403643,-0.00789445964935785,0.000569832250856345,0.0150197792583758
0.00434934849083653,-0.00131730772604548,0.00508520874818728,0.0069928013868906
0.00218112741154286,0.00498610859838219,0.00998153025588315,-9.38018865698879e-05
-0.00148282104668498,0.00478564719761273,0.0103732697703865,-0.00378498745203666
-0.00552529443216276,0.00248373504298704,0.00882017495308393,-0.00605877443103839
-0.00421068834613822,0.0101868075889023,0.00720832576117993,-0.00933476918058955
0.00455339061220039,0.0244853849317635,0.00458148670470663,-0.0136504823647993
0.0137344601770428,0.0319440822546684,0.00255693358647754,-0.0159720093096806
0.0154879185230658,0.0287352316401016,0.000447967635547273,-0.0131424534882854
0.0111225852160358,0.0204339124403758,-0.0011886462447609,-0.00675695867940896
0.00783606059416458,0.0146459969654597,0.000659953052969394,-0.00136928622944882
0.00685046763539655,0.0131905388019931,0.00272494219486153,0.00168490367764449
0.00829780126405488,0.013961518837331,0.00216165229027862,0.00432843496652965
0.0114660508974557,0.0158170721920764,0.00127515528922979,0.00694644905317059
0.0114081178725179,0.0174533092490416,0.000773717430755336,0.00788340097524898
0.00767333724649807,0.019004496122792,0.000436198589814163,0.00680456141782866
0.00408426521104645,0.0158225001307303,0.00207969097873092,0.00575061674855811
0.00204942620941164,0.00219255950258683,0.00480852092874608,0.00625102776982212
0.000538449239515324,-0.0112451350019865,0.00506722878640197,0.00730010257022547
-0.000192786117570495,-0.0113927023923514,0.00538590167603378,0.00735289946359281
0.00109600098112919,-0.00452557456526576,0.00811063957245385,0.00584390154351978
0.0022925767116393,-0.000654593635665951,0.00974439875924499,0.0029169989048165
0.00203308252972979,0.0017828573876487,0.00954374059464221,-0.000614261393965018
0.00275682633262251,0.0055721654855604,0.0074993866152312,-0.00361142736321149
0.00176042775320822,0.00691419897661116,0.00355819169142549,-0.00525719748775879
-0.0040695152520891,0.00689739046998767,0.00207393177151304,-0.00561936731620696
-0.00692728297088366,0.0123978207115302,0.00462542700440358,-0.00531807306937784
-0.00352597422590611,0.0212819498095496,0.00651810071003728,-0.00491382426601179
-0.00210392985200818,0.0262347427342826,0.00689274668527275,-0.00486303351064185
-0.00406403850078569,0.0276774888692796,0.00959622484638832,-0.00496617772868165
-0.00458847513900481,0.0279857906783391,0.0137959603147064,-0.00415724363545284
-0.00166121601510578,0.0266264020468444,0.0162216135130364,-0.00197461813475856
0.00340387404149181,0.0260737759903951,0.0169862428027329,0.000420348735675371
0.00813843401142763,0.0263438613942596,0.0154952245355839,0.00156379552389381
0.0108477601843657,0.0233179993709389,0.0120885520543756,0.00132809543085726
0.00930660346796492,0.0146262036290953,0.00995975103147295,0.000683008649249925
0.00784176688209767,0.000202269157296556,0.00957635721052034,7.58032729496845e-06
0.0123384380119703,-0.0105597803397591,0.0104946919363272,-0.00138648946328958
0.015657263600193,-0.00545382869897134,0.0115706730446034,-0.00326394470521953
0.00932262919639054,0.00533268812459768,0.0115847187993821,-0.0040305199293269
-2.1769111841187e-05,0.004737841648849,0.0102308261142427,-0.00299282836347803
-0.000754288254082684,-0.0113236002867956,0.00500761109744241,-0.00112875221640585
0.00640473890244102,-0.0335437722508338,-0.00162197945454381,3.51631030368967e-05
0.0110156345914541,-0.038454166387764,-0.00485079837704807,-0.000175096099156163
0.00705630553768001,-0.0213291710749169,-0.00548533896042261,-0.000718462494240161
0.000217862816348585,-0.00119856641500564,-0.00272087553125274,-8.8212614759441e-05
-0.001116848942124,0.0106947730767811,0.00206305645879142,0.00171428420800847
-0.000993977976799698,0.015804638003287,0.00508870953111695,0.00334975080678924
-0.00687545196784245,0.0197287553740788,0.00668687897253569,0.00375696151168207
-0.0160539770528208,0.0231462795365734,0.00670086883078701,0.0031057331425497
-0.0244382690732898,0.0197058924728283,0.00458107457899821,0.00218776394605023
-0.0313227109537345,0.0095200243034678,0.00126359594855936,0.00140032719170357
-0.0337589427705542,0.0012829062146207,-0.00116821118667509,0.000713956836150243
-0.0286030916376626,-0.00301599357757616,-0.00163150498622391,-0.00067539646401695
-0.018075979096488,-0.0063951392700326,-0.00142193798254333,-0.00379177344330465
-0.00503608469976344,-0.0058834464633487,-0.00192263491612114,-0.00755893380966083
0.00728255265032909,-0.00139725079275491,-0.00317294295245594,-0.00938939685305325
0.0129725899683738,-0.000852480975944789,-0.00269414846603228,-0.00820761763212996
0.0126485976026234,-0.00583594820553017,0.000159788909667813,-0.00505761372494787
0.0105469841703042,-0.0104683986472978,0.00180858602358146,-0.00152963086920178
0.00658124066984614,-0.0121859987874811,0.0030407524930088,0.0015532451198502
-0.00166489660224096,-0.0145306643745081,0.00613138826714063,0.0039687100599569
-0.0127966544841055,-0.0220439716693671,0.00569797629387654,0.00505001732594081
-0.0178019144361885,-0.0322344256272952,0.00066988777476565,0.00450291705112365
-0.0128906683004498,-0.0398341761499423,-0.00146114395877759,0.00348608101693604
-0.00701278442177448,-0.044853358809456,-0.00118917491482209,0.00325332225215372
-0.00765494932292823,-0.0502767258958338,-0.00480548351645628,0.00485527508526058
-0.0101998319783484,-0.048620734963548,-0.00903269190677481,0.00879007391118606
-0.00988120649343114,-0.0296450224214144,-0.00677808767131132,0.0122776614166826
-0.00868890448054864,-0.00670498174688894,0.000494745373353811,0.0109407790395491
-0.00787246569425694,-0.00136179399835627,0.00622006095868274,0.00422828176271843
-0.0106525015823452,-0.0148345666216168,0.00488652600201295,-0.00452127000827416
-0.0163484806159363,-0.0269610449546812,-0.000281356327208033,-0.0116763445331123
-0.0196044935497454,-0.0201163395124666,-0.0014963434772897,-0.0151350953697611
-0.0207344582156952,-0.00540501787998625,-0.000334206090029546,-0.0147168073482004
-0.0197825349370025,-0.00143012234218627,0.000266495337714802,-0.0115312895894553
-0.0153299939568361,-0.00737695397632676,0.000628098734025739,-0.00690200474497572
-0.0104237718342857,-0.0141353628529069,0.000231797149845198,-0.0019593595163077
-0.00605283059319788,-0.0139573779057014,0.00112032739155627,0.00251849100201829
-0.00107862579889669,-0.00709215867308055,0.00316512944420908,0.00639983132136903
0.00224194328975989,-0.0015764962058866,0.00247364063664488,0.0100612908288087
0.00481643953958117,0.000729956342590936,-0.000440237357871055,0.0127664844925057
0.00820859046808901,0.00594817259971591,-0.00138152280480259,0.0119520408287258
0.0094798634569016,0.0112368572051786,3.97830556791365e-05,0.00723345361198618
0.00866902011360417,0.00554719556147114,0.00128352906676789,0.00305808183010831
0.00621033193630401,-0.00797290668670965,0.00133768776551842,0.00291048834347432
0.00113148857134449,-0.0109457009464973,-0.00104824563300255,0.00402827977578844
-0.00205027415872568,0.0064483021200153,-0.00407113217171538,0.00192150692798004
-0.0014079397832885,0.0281932261740156,-0.0040275235338468,-0.00389143703437813
-0.000779388211235058,0.0322994833542382,-0.00258572906162555,-0.0109840689816797
-0.00331030321160507,0.0177499610086197,-0.00135463247467551,-0.0158587809145164
-0.00995943583661277,0.000633490336451707,-0.000447028707442723,-0.0148780875899637
-0.015970216853363,-0.00959324359324546,8.70661643040723e-05,-0.00839943000768739
-0.0162017819025917,-0.0207050107903804,2.59633700920494e-06,-0.00128169217637231
-0.0112747132937124,-0.0366809093831638,-0.00180748554276715,0.00276789519512962
-0.00232775621808435,-0.0468125253103045,-0.00335809856210482,0.00375880575060134
0.00619737301517092,-0.0406044332588243,-0.00250992192904552,0.00346778235673644
0.00728962841780169,-0.0200355354756026,-0.000930564115005552,0.00351700780270698
0.00393821898394313,0.000342885956412547,-0.00140468812296048,0.0045541930279859
0.00341725839188529,0.010937119094409,-0.00287044772250961,0.00586968609168403
0.00578451898149572,0.0142373504035902,-0.00305110300092519,0.00576670415291523
0.00675122898164771,0.0125361249313132,-0.00357931935619327,0.00362279412645258
0.00648889438857903,0.00812960758565963,-0.00458114826277448,0.000668174693102441
0.00794891721847779,0.00775936892849584,-0.00301514776075862,-0.00163686664313909
0.00615778057873682,0.013055395090856,-0.000410548365585516,-0.00262985412736389
-0.00260345439020635,0.0162726784329142,-0.000712756247651912,-0.00225402090962631
-0.00851637960394199,0.0158293107975903,-0.00224632545717683,-0.000703837078754008
-0.00339430071655704,0.0160839465074262,-0.0017579267003618,0.00136506658823044
0.00555076933331295,0.0165653171319141,-0.000338811299864845,0.00262787879619582
0.00885740532573178,0.0160709155537113,0.000206091399220462,0.00190414193330128
0.00720941810450391,0.0133153201256315,8.18134857887443e-06,-0.000587622518832509
0.00596975545030136,0.00776621829460682,-0.000340842569582819,-0.00350472645703835
0.00437605057328829,0.00155213590998953,-0.00169553116989475,-0.00553029751236438
0.000308955115551145,-0.00359021183812834,-0.00403563942062848,-0.00626787168612083
-0.00309540836153596,-0.0111991702859617,-0.00400463798668424,-0.00608749326875564
-0.00601752012463227,-0.0223742539813944,-0.00205331220695202,-0.00485705244402819
-0.0116032235226942,-0.0305803299049605,-0.00159820068072151,-0.00234875362055245
-0.0192327492723833,-0.0311441895262303,-0.00288429774367886,0.000734470591424
-0.0218356938980377,-0.024692320484623,-0.00379110361294775,0.00313802509969624
-0.0166439334621291,-0.0167261946474143,-0.00267232368549873,0.0042264259454913
-0.0110244698474963,-0.0108962032276659,-0.0010181659649637,0.00482664466997144
-0.00829599241467612,-0.00428971815755065,0.00109470942759431,0.00606002768676272
-0.00529213736357669,0.00440765960550347,0.00360422553821004,0.00765233617470338
0.000240481290344007,0.0109582953084949,0.00290291883865019,0.0080769634337257
0.00671882364495172,0.013450511250044,0.00115294646293125,0.00619201493379756
0.00971084436928897,0.01452282291614,0.00208327163174115,0.00233710886067036
0.00974445650718031,0.0191613615039387,0.00414384364985578,-0.00175397090997891
0.0115859976318232,0.0253281162714116,0.00652976254028,-0.00396545563707789
0.0112024289502642,0.022668371169797,0.0070778231514749,-0.00369865745017578
0.00555952984503083,0.00953389747716574,0.00374262099639968,-0.00173098266340295
0.00211021895694137,-0.00436354171631301,-0.000330505240706896,0.000989936932727868
0.00413631216992242,-0.00894537065936866,-0.001004581420961,0.00290971200016642
0.00649877427474853,-0.00873430619682361,-0.00042725704976664,0.00254365377316079
0.00442372129378787,-0.0163235384055722,-0.00221697462906173,0.00051363306926798
-0.000701359774781999,-0.0279681780714759,-0.00384433610820476,-0.000412386507434663
-0.00632614406888393,-0.0374097543865421,-0.00436430617892678,0.00134282488614086
-0.0115035074658126,-0.0420679472304204,-0.00501056947752548,0.00358940634135106
-0.0152930870594577,-0.0326564270774943,-0.00423760951688916,0.003478628060095
-0.0173040257559146,-0.0143588515740938,-0.00254092157165195,0.000880240332232237
-0.0166809754311983,-0.00246585805740038,-0.00200222157133046,-0.00290597012021521
-0.0111785467047647,-0.000410154779030364,-0.00388045622503572,-0.00677492058286328
0.000165403888166528,-0.00123701589172288,-0.00680032018900958,-0.00940120207648477
0.0140535835262834,-0.00217169103668711,-0.00715198046584294,-0.00912275103825027
0.0243212473312361,-0.00313268445663002,-0.00586721978074099,-0.0055360552896056
0.0245326484749919,0.000988352867276785,-0.00513028165441548,-0.000371641653543154
0.0169256571572098,0.00582569161841023,-0.00411405512185327,0.00370947498426539
0.0109156453109568,0.00376897475229121,-0.00204277564943587,0.00526975894528928
0.00755800091206803,-0.000687707928007084,-2.60918547101679e-05,0.00497930966005853
0.00453256820828661,-0.0024517783354301,0.000433038197326962,0.00426294023562215
0.00375429227669695,-0.00193203148393309,0.000443766247420894,0.00366914996966225
0.00259638002750662,0.00217056064132712,0.000465822461857484,0.00268979468853164
-0.00205354742156143,0.0110714159704148,-0.00148512014369835,0.00101050135142398
-0.00937377947170634,0.0202535779067333,-0.00583496224330465,-0.00105767196226948
-0.0164071322621605,0.0256082120824272,-0.00933899768159649,-0.00286896469202263
-0.0174473655011075,0.0272971228730951,-0.00902088227213729,-0.00382635217644924
-0.0106142081456552,0.0236394915974403,-0.00737528951565805,-0.00473591330151898
-0.00171942601340518,0.0165483153711267,-0.00760507576932465,-0.00686099916672006
0.00267274099208373,0.0102027542586209,-0.00857910171933233,-0.00849626827092433
0.00214686601239902,0.0014930705438849,-0.0090804809247336,-0.00632101847692839
0.00028313917679155,-0.0107037470283137,-0.00875056461919777,-0.00107841867929496
-0.00144235369702466,-0.0200215428428033,-0.00758793195773189,0.00300710157388835
-0.00304390586800887,-0.0193372467268594,-0.00712183080467403,0.00376346251860456
-0.00312985108397575,-0.00943609226978838,-0.00784000238323599,0.00198070103202944
-0.00172319044542242,-0.000751162736911041,-0.00783743894353035,-0.000673736943710351
-0.00129849307006719,0.000804596816391054,-0.00640013005633882,-0.00268066620887897
-0.00436886562366634,-0.004315039441061,-0.00587314868504042,-0.00311675761940968
-0.0104728619511873,-0.0154552176829944,-0.00740687555749176,-0.00214504931106354
-0.0153786152061493,-0.0221724301951109,-0.00891425313450847,-0.000669260165028979
-0.0144481361494292,-0.0107369082820839,-0.00772943691650202,0.000632912750810821
-0.00751987257784572,0.0122764505555206,-0.00461584596427382,0.00132996400705601
1.87009223919996e-05,0.0302139657615781,-0.00217401216453393,0.00105249485583721
0.00432543488804507,0.0376783584699208,-0.00156317198962292,4.59760467100478e-05
0.00784530872975354,0.0348845574429583,-0.00192869359258438,-0.000745366848871524
0.00909298123710622,0.0229293697910682,-0.00321609580774915,-0.000795889742347845
0.00358805928617905,0.00999619971530916,-0.00585441036239704,-0.000536259594695492
-0.00695120344777363,0.00874325490125183,-0.00631998220902933,-0.000612171198501761
-0.0164400975611237,0.0185443560228481,-0.00200816811719821,-0.00116897976054505
-0.0196164707811208,0.0247501608204308,0.00423814727961571,-0.0017062154930201
-0.0196464938256238,0.0203593159323174,0.0077331501516118,-0.00171188256608831
-0.019149482946634,0.0105157263747506,0.00708473666278627,-0.00119589247326581
-0.0143541372161163,0.000353374443364795,0.00433327039588994,-0.000676062046648114
-0.00826821464352273,-0.00552778049139114,0.00255990405896987,-0.000508912965263276
-0.00564289498424262,-0.00559555392842734,0.00238775640495809,-0.000164746284584125
-0.00543125852986499,-0.00316452233453493,0.00294288460081518,0.000459565130394828
-0.00635698903923402,0.000281257350161407,0.00275676125388472,0.000654524700707186
-0.00722152444820342,0.0028963544697621,0.00149454618135057,0.000791011198078184
-0.00774783664335125,0.00407541412431908,0.00129503701589229,0.00189159749273015
-0.00854988714676709,0.00399912144351044,0.00116023699192734,0.00366289240418627
-0.00911760990122368,0.00249723408380684,0.000655850495675101,0.00524975072747783
-0.01019626115912,0.00209415906431319,0.000875355166600073,0.00663357319402577
-0.0121776847612274,0.00207202054227508,0.00150979800469399,0.00750088331539249
-0.012160228194576,-0.000113833634638415,0.00221171418784357,0.00698566361792723
-0.00817997414778164,-0.00160565640550927,0.00330895767445726,0.00466713683208765
-0.000469343584283551,0.000872558849183622,0.00443456083754896,0.000298405299919414
0.0063519146476902,0.00524691990594002,0.00435817231733906,-0.0052366821697619
0.00860421837775345,0.0103615057350719,0.00454326678655623,-0.00951092588382152
0.0100668741242435,0.0182075036925525,0.00579700110305631,-0.0107885465956242
0.0119116439469127,0.0219922916953899,0.0063986741869368,-0.00924367792412261
0.012062006623763,0.0164568420007182,0.00457624830493539,-0.00605124543268881
0.0112585550648629,0.00875773644904307,0.00139636274355273,-0.00265331522983048
0.0102295565065485,0.00281756174507317,1.84937530163104e-05,-0.000314435933015398
0.00947659851574169,0.000799565848050229,0.00173300048572775,0.000823123986017174
0.00963171425116393,0.00384109069844248,0.00533476072663582,0.00173117576054511
0.0131928965162391,0.00387291566406989,0.00693492689191029,0.00323917843438479
0.021210475778911,-0.00163402180318827,0.00647753412088207,0.00479498337414885
0.0239695201129145,-0.00709724271184867,0.00614366164513268,0.00536911088869358
0.0109253126831992,-0.0172814056093587,0.00229382689574242,0.0048163155505789
-0.0110440555609714,-0.0352045754213455,-0.00324171811695963,0.00336517231115861
-0.0237598544379769,-0.0485150035766953,-0.00308567803039453,0.00165983908555131
-0.021863896152025,-0.0444107170818064,0.00036284937374532,0.000913004157165128
-0.0140777242354077,-0.0206262359046704,0.00236967954714379,0.00221682578382935
-0.00627750339135017,0.00347453863537447,0.0034918633999426,0.00529537095156723
-0.000114981983519578,0.00693137318191608,0.0025429496023625,0.00760807711946835
0.00609740518425975,0.000931737311299842,-0.00231193009603935,0.00667005225524368
0.0155397091819594,0.00432889816980057,-0.00690501940221581,0.00269665214500255
0.0243096513303425,0.0159261789798494,-0.00548874095600448,-0.00218409167442648
0.0269236093384061,0.0238632442726406,-0.000324302048806697,-0.00594441942911569
0.0208805344073764,0.0208723529110687,0.00237357689110396,-0.00749201050817533
0.00885726274956867,0.0127284052653503,0.000281386366987635,-0.00704523919403527
0.000366073104370249,0.00620813101880126,-0.00614191979822176,-0.0069944015541651
-0.000442005148977797,-0.00293482513058753,-0.0135557356780618,-0.0103771433766006
0.001817535944848,-0.014661243692061,-0.0163154046064986,-0.0154170778279861
0.00196403780427704,-0.020710703595751,-0.013519400777613,-0.0157872929361999
0.00132988944118479,-0.016405308887438,-0.0104977285526461,-0.00925697666044147
0.0039717875396697,-0.00601527795843822,-0.00834016101921959,-4.95693586711511e-05
0.009035441813603,0.00324330545408192,-0.00542637853462329,0.00720738307037136
0.0113820607654917,0.0103695722854114,-0.00473793594265412,0.0109580195629214
0.00944034464968657,0.0124718391624293,-0.00655845450588281,0.0116882346010092
0.00792538734455326,0.00817994071260229,-0.00717272136746362,0.0109958589513094
0.00736252113134617,0.00236313807299836,-0.00557753824461593,0.0111558312161693
0.0061721806184897,-0.00127943848212483,-0.00407330971724874,0.0120656914871433
0.00452028525301376,-0.00376519406988552,-0.00306867402897538,0.00962837107161543
0.00124665705725778,-0.00895756476372398,-0.00268836250150403,0.00175462265191627
-0.00381414448927087,-0.0138431163479548,-0.00304446428319298,-0.00728649991041162
-0.0105913995762034,-0.0155159705193342,-0.00319907762452586,-0.0123780177993211
-0.0154963470075051,-0.016027451838701,-0.00368068042668457,-0.0124465054711632
-0.0127300279383933,-0.0148160464285844,-0.00330669255848102,-0.00927156591243167
-0.00554836220066907,-0.0137875836955366,-0.00341146128949252,-0.00585623477338607
-0.00126068756339938,-0.0168244824601129,-0.00711308506210325,-0.00416613370037797
-0.00137151101060941,-0.0203735447645567,-0.00940622904200345,-0.00376863548797187
-0.00551391757218215,-0.0190382156843512,-0.00684883326032211,-0.00356623995515532
-0.00973703892750195,-0.0153141222627491,-0.00461178581869294,-0.0029930310430143
-0.00930910601109948,-0.0103904457797507,-0.00336501463684696,-0.00186407379439243
-0.00543251564541553,-0.00183066092446339,-0.00056554264133928,0.000119666988156994
-0.00272799183424085,0.0076000294556282,0.000857570338185918,0.00235941449205631
-0.00227861744264963,0.0116056089023565,6.31520805509647e-05,0.00277997410214288
0.000396770097606342,0.00917060272573485,0.000252022326552455,0.000377977300383947
0.00315828373333388,0.00518113293562509,0.000538225236470536,-0.0027841942835997
0.00166556649836359,0.00383701229897166,0.00016436357231244,-0.00306322277330219
0.000858560667171112,0.00488665142808238,0.000990269552140459,0.00125489021275516
0.00226827387273367,0.00425872079551016,0.00202496182472454,0.00773912565724266
-0.000117813281454135,0.00200557276289332,0.00242120962762717,0.0118068661951497
-0.0037377812253095,0.00278632865738636,0.00297372826160106,0.0105602283093335
-0.000942450535400756,0.00572857151959645,0.00369305728230776,0.00466109450781656
0.00473416980409736,0.00539109213163692,0.00342856221246131,-0.00163831764622896
0.00685668790137342,0.00175777146345519,0.00248050816913217,-0.00369139388441976
0.00545964131829848,-0.00190309941495463,0.002445609886021,-0.00114915223955946
0.00192208565881264,-0.00355733204533338,0.00386358422220121,0.00229966009313811
-0.00123243489001519,-0.00478384213763643,0.00629633229859832,0.00352006714388263
-0.00090647089186713,-0.00802054344264945,0.00812315541953786,0.00230496123402124
0.00171233696096255,-0.0137652980031197,0.00815151657248092,0.000135948179674707
0.00184927416887873,-0.0211078170114087,0.00757815163583261,-0.00208313888661938
0.00010492449401453,-0.0227713634342608,0.0086915803937749,-0.00380726144457124
0.00164961468428379,-0.0153212329296911,0.00983008139001623,-0.00338697366409411
0.00451622264662737,-0.00547963404815316,0.0091428639847104,-0.000321329205269757
0.00175373569407197,0.000774699833090763,0.0084902978944537,0.00330329104328529
-0.00389436774067301,0.00109980848189348,0.00926026590072635,0.00565556758856956
-0.00570460887933561,-0.00325999567273921,0.0111242893884017,0.00655116211218901
-0.00626902679535067,-0.00318927415143012,0.0119519261699112,0.00619273564910091
-0.0104924566917504,0.00745331095655405,0.0108807258249376,0.00551205376931602
-0.0173793290776182,0.0163214482457528,0.0106290371103675,0.00588568548254126
-0.0186714058310497,0.0094342441151542,0.0106844280757709,0.00677467238233085
-0.0109109067767537,-0.00480808103991436,0.00846943291067982,0.00656201952523486
0.000122994595913282,-0.00819948690052694,0.00657098163352936,0.00468297260812902
0.00783256214338294,0.00104376553536801,0.00587049796944742,0.00127838493690176
0.010530408870074,0.00924675343109064,0.00513382763101735,-0.00301567055030681
0.0126464423423901,0.00892891547731334,0.00493649698213907,-0.00573270760321996
0.0161039308253954,0.00408609925617168,0.00428731896507564,-0.00360558540567563
0.0158684412470114,-0.00220706402584201,0.00298166478820834,0.00271394899629751
0.00912439132352409,-0.00825255957953924,0.0032294384626862,0.00862043778401512
0.00212819985635913,-0.0119582424388554,0.0048780602697817,0.011275493923798
-0.00211744324170342,-0.0137535624960509,0.00517654705969311,0.0111624794377385
-0.00588887380551657,-0.0114300278066712,0.0048805670712788,0.0091057958796342
-0.00769856828454395,-0.00434119991736088,0.00646854294740047,0.00473962079288863
-0.00534475107079123,0.000237646898361601,0.00861838081343678,-0.00174089206025251
0.000279289760297922,-0.000993689220342469,0.00753774932040423,-0.00795425356100343
0.00424060262463756,-0.00244834474791218,0.0043415850381876,-0.0112006090260848
0.00429318354293744,0.00254229526425293,0.00444284231049975,-0.0109449515136552
0.00339287814889457,0.0120608376851432,0.00612781478925687,-0.00860518995623294
0.00205107621075076,0.0159085449636779,0.00399824722366304,-0.00581634654567985
0.00207680400219364,0.0145254325210673,-0.000376667174772334,-0.00370175803966939
0.00539002767975039,0.0187309524069789,-0.0021371086221072,-0.00270080166450746
0.0076930066967782,0.0274355938350201,0.000246550536012379,-0.00230709371531118
0.0066426655426683,0.0302557238645833,0.00317114193629766,-0.0018449046989574
0.00474479248581847,0.0252163268272483,0.00480375751414559,-0.00122013676979399
0.00518852182653676,0.0179798378718139,0.00626651156283474,-0.000555131935245767
0.00920750720716254,0.0145870380418695,0.00625682525951597,5.29423094500206e-05
0.0128833424378378,0.0157735230990974,0.00529289879992159,0.000481761347606634
0.0136059209527312,0.0168221881399191,0.00477162562144522,0.000388393393909778
0.0130079697008547,0.0162428316165389,0.00476493581748775,-0.000337288292390691
0.0128373940124177,0.014189305962454,0.004019114512988,-0.00125093975593693
0.0121777622720473,0.00863683093083514,0.00224905259016313,-0.00209373150865221
0.00773636813347966,-0.000559011774453187,0.00157190387080305,-0.00282576793655377
0.000693836412965708,-0.0105562668234931,0.00148725572134862,-0.00323395532284789
-0.00541186525809343,-0.0174896395236518,0.000430440791024849,-0.00311414175949193
-0.00701348300834361,-0.0186955055735881,0.000514429337683419,-0.00257635002226225
-0.00290969331569455,-0.0106998833947644,0.00189119884224737,-0.00180133012959768
0.00245157028656742,0.00511464111952685,0.00147438075659954,-0.000974817755760076
0.0042727753568519,0.0172942026711199,0.000244439458351111,-0.000482439334856821
0.000323635012972899,0.0204919623777993,-0.000758065663806514,-0.000557547501691206
-0.00359220616663186,0.0192735702554332,-0.00103331571196627,-0.00110960403830238
0.000430035453852213,0.0162653127204341,-0.000208045643419187,-0.00199835204735193
0.00930573477274057,0.015398680845605,0.00151403944803282,-0.00291406110759074
0.0155992792929308,0.0217098452929619,0.00462516087904977,-0.00336963149416984
0.0154516172876499,0.0299139097210956,0.00634824325494504,-0.0034086771874246
0.0102005816104256,0.0300615380016534,0.00548983084299377,-0.00376905442920837
0.00484498604747497,0.0205845529375277,0.00324843572847635,-0.00466606100751841
0.000315873445844766,0.00384492010947831,-0.000550788394598356,-0.00509737026917451
-0.0035337135709278,-0.0164039657293371,-0.00512402131629561,-0.00454596006016842
-0.00317081430860783,-0.029671138322051,-0.00757828081527135,-0.00360702563245005
0.00179102472851503,-0.0288878451083465,-0.00657765770370405,-0.00255955926263515
0.00325341731565342,-0.0179244658698152,-0.00484894311914317,-0.00129428743696899
-0.0038627293904017,-0.00236909238090147,-0.00342111537271326,0.000246704433386589
-0.0111906875070145,0.0100600996915601,-0.00101390664169095,0.00222269401940744
-0.0112249118388949,0.0129774847498892,0.00118563494188732,0.00436955558277788
-0.00480576728778953,0.0119797257024457,0.00306099213492016,0.00588281187749054
0.00250746274642214,0.0159628974604983,0.00614446662273997,0.00633325697938694
0.003695426100137,0.0241137317300904,0.00829821875325112,0.00563604057797204
-0.000258552450873489,0.0273518729325808,0.00780108999751983,0.00409464228786375
-0.00237037475559282,0.0213553553307423,0.00668597806632649,0.00265454503635515
-0.0021678097113174,0.0131746201322486,0.00639953933834616,0.00195529448328126
-0.00417613422643055,0.00740514291305102,0.00558703042237848,0.00175040468156559
-0.00601233721418848,0.000710035640505971,0.00307775162384497,0.00160887614222404
-0.0046058092556426,-0.00908677000496553,0.0014467733575196,0.00130156508393498
-0.00206744406456167,-0.017514778575147,0.00144878078075614,0.000509711624020383
0.00063586001288049,-0.0174583905743388,0.000389899427777706,-0.000729311021155261
0.0024363611948918,-0.0118030285368686,-0.00251490040807552,-0.0019557723066507
0.00288723192719396,-0.00970799923871909,-0.00752032366226897,-0.00300687874689723
0.00330616646960301,-0.0173836764504952,-0.012558769349406,-0.00366192769195982
0.00471880926782119,-0.0293377044451657,-0.0132033520929278,-0.00370410607124657
0.00908404543318002,-0.0279647891565612,-0.00953309546910554,-0.00321686385893492
0.0123927146686233,-0.00978618418804558,-0.00495945311671484,-0.00227693004119834
0.00955893682171418,0.00740141886698487,-0.00110512462591778,-0.000983721094243628
0.00649723171919378,0.0132412578068594,0.00306765354446933,0.000666807973463814
0.00548657694658646,0.0168827795323211,0.00610171046629725,0.0024441606175574
0.00298297499630223,0.0246615916281696,0.00581655166634338,0.00382097953448473
0.00097983765211279,0.0265415451809367,0.00548167160908377,0.00440627994968117
0.000666100680556281,0.0170987232012949,0.00611443023290249,0.00426766711100815
-0.000535804037529272,0.0118261371474982,0.00589005804625765,0.00386918029341925
-0.00101685710075957,0.0218129204793262,0.00636866507882199,0.00361537346668732
0.003136735356367,0.0312012539803274,0.00832726480808683,0.00361025521863453
0.00707929529163291,0.0165730281102404,0.0071304920872888,0.00352685671980242
0.00215007611800065,-0.0227836099881525,-0.000505081723307434,0.00288542903860559
-0.00402928109255894,-0.0524613971460464,-0.00739721950913214,0.00143726185285186
0.00298806893622244,-0.0452858832832763,-0.00545846107064999,-0.00066464546815921
0.0164634611777245,-0.0221880381832836,0.00180330572328507,-0.00283241361199255
0.0185709117612177,-0.00789540937318409,0.00534916654831365,-0.0044000616457328
0.00736924262488526,-0.00258258367189046,0.00432372133134946,-0.00481915349520138
-0.00630840701327626,-0.00132009253921656,0.00333908391898407,-0.00408158231153805
-0.01802510608196,-0.00263611409558455,0.000920593356521887,-0.00292332837620812
-0.0282176554857049,-0.0122093964750429,-0.00409474842131198,-0.00221072957201613
-0.0351928090297272,-0.032506683928465,-0.00693563773418734,-0.00237290101191604
-0.0383433272187635,-0.0525209626579562,-0.00676348277492647,-0.00273735194746837
-0.034428939421802,-0.0562819984542388,-0.00732248457982364,-0.00229929478750993
-0.0156185497284669,-0.0357113559603697,-0.00743417753221753,-0.00105213686093253
0.0149034216781495,-0.00148949261824224,-0.00691295886494348,0.000361550582821411
0.0371808875129473,0.0264509104352732,-0.00863716524412617,0.0012250439066738
0.0387971554994637,0.040654591674313,-0.00986725498096158,0.00114018433834891
0.0262495413239761,0.0423487395983773,-0.00976258836931706,0.000632052135933646
0.00930536351516888,0.0321693374230234,-0.0112082027343198,0.000764434589804236
-0.00521277655539322,0.0149325074608596,-0.0117684958150796,0.00186950285378015
-0.0123973391560294,-0.000261764536322359,-0.00961149864857591,0.00346252965874291
-0.00970502981652339,-0.00896659060726198,-0.00788727496505981,0.00466386870111638
-0.000174248300033653,-0.013235590074188,-0.00671873613100438,0.00438394983454361
0.00513340364375735,-0.0145403247309335,-0.00432433034042868,0.00253858973372891
-0.00236347405910229,-0.0143877554160807,-0.00250095774297572,0.000350296494279825
-0.0178534439655324,-0.0166437032745846,-0.00305409132468586,-0.00097830337724385
-0.0320335324564119,-0.0243393467941613,-0.00420490070411672,-0.00165743393505495
-0.040472283170979,-0.032935591616874,-0.00424184906034199,-0.00313207212949998
-0.0383944972245654,-0.0342027804159769,-0.00467311288561744,-0.0046849508163758
-0.0263022265247353,-0.0293352366219499,-0.00630122676184595,-0.00345721712119837
-0.0118770218915251,-0.023897465410772,-0.00683120436067702,0.000385841912214449
-0.00156550593705984,-0.0178832522605612,-0.00598633712645579,0.00385698518052184
0.00201621191924086,-0.0100914304890387,-0.00576959981983397,0.00499023922922598
0.00198413006109656,-0.00227439305527302,-0.00708103335653818,0.00280970173184227
0.00213489233290613,0.00350802448944484,-0.00856884077191414,-0.00243307052906958
0.00187059983804924,0.00840826218287139,-0.00858779064166549,-0.00752814404786408
-0.000822094408483772,0.0142469004500982,-0.00752949220878418,-0.0086815497233748
-0.00583141880614688,0.017063856254887,-0.0063107192481018,-0.00539313153685312
-0.00871393567391645,0.0158794203619493,-0.0070396667372722,-7.36536446038199e-05
-0.00698801442956226,0.0145936500110947,-0.00916528495407088,0.00457606878202589
-0.00492124600357906,0.0134323467828571,-0.0107751527784894,0.00688401334412732
-0.00439548633462098,0.0120876925212014,-0.0119945093534552,0.00657669758169648
9.27664546365686e-05,0.0111324463275364,-0.0117164929925603,0.0046540471558724
0.00752220503847489,0.0103727458012658,-0.0106219333847505,0.00242135168166595
0.00919676932770705,0.00760072174965511,-0.00892303002727715,0.000673811052705049
0.00712399317937049,0.00312213398587263,-0.00628065052730809,-0.000340368202348788
0.00491437830996209,-0.000180229455889209,-0.00534280949468424,-0.000863415354747762
0.00104187016147567,-0.00258788681494138,-0.00578057604756904,-0.0014425610028856
-0.000449353925372894,-0.00341500274463719,-0.00484566426504522,-0.00246162918372786
0.00171102536708356,-0.00197324493277528,-0.0033857046524458,-0.00352895581161686
0.00380499099417105,-0.000724705726963187,-0.00212175312994459,-0.00343186273139022
0.00259630115255814,-0.000102648882288165,-0.000539092094846345,-0.00169425150073546
-0.00166097398870169,0.000717128680304558,-0.00033202279771314,0.000861980241671161
-0.00176426372549249,0.00191044234139441,-0.000967623259117065,0.00299075701901773
0.00548417584992888,0.00532098529998195,-0.00130367882058465,0.00403391097696359
0.0110522924461035,0.0117734137070722,-0.000473017348595201,0.00461409780756634
0.00904414912316369,0.0184105710194323,0.00221149557430475,0.0054392803338031
0.0058307521422283,0.0216948490809962,0.0039803830752683,0.00624838735837493
0.00661824896766883,0.0201445733864618,0.00343961440814152,0.00630308095099868
0.00962737844382441,0.0162018894663814,0.00181354836366476,0.00513636438492966
0.0117488473647621,0.0131506961653368,-0.000191709975229773,0.00269462576574515
0.0120983488813816,0.0114679727570946,-0.000511270543829615,-0.000685814116834861
0.010551520983591,0.0101085834291779,0.00107026685063141,-0.00421659200866223
0.00892843270961786,0.00588324512932376,-0.000851991279888705,-0.00723654831069805
0.00880377918424368,-0.00304773725506899,-0.006182095140394,-0.0102807307963252
0.0108264644854094,-0.011515761660957,-0.00863609098375827,-0.0135657915956179
0.0147027304992611,-0.0134021781535478,-0.00606736494219435,-0.0142311923734107
0.013825224343994,-0.0119130883003903,-0.00235195316115347,-0.00928702703448619
0.00766769228726863,-0.0121850188358313,-0.0011770005442781,-0.000210423982223689
0.00368876837505798,-0.0111805262685476,-0.000291889404076479,0.0080644835117423
0.00273394038883547,-0.00610663084028418,0.00103969006078494,0.0116377149745743
0.00347852881887097,0.00116258839122427,0.00318149427029579,0.0103035901459686
0.00712007821167155,0.00919534801959613,0.00770528217439794,0.0064235790063015
0.0104924604913697,0.0148353276236194,0.00941496181982001,0.00203128363034894
0.0126141560937046,0.0175037285864892,0.00672102072072683,-0.00268028655477388
0.0171640481578347,0.0203581760023004,0.00458853543174502,-0.00757390463422535
0.0228400639810343,0.023481753879225,0.00332616381118144,-0.0107369984073517
0.0236185133875034,0.0221446404648447,0.00210240665291528,-0.0101791543946721
0.0152432061368555,0.00587174203351339,-0.000851211380417561,-0.00563022373162554
0.00387590586903383,-0.0167047649591497,-0.00790033096111704,0.00076571039484406
-0.00138687862508795,-0.0162407426141783,-0.0138806588667703,0.00459707934338831
0.000508364271234543,0.0112232976788225,-0.0125510225196398,0.00416702633572297
0.00464762766899249,0.0352951365133409,-0.00741676611194921,0.00336705628549763
0.00344939710159583,0.0348150268676594,-0.00519161106833996,0.00617984330997896
-0.00193590837369955,0.0236345009035569,-0.00489519463238398,0.0108387842966403
-0.00363298911911822,0.0130352584362552,-0.00595078033009102,0.0105832687198056
-0.00332756717936169,-0.00348704208892999,-0.0100650652240389,0.00180383903376436
-0.00632450977624616,-0.0207850358232948,-0.01353605656406,-0.0088280957431424
-0.0101404965739417,-0.0306712651079029,-0.0121678039409719,-0.0115218660769607
-0.00941164193828899,-0.0348467363257625,-0.00695506695702826,-0.00620060909324365
-0.0034745435307372,-0.0334950626267503,-0.00400023154262314,-0.000768973592856196
0.00159731557294588,-0.0248514144258723,-0.00334551081500813,-0.000111662053440359
9.91691858235957e-05,-0.0133201136801523,-0.00131377315447009,-0.00258133443890609
-0.00393880085116461,-0.00386406282063615,0.00103411561482248,-0.00454688920405501
-0.00235224256532047,0.00461629737734,0.00276516007283389,-0.00437215594172551
0.00443014095599277,0.0116816315958246,0.00333335671182108,-0.00264402896701916
0.00867680324771657,0.0149817755588115,0.0036995798274426,-0.000519475659406193
0.00700490560981615,0.0151443719839795,0.00439072178657196,0.00129086221053998
0.0049333172620367,0.0138218920618013,0.00462692006297649,0.00239721644949266
0.00630807713766028,0.012150282734112,0.00413780140481531,0.00293104864302042
0.00626847697049684,0.0107456091603759,0.00348372007362391,0.00395854288745495
0.00179194214753714,0.00878811288054851,0.00372205506077144,0.00646054991580337
-0.00457032149263242,0.00541854859178123,0.00395672577947439,0.00962110917472871
-0.011124246867902,0.00146986059804302,0.00358013659256388,0.0116862423797749
-0.0158747499114194,-0.00200234151096644,0.00320514492810153,0.0114842114895706
-0.0171952467897174,-0.00414144630090282,0.00183632593200135,0.0088877116453058
-0.0152521021073307,-0.00553253627973926,-8.25531613254278e-05,0.00505640280472892
-0.0118386525719672,-0.00986567678729586,-0.000131378092010939,0.00146288113577493
-0.00869059086427458,-0.0178739230973145,0.00101580851408279,-0.00130422902930469
-0.00467530481494395,-0.0222564163557436,0.00226740835373858,-0.00359486036069735
-0.00322700236386792,-0.0197286051143926,0.00373961252804051,-0.00552519087274844
-0.00633286835547612,-0.0152486699292784,0.0050404663013241,-0.00599584295430552
-0.00677745157079373,-0.00961696926240625,0.00549888679859642,-0.00454066875744105
-0.00377867256192504,-0.00234403618227358,0.00537353975508862,-0.00327781962902251
-0.00346088720986213,0.00469361246261846,0.00706654197230935,-0.00365074634235831
-0.00700239936189942,0.00933726556457336,0.00956678195074749,-0.00372351314204739
-0.00791058484548532,0.00945706137363783,0.00952111702609771,-0.00135861255041403
-0.00202382682449999,0.00773392285835743,0.00850358036142595,0.002806479919491
0.00628150932375223,0.00711483048732383,0.0076019890157843,0.00660085168601219
0.0143959260503697,0.00526140225524116,0.00647780664373376,0.00831597920044389
0.0187240899440241,0.00212940695025564,0.0068491273454978,0.00707216557288543
0.0147233329149129,0.00143194218647686,0.00830820166599237,0.0040185808714306
0.007724274250059,0.00328812055280567,0.00910368568048199,0.00199414042581256
0.00309751716660371,0.00507845569512354,0.00965104757360199,0.00222131376700414
-0.00150621227453418,0.00224147247709814,0.00972490560099912,0.00391509999540582
-0.00593509994491827,-0.00832847061436874,0.0064439026607499,0.00612205183156454
-0.00965328897821807,-0.0212905928779973,0.00070460008129075,0.00794888377720671
-0.0112879974425273,-0.0269341790251188,-0.00431631117859931,0.00821596245366391
-0.00716097464206802,-0.0205358966391015,-0.0100695538517595,0.00547078300801273
-0.000195788874280333,-0.00975429231883841,-0.0149982640482255,-0.000601379531175209
0.00321111270891422,-0.00499607743757442,-0.0158838828914575,-0.00797553698006818
0.00336074333007378,-0.00357997753704064,-0.014544217837215,-0.0136588915997692
0.00456579082883592,0.00098219918499259,-0.011268817902542,-0.0155747415391866
0.00635592883541773,0.00898762164759257,-0.00699061156396734,-0.0138000751727272
0.00806176403548018,0.0166261126976788,-0.00456155915904989,-0.0100678164004009
0.0104890852789689,0.0208190083948673,-0.0022773419922481,-0.00592793670186947
0.013138944289893,0.0258908475838213,0.00240820643534934,-0.00205106081839222
0.015455140553801,0.039166199363816,0.00881570424668554,0.00111933970008329
0.0138265510548952,0.0578268141671833,0.0135109202243849,0.00345350542755491
0.00609573708640141,0.0667221464055888,0.0121770819809111,0.0055796884124867
-0.000141028815853438,0.055141629199189,0.00542600783606978,0.00734111218376785
-0.00108516518847042,0.0258308615572471,-0.00244094277757981,0.00742851677765883
0.000860978948039999,-0.00613035744194151,-0.00471125337547735,0.0051235316732855
0.00788274919921089,-0.0250693288418117,0.000426962891473713,0.00126492355218808
0.0164434372841954,-0.0328459533316603,0.00409058912901559,-0.00203800370938109
0.0165737922264139,-0.0405913974942239,0.00156294049180102,-0.00344629713299835
0.00368775196171646,-0.0554365640315696,-0.00454927741385152,-0.00373801873356043
-0.0144120294089668,-0.0731330493560053,-0.0090156677880791,-0.00407526350854601
-0.0229418144740339,-0.0762950574724946,-0.00878286389107202,-0.00445326236755457
-0.0166170018419971,-0.0578003684481497,-0.00751561314971985,-0.00421007111424156
-0.00676392845526826,-0.0355926439502793,-0.00864556988876282,-0.00312737710994439
-0.00360488388783031,-0.0235082760298963,-0.0116092128794859,-0.00146515287189597
-0.00343936816032815,-0.0110377218706849,-0.0144951152048948,0.000454391511390569
-0.00187446873435839,0.0104844010984619,-0.0169736473220353,0.00219650475428506
0.00136132132504668,0.0327037950200532,-0.0168276917265909,0.00325867649643763
0.00488949712522199,0.0456514630587368,-0.0117671677784719,0.00251881835486722
0.00627185526256637,0.0486290530270324,-0.00457473379245559,-0.000520548441085588
0.00573513279856634,0.0441198711041633,0.000221130861997823,-0.00369452356825459
0.00362313225313881,0.0328613765415067,0.00244977349600182,-0.00470573908211831
-0.000648484657452408,0.0182345071394309,0.00507190229911347,-0.0038138716456182
-0.00365800483842786,0.00473767225927076,0.00733033514231763,-0.00231353240835305
-0.00396614003493367,-0.00588341367742255,0.00741709374720097,-0.00107883981468846
-0.00539792642294033,-0.0134338993575394,0.00635581673451031,-0.000324200772601818
-0.00934997887835222,-0.0205950407719129,0.00529108783955502,6.83935219233856e-05
-0.0132598160777568,-0.0342907726519217,0.00523709030139631,-0.000296742445985136
-0.01604366405083,-0.0527396508006438,0.0064157662905143,-0.00138796618042888
-0.0171210606732976,-0.0665895476835448,0.00719937484954377,-0.00194568838023083
-0.0142802660962442,-0.0754043826587206,0.00781716643820628,-0.00131079879463666
-0.0101350141060982,-0.0777942054611627,0.00869624344864924,-0.000458828500773379
-0.00764931847616416,-0.0666453528812021,0.00836993179473517,-0.000218088352372928
-0.00499113011925252,-0.0443498907707477,0.00787654134015433,-0.000359280127126109
-0.000890691918518474,-0.0203902433299818,0.00856424538329403,-0.000439762788521837
0.00466078420605775,-0.00446412570315968,0.00854936301501496,-0.000164394699766946
0.00894553828620405,-0.000164848684536402,0.00790282879221199,0.000589060340849427
0.00825771596968359,-0.000166305272521844,0.00810528834221052,0.00169089149904554
0.0063869299164658,0.00348394763415983,0.0080622678791534,0.00264708378543866
0.00814353498005505,0.0120021046519756,0.0077656683359361,0.00308943306502598
0.0102900957354066,0.0203816457337184,0.0076095860221741,0.00302740742534505
0.00885460181345035,0.0268090257345443,0.0067017811876095,0.00254666402599562
0.00479820020865967,0.0314233710036333,0.00611373068119605,0.00182948669014359
-0.000375692306960152,0.0312706521351933,0.00497884192785236,0.000849588741038856
-0.00591968916871045,0.0248623882363328,0.0013569185838348,-0.000600890998439957
-0.00914552966576969,0.0105931508881414,-0.00205713103601281,-0.00225938740630105
-0.00841225509882289,-0.00805842676595425,-0.0038004249374835,-0.00371716119525308
-0.00519449958071252,-0.0223543624556926,-0.00373472116170601,-0.00479748414067702
-0.00481910346821999,-0.0288571850915462,-0.00219557927836173,-0.00506516154253527
-0.00870749179955614,-0.030044427344773,-0.000676705847605329,-0.00405339260335767
-0.0110340500976519,-0.0286988627955764,0.00162167392301588,-0.00183578073486675
-0.0109113154830081,-0.0253645912854878,0.00295737419986668,0.000689273692577631
-0.0102094006099412,-0.0185086663150308,0.00194412961208252,0.00228351353726386
-0.00801099941875353,-0.00913110308507332,0.00211010020029505,0.00239454584853499
-0.00343105365889788,0.00069921007734354,0.00548934145689337,0.00163804196417494
0.00270363463985318,0.011964652299194,0.00797663341262545,0.00127021660654124
0.00551913798578647,0.0221207909822526,0.00622893269379301,0.00166349505843677
0.00403081659644406,0.0294371241214251,0.00477575816163638,0.00218055251468796
0.00152121575824903,0.036610516519822,0.00591028210492415,0.00224171155664412
-0.00142495090028138,0.0416747287667487,0.00627075388026978,0.00177316271944918
-0.00215000639030107,0.0419760276294952,0.00453662307478575,0.00105029419860593
0.0015231470302186,0.0394837634466369,0.00206960024038529,0.000149756034748131
0.00776183149895342,0.0358528057606502,-0.000252060537586697,-0.00100681879645816
0.0121879275203538,0.0318138910885338,-0.00278200616755504,-0.00229836918301411
0.011963759282409,0.0265554588176551,-0.00291203927875288,-0.00286648657649581
0.0102385432202897,0.019971491716255,-0.000831795160360775,-0.00154052553101332
0.00918912425700537,0.0137378383713846,-0.000975231807500458,0.00104652102060689
0.00665703997852529,0.00370258271484014,-0.00237191501915751,0.00297743991293382
0.00124553227053238,-0.00959931824860736,-0.0038862447141559,0.00350884962168393
-0.00360061937581537,-0.0153077635807821,-0.00594727172103288,0.00267683590777706
-0.00451858707778686,-0.0118253362846223,-0.00667729747020654,0.000697985547630967
-0.00648268584219305,-0.00907676968077595,-0.00649226823416079,-0.00129332141581324
-0.0128414412072016,-0.0115330770006037,-0.00678218229162813,-0.00230524188082722
-0.0174430156639036,-0.0128678234717036,-0.00664453938848661,-0.00250105986241435
-0.0140828188978871,-0.00532930989137732,-0.00498097424946175,-0.00219520867560377
-0.00791312467554675,0.00780469271628925,-0.00204461870219785,-0.00123758622594694
-0.00637515681787889,0.016850974928947,0.00042651905839822,0.000281218020569929
-0.0065988873454556,0.0193164148961286,0.00103208099245501,0.00188941063459161
-0.00555696033470393,0.0178256052771721,0.00101197635441274,0.00331753383797828
-0.00440746745997951,0.015060819410396,0.000911851859720806,0.00425154719534245
-0.00422191644226141,0.0134756147202649,-3.90519522190649e-05,0.00425108760933294
-0.00493066481319218,0.0100574131369733,-0.00108433553005425,0.00313364721896481
-0.00670106606905208,0.000636086416802961,-0.000398063139239188,0.00102620186190983
-0.00893663574009381,-0.0109911245289499,0.00174389746456378,-0.00101476949328278
-0.0115148229598462,-0.0185041251052472,0.00285699322572169,-0.00134177682943387
-0.0145485334115551,-0.0174038238473646,0.0029845635373741,0.000428826479757262
-0.0136493436269565,-0.00900424532470209,0.0018980809673729,0.00316852962770391
-0.00676768715542545,0.000566177045938719,-0.000791355438788229,0.005286803277908
0.00244463917325395,0.00618771213158462,-0.00241572304803604,0.00562978698337141
0.00951112927805355,0.00818273766213469,-0.00261081476654229,0.00409212450747346
0.0128772243781444,0.00956508586345023,-0.00340216219547434,0.00154458492949507
0.0152140447029828,0.00864193870758615,-0.00420269318773983,-0.000943497792245724
0.0175817603208285,0.00558971307256798,-0.00421355389034158,-0.00289833675601382
0.015444886932615,0.0024224763373806,-0.00423316821279442,-0.00424026281912251
0.00891773753677867,0.000777750275060267,-0.00564345011669469,-0.00557941937107698
0.00517108262429187,0.00298762196719978,-0.00820392217412227,-0.00803507556735662
0.00367878597600292,0.00556642231301579,-0.00930290678241889,-0.0112021355312714
-2.49041889880952e-05,0.00492520672190823,-0.00840429721841866,-0.0123501121595891
-0.00365235303992578,0.00283559007263972,-0.00654916235829815,-0.00837403379050003
-0.00585603330459679,-0.000607154464235038,-0.00514682084938404,0.000277364290077794
-0.00730508116449779,-0.00510795922636171,-0.00527810178065864,0.00817679605859128
-0.0047936269371665,-0.00718967191305631,-0.00495809016059455,0.00962152177005862
0.00193903987583938,-0.00501641026099064,-0.00131195637116459,0.00436174995763097
0.00754002686276031,-0.0028987738625747,0.00150221025856839,-0.00291233227588256
0.00977064657309009,-0.00583708929523134,-0.000674677869085943,-0.00823900458339203
0.010851497250606,-0.0102159232185758,-0.00353279893483504,-0.0106447861897086
0.0116110293652914,-0.00943885143796008,-0.00433502456947361,-0.00918253916382619
0.0117184808804178,-0.00403805071245123,-0.00451167880658562,-0.00210286180337869
0.0106671981994613,0.00154936716674911,-0.00453684799073739,0.00891340930141805
0.00771857737111582,0.00351062644601909,-0.00326609488955289,0.0168230176997631
0.00549038474389288,0.00182467541827355,-0.00191417943216309,0.0158303107714014
0.00539345626157644,0.00479010811632724,-0.00199833321378411,0.00792438092883703
0.00517144761271225,0.0134713496203947,-0.0021083224762152,1.43531570319932e-05
0.0034793845221618,0.0172626372869054,-0.00154855561800952,-0.00290810144929641
0.000684777123871643,0.0155681838585968,-0.00125961746503431,-0.000723208037339685
-0.00250798155892273,0.0131797409380613,-0.00275988828952662,0.00300393507749913
-0.00404989359302333,0.00565509714177236,-0.00623259303570873,0.00335746482804668
-0.0026340269995257,-0.00758704911737857,-0.00908278150691048,-0.00264309000967789
-0.000703328969371227,-0.0138587814407065,-0.00917556267772326,-0.0128888973271723
-0.000467807298792462,-0.00706119195809893,-0.00734404528741946,-0.0214013598869833
-0.00061141048920586,0.00184866209381639,-0.0048591947040748,-0.0236863998288194
0.00221980947585546,0.00632009346791203,-0.00241462767175532,-0.0209386143786487
0.00775233655337852,0.00802997343517327,-7.46503383676736e-05,-0.0172121394774085
0.0124357477521877,0.00552112282915926,0.00221606613187048,-0.0128338413279044
0.0137774278048213,0.00155512361366287,0.00483331340371677,-0.00500068350373874
0.0122627889019083,0.000834190119883199,0.00783323177009583,0.00598965964985831
0.0110243664062829,0.00283670544023983,0.00981929679284871,0.0163582241490867
0.0116708976992417,0.00590259557939876,0.010742980328133,0.0225454792459361
0.0110610474954007,0.0072073719825885,0.0118816147930143,0.022563440250618
0.006172930860684,0.00519342124117509,0.0117319782384449,0.017733058665119
0.000253325455509445,0.000213215277489125,0.00872858814611379,0.012042491670078
-0.00221089800031367,-0.00806847601778108,0.00634353196390332,0.00781460556673735
-0.00225922519489002,-0.0175253242025806,0.00579018995953552,0.00508173996122549
-0.00338082932878204,-0.0235200040525953,0.00510981039277584,0.003775864045486
-0.00497513371129436,-0.0224761615886008,0.00564464834399268,0.00340991108866348
-0.00462677309117062,-0.0151413951089185,0.0072879470544468,0.0025949749141426
-0.00232818820740759,-0.00728081515311357,0.00836299523441802,0.000481123559023432
-0.000787340940461697,-0.00249420052677222,0.00956061584860536,-0.00241614449872584
-0.00388886193055977,0.000551062719169814,0.010988008599388,-0.00515792387094414
-0.0098991255359107,0.00211392679240229,0.0123735848430758,-0.00702227163416442
-0.0134931634896958,0.000112582656257899,0.0129147188493675,-0.00742849719823147
-0.0124939137637156,-0.0036045870368674,0.0127421177747288,-0.00622365088968554
-0.00757375812947528,-0.00424678261680683,0.0137855947922696,-0.0036132492836275
-0.00235661148439955,-0.00427685988030485,0.0143200054138433,-0.00028747971497865
0.000404660204990895,-0.00616660457210068,0.0129223792214174,0.00283078493715009
0.00125258866797135,-0.00490401891392178,0.0122592082644664,0.00515415676349341
0.000775951042392326,-0.000516490131571479,0.0131587259794163,0.00626653640222907
0.00177914678165955,8.79011190990479e-06,0.0141746317580481,0.00604936293172703
0.00437245069050367,-0.00425566373968946,0.0154089830310531,0.00472989419246034
0.00383064664681889,-0.00846177636334379,0.0158451322207787,0.00320263791561783
0.00160457146322359,-0.0117107454689021,0.0140917444484456,0.00273330421271259
0.0015419890913293,-0.0143969097188673,0.0123833399993017,0.00294386915807142
0.00256717229073178,-0.0160778597088011,0.0120263968554293,0.00187143761963731
0.00382199002795177,-0.0173455055478585,0.0105787113941367,-0.000726470525520282
0.00614900702027609,-0.0153040891600596,0.00856052844184116,-0.00263744164223668
0.00688909657022924,-0.00753298664464799,0.00832636833770083,-0.0024223063073161
0.00446613014681683,0.00315765000138421,0.00714005438839325,-0.000938975674396512
0.00216515314268941,0.0123244531716457,0.00534342667583924,0.000345935515510103
0.00146707183272738,0.0203371612872056,0.00616335174327148,0.00122261303829813
0.00133454420257426,0.0284137576221987,0.00708921750864223,0.00230829635372056
0.000946601827778626,0.0290563837723991,0.00667483071086951,0.00370571916070512
0.000658623602912418,0.0221343063337822,0.00551697299551726,0.00496200879682407
0.000918847133398655,0.0201815210994814,0.000894493153456664,0.00528549173059887
0.000770669544158248,0.0254776723519118,-0.0069815580316909,0.00386885415221736
-3.97574926523196e-05,0.0255355229164327,-0.0138629399729722,0.000769379280895694
0.000959872546822702,0.0146236765648656,-0.0161564161976273,-0.00312175446194654
0.00548818925960502,0.0035482608061064,-0.012568624627422,-0.0065392765454147
0.00967958020619372,-0.00269977055985654,-0.00778136018058558,-0.00817674185804253
0.00996421288273957,-0.0122672809484494,-0.00647028068878635,-0.00737774329815564
0.005759977649968,-0.0256508287152406,-0.00849705187556003,-0.00479814891202987
-0.00163259476945742,-0.0306259796246654,-0.0103176183592879,-0.00222764039450297
-0.00564554350808948,-0.0169018145349917,-0.00777450280208865,-0.000867807492668678
-0.00399730905829863,0.00426852727395087,-0.00233017685489175,-0.00150021830123909
0.000316060514576348,0.0139713313205202,0.000825248230578205,-0.00465594147611628
0.00771070674085575,0.0179941039851177,0.00265162459296266,-0.00810876300832183
0.0179045973231983,0.0295727777695341,0.00694520513765616,-0.00838858462291483
0.0254274780273773,0.0427195235852472,0.00966752723602045,-0.00487297825998831
0.0240522545685346,0.0458627100335802,0.00744077415556638,0.000378136171386701
0.0111542346836795,0.0411610866494809,0.00369459787353384,0.00530265385554208
-0.00753394355530782,0.0327955835317337,0.000306323248330392,0.00896580344903987
-0.0204795095838309,0.0113161994978097,-0.00413009553672781,0.0109125202285464
-0.0257881052586283,-0.0226701800210338,-0.00588581306559988,0.0111386352264516
-0.0252304538487096,-0.0515908402542171,-0.0030052218843913,0.0104174327755219
-0.0146553849640195,-0.0616218112785642,0.000851884133667168,0.00884289428616704
0.000205890161425727,-0.0472400374235186,0.00486767992908634,0.00537464929461378
0.00854432667554416,-0.0184588646871185,0.00656041415312024,-0.000358303228953744
0.0111679682864862,0.00681333575614066,0.00601957316837468,-0.00734006474048648
0.0124623541460154,0.0190024671196269,0.00600584664921308,-0.0133552306083357
0.0144390132863327,0.0203952368765753,0.00541151987998652,-0.0167301716010002
0.0135731960506037,0.0190441567763813,0.00202079761462491,-0.0175631190922926
0.00673251828748191,0.0179167388407096,-0.00413083296200437,-0.0156837828282159
-0.000580171279245858,0.0166636679094643,-0.00813766932091737,-0.0102144668811512
-0.00440360589701317,0.0145089764088167,-0.00773166174173538,-0.00169566249027923
-0.00456654437292337,0.00777949341119642,-0.00614588574193395,0.00685114958507435
-0.00378799159964593,-0.00715192985306266,-0.00487733487990709,0.0121693148727803
-0.00708722453277834,-0.0274655777232686,-0.0033141200620563,0.0133319362118196
-0.0119319299160698,-0.0416384217779711,-0.00213081651671421,0.0114475056437953
-0.0113972219381152,-0.0364369257929112,-0.000970928231950914,0.00822098809439432
-0.00423161442426127,-0.0154784203316492,0.00280916438822081,0.00500483015303235
0.00116934521961703,0.00283290313829217,0.0074998035984676,0.00270724343610161
0.00039260815098291,0.00980714161861542,0.00981609662589274,0.00151411523752568
0.00205336128117946,0.0117366670156437,0.0110766199391791,0.000869837087768895
0.0062658614256491,0.0147634577838589,0.0130539892213318,0.000318684924580563
0.0057745115405934,0.0155809281104506,0.0152404522658643,-0.000239338833967979
0.000994646027448479,0.010153534666887,0.0158049881894657,-0.00097524719453875
-0.00384010021774434,-0.000312864871996145,0.0142355645541199,-0.00183775353311099
-0.00484348528876513,-0.0113234656412541,0.0125748688169583,-0.00252731642132154
-0.000116652201767008,-0.0191265816510097,0.0124422791873244,-0.00299599136212844
0.00578015193854964,-0.0252573283446791,0.0130449941264203,-0.00325248644608778
0.00492513251159163,-0.0304746323497865,0.0120971580793119,-0.00319135809063094
-0.000685643376004007,-0.0316246894872208,0.00879881855143122,-0.00296507088034866
-0.0040051937046021,-0.0312892425866797,0.00530112883240041,-0.00304957849637994
-0.0066293426101528,-0.0361552731889177,0.000986348388141042,-0.00363701498460852
-0.0136211957841919,-0.0460085765014526,-0.00548804779432783,-0.00441795655678622
