-0.0152772440127216,-0.0494995584742656,-0.0101827011576273,0.00114896322586168
0.0127610965234084,-0.023394554205012,-0.0108911310451845,0.00227249729327152
0.0362777804538814,0.0104201229136352,-0.00712278363472326,0.00085590144448571
0.0396083235159109,0.0426572533172622,-0.00328889524562035,-0.00198838751678886
0.0231158566265947,0.0794123456286251,-0.00118700982148501,-0.00371858266022611
0.00609363672096006,0.128705465766908,0.00410776648257127,-0.00234105986250156
0.00167705379455321,0.151897486346511,0.0113975415212105,0.0022115019790091
-0.00486153050320715,0.102572852902077,0.0119608942955034,0.00813036792110876
-0.0260051215302377,0.00451349689232583,0.00314734601290093,0.0115666209395199
-0.0437013000864262,-0.0754585348977346,-0.00656721467578575,0.00866353345548603
-0.0418545574170893,-0.107834504147297,-0.00894715699982465,0.000310965639350342
-0.0314281055766198,-0.10986415389402,-0.00603459295481599,-0.00788088446854224
-0.0228578432346436,-0.10361450553129,-0.00254509924606823,-0.0118728633972863
-0.0153371906514886,-0.0864543524725779,0.00156865077354568,-0.0116203075337932
-0.00778542688111071,-0.0433713664644779,0.00572098622464326,-0.00806833134848934
0.0025382885136654,0.00783795185916135,0.00719439570180298,-0.00259538465032712
0.0142729256903684,0.0259582190483248,0.0070396415534865,0.00250843983235607
0.0198522809153115,0.0121359273896806,0.00472090124061025,0.00569529841693205
0.0164970274365411,0.00822150539329351,0.000615869426537779,0.00662838647548974
0.0102343951529357,0.0209425174841009,0.00142206497099799,0.00547529817409884
0.0102440839289203,0.0251990609510222,0.0065851806302811,0.00287976415146747
0.0181415227915273,0.0222801752937518,0.0101906442859717,-0.000285211074976469
0.0258513016127642,0.0187995633222457,0.00868678921198059,-0.00264489572027423
0.0211115491494331,0.00859753951843078,0.00210190300256649,-0.0028741650728349
0.00130163018931765,-0.00245436553479829,-0.00428733214007703,-0.000726960372098753
-0.0138414431486392,-0.00354514903064245,-0.00628254345741882,0.0026535817291025
-0.00642345391658532,0.0168436055355857,-0.00360611445131581,0.00457745973387645
0.0136638647150526,0.0585127620713635,0.00136239483783006,0.00336837222403472
0.0258373277087587,0.0904025547625529,0.00538012516476507,0.000394402716335536
0.0242557143439538,0.0865010518011527,0.0055412548202153,-0.00190440756306491
0.01522093381547,0.0570130852041803,0.00276618536690581,-0.00221908804892785
0.00780321796953506,0.0312688291419202,0.000653273270281674,-0.00116561479019197
0.00812855190831108,0.0222333533789333,0.000236044292487816,-0.000451509220787682
0.0137363123561267,0.0155698209749378,0.000573863640370409,-0.000553659898072497
0.0178821229636702,0.00382060748185972,0.00146275974589762,-0.000925670285305563
0.0145189163647233,-0.00220019602035956,0.0035356973336671,-0.00135522084195918
0.00204345372757226,-0.00365041527541156,0.00747336996817491,-0.00133573024500163
-0.0102306039252653,-0.0081600892913562,0.0116675978776579,-0.000485929242575829
-0.0108809286395117,-0.0140695724614777,0.0128002726479304,0.000553438933942225
-0.00207710783884477,-0.0183020365367436,0.0116127522534066,0.000682710270998864
0.00741548954399343,-0.0101809426589185,0.0112111571306695,-0.000683584367598505
0.0137044688783063,0.0119279610472945,0.00974007258185152,-0.00254065549112253
0.0150260122479723,0.0303047249235662,0.00604781611676821,-0.0032884132891593
0.0131414821133617,0.0322970964867367,0.00403511851949199,-0.00234439731219988
0.0130753895831059,0.0239104094283087,0.00466841817947504,-1.31069908244213e-05
0.0167676513871348,0.0179707671539282,0.00389483209530359,0.002105423196669
0.0195890757779606,0.0160499966648133,0.000443903636704611,0.00281800061320231
0.0146446868952605,0.0214015322584516,-0.00156765977272836,0.00358241193093591
0.00629722166640445,0.0391325468060551,-0.000796132899672699,0.00567976682165548
0.00134119109808502,0.0492584847458669,0.000277076238976657,0.00705781850242615
-0.0041688521826596,0.0306542315013337,0.000182625169933048,0.00476963389758131
-0.0104738119360264,0.00418455405945716,0.000363282200479848,-0.000970964768243061
-0.0140915912554425,-0.00549683772988546,0.000445405765441232,-0.00748063072239539
-0.019463213252332,-0.0102216533521841,-0.00214348651628279,-0.0122560432486426
-0.0274169524661665,-0.0212443327563486,-0.00452429376530532,-0.0130880609224636
-0.0314973090346742,-0.0291503309323972,-0.00538742564264051,-0.00885825368180576
-0.0302770923053012,-0.0299780802288005,-0.00811799924449706,-0.00170110725489355
-0.0256961644444361,-0.029743672940747,-0.0113428043548855,0.00435277277955476
-0.0155828906275306,-0.0230552258085176,-0.0106962468914718,0.00673231276915135
0.0024243682044662,-0.00438530036759144,-0.00654491055481116,0.00526176086090095
0.0211522753125607,0.00771812427878669,-0.00466888776960272,0.000990165359516074
0.0299057839577467,-0.00455466763634373,-0.00640668698437978,-0.00480051272277294
0.0282877529176017,-0.0240717897497902,-0.00675855938795688,-0.00977720267060291
0.0231428524107077,-0.0182521152058035,-0.00181678256975705,-0.0100307582254881
0.0189019302611388,0.0114463578047103,0.0050584320752243,-0.00286414563721478
0.0125247129614909,0.0304861464719646,0.00587483767648586,0.00862494877321011
0.00617295347356089,0.0214950687782556,0.000779800571652493,0.0162211813533053
0.00661858658387631,0.000202692650867593,-0.00411346947085729,0.0145118303924809
0.00685397630226651,-0.0154022614391115,-0.00626873367859985,0.00654074557291511
0.00243725326364841,-0.0215260901414258,-0.00715249178616512,-0.00087571891526116
-0.000161826266089383,-0.0205845166801334,-0.00797163897565028,-0.00499958598201125
-0.00328135576193763,-0.0151904054841262,-0.00724160063032185,-0.00668542989086864
-0.0104094854051838,-0.011520323245773,-0.00340385535461994,-0.00649506284394947
-0.0143943081875314,-0.0152916689285866,0.000724543120205155,-0.00478703656541117
-0.0128178832843365,-0.0238681211505416,0.00110588127542961,-0.00238735299440136
-0.00969088753537912,-0.0341465224809706,-0.00376200565767102,-4.81694371170724e-06
-0.00842836537562856,-0.0422993204396188,-0.0115565887436894,0.00170066219456326
-0.00921113255914779,-0.0435291465256741,-0.0144378856165976,0.00202567186894519
-0.00733947439073272,-0.0353196120476842,-0.0109278392635624,0.00114036676668924
0.00180057041106967,-0.0193972635553684,-0.00746785489803008,-0.000208963870138875
0.0183665835981055,-0.00620390639310262,-0.00487967268117263,-0.00177577688554127
0.034859244740438,-0.00481777510473722,-0.00129532781695565,-0.00313389303822836
0.0412869356681136,-0.0150619746974507,0.000957819341726546,-0.00337686309782502
0.0360265955535236,-0.0279141301468999,0.000905726402482835,-0.00179177151659245
0.0279368423121199,-0.0280740312860248,0.000462665989591617,0.00138106142352415
0.0238578297754144,-0.0180131881416012,0.000900404936429161,0.00447581430831754
0.022823265025259,-0.0204046132926464,-5.7555795175399e-05,0.00584551045756728
0.023292402163105,-0.0337407058586828,-0.0040924601006239,0.00520022445344615
0.0233180932303993,-0.0377940440131833,-0.00777567319877471,0.0034186990186204
0.0204221985046759,-0.0349395741685852,-0.0096891114961353,0.00187234850529021
0.0158542080010309,-0.0353430062245403,-0.0091666583072783,0.00142922707388955
0.011295368661143,-0.0333536775700143,-0.00599242389580969,0.00187932478184938
0.00773475648300081,-0.0227542924350046,-0.00482237963499715,0.00218911713501247
0.00800559699253284,0.0104713652779447,-0.00554411584060232,0.00124566491565183
0.0107575765350854,0.066408762390629,-0.00173478201287946,-0.000994132480192726
0.00983994059280315,0.0880489638735291,0.00537963874392885,-0.00313120012694171
0.0047779995496588,0.0425301453233869,0.00705878646727707,-0.00374602213653631
-0.00166529917790258,-0.0194233871624932,0.00322609321052303,-0.00240038607584805
-0.00651812461020072,-0.0454111252358914,0.00245440441823662,0.000402502715146047
-0.00556776954372546,-0.0352988801367886,0.00672439159196402,0.00346931188144513
-0.000600077878342865,-0.00875668483299343,0.0100540663247555,0.00530459769498384
0.00371855343061416,0.0179813739612875,0.0112955430220569,0.00439448535040594
0.00695304849523161,0.0262508509853876,0.012942616171999,0.000883325242630081
0.00979375373062422,0.00944614632966556,0.012407093101633,-0.00268221088815182
0.0128962826560409,-0.0126758119576524,0.00841719077294249,-0.0039334814670748
0.0170521160210469,-0.0231490413498484,0.00358045662488012,-0.00279845519549696
0.0182492323212303,-0.0233897021607912,0.00113733851815273,-0.000744520941231697
0.013850607948861,-0.0162283346441727,0.00281325956365883,0.000918288990668849
0.00820545574822467,-0.00510386244210569,0.00492634780920196,0.00185509493862639
0.00465066587063065,0.00262021544018101,0.00284071240801076,0.00221791642789477
0.0035157975751072,0.00345212869785758,-0.00200811719339289,0.00200948505126581
0.00453055681930825,0.00223537399133832,-0.00537264696917231,0.000915842375435536
0.00402157960518417,0.00535099615774527,-0.00479803750848305,-0.00113860415642131
-0.000580434590626315,0.0112142538951785,-0.00213783950351146,-0.00268912530925292
-0.00509473957873192,0.0161346806582274,-0.000810065747330284,-0.00205932450405992
-0.0052293402480681,0.0204450905528878,-0.00250276750106481,7.73005833931703e-05
-0.00326124963677314,0.0259159581337885,-0.00509915169254855,0.00176687553296097
-0.00378093763667384,0.0338724953693979,-0.00276689553875043,0.00198451235848282
-0.00535112309000383,0.0364198463955987,0.00244150737150299,0.000858293391768766
-0.00483341301023672,0.02793247112712,0.00443234313542919,-0.00127648888928633
-0.00280844986462505,0.019963267277542,0.00572061112032998,-0.00398125019547466
0.00056526356343508,0.0212509437019152,0.00794654750429158,-0.00578681195349004
0.00546761732518533,0.0287420571548862,0.00799419433699734,-0.0055853112130915
0.00930343461973282,0.0357767488158928,0.00721115765557354,-0.00387978817873916
0.00790890976383426,0.0335099853184117,0.0065193812891154,-0.00156505859020047
0.00256752103304988,0.0219395410471067,0.00306612955913012,0.000614404717937167
-0.00234254766278245,0.0123853848947408,-0.00114587447990116,0.00237304912610405
-0.00488902191330145,0.0107192325100072,-0.00235186877738887,0.00340052052283139
-0.00502212271877405,0.0140494728466584,-0.00210729584964417,0.00273428307371047
-0.00487413485028842,0.0180179232296271,-0.00297839615629787,0.000574837612596496
-0.00481098842354498,0.0181962977987482,-0.00417091621939489,-0.000983741479463173
-0.00549997850182418,0.0124689404152094,-0.0035755416637461,-0.000533999779946999
-0.00699785460739325,0.00151531796663481,-0.00362682277547564,0.000630252600940702
-0.00649896494075928,-0.0107640252444543,-0.00750588988514978,9.1157134309462e-05
-0.00330478753827274,-0.0177862307862756,-0.0106704039938749,-0.0027605371832879
0.00169699148640952,-0.014503575332747,-0.00676232429008669,-0.00566250744345405
0.00461416549224108,-0.00427518252492664,-0.00131363482750664,-0.00533556080149581
0.00337025031942817,0.00319957599785997,-0.00200304235427805,-0.00125101632359759
0.00187249829247952,0.00648261383030975,-0.0052487565309975,0.00350852175481841
-1.12080508655596e-05,0.00838475810249008,-0.00638088549906363,0.00544370858502278
-0.00188646074605564,0.00678268743015776,-0.00543404211758058,0.00356512410105014
-0.00186686370716435,0.007111155293473,-0.00445406333812681,-0.000404071635033836
-0.00183744779485747,0.0133723149198393,-0.00546017292056108,-0.00396200371891002
-0.000122392630289005,0.0184131904107716,-0.00601971963895416,-0.00587795131969906
0.00239377254943235,0.0180136358949922,-0.00298537304176286,-0.00622409798478186
-0.00165449344998326,0.00867071536268075,-0.0016549440640709,-0.00492650994218416
-0.0122831295849026,-0.00815572948739589,-0.00565432037118553,-0.00223401615614571
-0.0180501838360986,-0.0218405884518208,-0.00943106445414899,0.000392824728385695
-0.0155750478796789,-0.0248938664131301,-0.00857688277785834,0.00154920887610324
-0.0119896085411634,-0.0184800970651602,-0.00483402263500094,0.000943821297691443
-0.00966165784924976,-0.010181671727549,-0.00126489975783793,-0.000888255134534714
-0.00935028423062382,-0.00579902313120252,0.000837067728084361,-0.0026647678751868
-0.00885345499640244,-0.00246251415604604,0.0016629860889888,-0.00238615721341145
-0.00547123282638932,-0.000306518613617588,0.000510122583216079,0.00122127066924169
-0.00267978221862135,-0.00296285801255722,-0.00333801941573727,0.00692708611634844
0.000498954967145563,-0.00555706339356236,-0.0063153745458188,0.011155989010117
0.0054678279005865,-0.0049767651206183,-0.00600798287551673,0.0109250257833271
0.00741915244613362,-0.0031876074759919,-0.00244134662922846,0.00674242056237886
0.00611388988400134,-0.00183568366461905,0.0033862819487526,0.00191032470436975
0.00428092391281906,-0.00183930627789018,0.00738862365012465,-0.00092674863721216
0.00142553626746405,-0.000681537800012787,0.00691243529962583,-0.00187653463483702
-0.00230256386302371,0.000955807189875505,0.00450001198828111,-0.00242127272521807
-0.00639139767098173,-0.00387832422603624,0.00518359129455064,-0.00308529224195869
-0.0090458801193407,-0.0162406544245909,0.0070138745468204,-0.00317329818014706
-0.00827469708927901,-0.0271544443572487,0.00556554592515198,-0.00223295882407085
-0.00733597520249711,-0.0273508934809931,0.00516935098251085,-0.000166629036007611
-0.00846291581752087,-0.0193543822708309,0.00745648584359599,0.00329311547162986
-0.00914704026374276,-0.0173214464779549,0.0060939194362054,0.00719240372424389
-0.0095902770678126,-0.0225224608466747,0.00080972091085829,0.00899195935499979
-0.0112024732325489,-0.024339273755437,-0.00148618252168198,0.00736270249762494
-0.0101744210764365,-0.0227654014841365,0.0010639658972397,0.00339165006596909
-0.00623035821341791,-0.0174202320628858,0.00458907509156894,-0.00149187252828135
-0.0057307618481115,-6.311146127988e-05,0.00595122016989096,-0.00582506852327181
-0.00699639530567393,0.0288455123553929,0.00551752172841694,-0.00750965995229781
-0.00379510357335252,0.0481886516773059,0.00432326950717031,-0.00617115693267677
0.000583263411912846,0.0421928256569825,0.00264053055091549,-0.00395581973620082
0.00158985102949545,0.0243878964181618,0.000733023106361027,-0.00217451421928174
0.00214755273712624,0.0139020846096365,-0.00173867772146752,-1.7004265974294e-05
0.00706579648435818,0.0151202386851418,-0.00244734346480594,0.00287461206346125
0.017899500743439,0.0200564623874027,0.0017031271553161,0.00517258947843858
0.0259589357285738,0.017767218748591,0.00751558876869983,0.00567381377751546
0.01993170309949,0.00913862538364871,0.00975516783480047,0.00440535272983165
0.00523681923277336,0.00267667324484039,0.00834475961901121,0.00215382711045389
-0.00618646296532364,-0.00767334015643668,0.00572882476637556,-0.000188254856123353
-0.0104917759065306,-0.0299844638924739,0.00280946085798829,-0.00192833747715387
-0.0123584134235222,-0.051005767269996,-0.000337967111568916,-0.00196176482050864
-0.0218214171951917,-0.0560508542445408,-0.00337973879496612,6.14980701204859e-05
-0.0397030378245992,-0.0460668060978473,-0.00552006840682997,0.0018806126410811
-0.0528866102923481,-0.0297487326249758,-0.00418315216106868,0.00138252530507609
-0.0521919515634628,-0.0198037347997324,0.000716976544771153,0.000527778656125642
-0.0508340381439542,-0.0243741176373162,0.00351479696025319,0.00156795294483274
-0.0592386463635734,-0.0309840958256494,0.00108049708842067,0.00188868639693152
-0.0648177985404045,-0.0242886896729348,-0.00114585714365332,-0.00112505707566578
-0.0582409159379478,-0.0101135955259748,0.0010255042841252,-0.00544118301919042
-0.0385751707654896,0.0110218468755609,0.00519891695872351,-0.00823074988723633
-0.00850421486289764,0.0401344821628591,0.00706153062087186,-0.00852644064450123
0.0199148620736669,0.0516767942667019,0.00493930315811502,-0.00663243798034793
0.0331572561052704,0.0365824533464993,0.00464857418960073,-0.00388426183545222
0.0364407725018498,0.0206089993463515,0.00874701676847415,-0.00120575728633441
0.0477030523652775,0.0174343465326597,0.0109969129314146,0.00131663068937186
0.0635779986350383,0.0249381232653971,0.0097073438718384,0.00309644551735251
0.0674254925636981,0.0355316807371904,0.00704183781493711,0.00280002766342893
0.0576664335910431,0.0280712142312665,0.0048570221019253,-0.000341982085118311
0.0380153293376405,0.00101848245871027,0.00342225764842189,-0.00444551898647692
0.0114945007614641,-0.0136314109557571,0.0022824792991308,-0.00587138418737835
-0.00997847469336172,-0.00586688777045536,0.00240995415282804,-0.00293087553974593
-0.0154965288391524,0.00170345028261589,0.000865602662695459,0.00246838319210871
-0.0127852553784488,-0.00589743018580532,-0.00619353616829852,0.00626121730235992
-0.0211827391861847,-0.021924591707014,-0.0133085352316732,0.00588361317909101
-0.0375231992923046,-0.0283219078521535,-0.0127577741390176,0.00234210308421322
-0.0388151700804747,-0.0196086245627815,-0.00715759771565023,-0.00144423885697675
-0.0218919696180619,-0.0136463255845001,-0.00310495961916437,-0.00309268690263791
-0.00676757001475972,-0.0247764378591414,-0.00282435001946223,-0.00246051145828649
-0.00510655712160166,-0.0382377761257754,-0.00338292847497725,-0.00131710860073041
-0.0110868776353472,-0.0394485221689949,-0.00206496400769407,-0.00115549271594939
-0.0145489357094654,-0.0366886185085593,-0.000289012805013667,-0.0017494435021818
-0.00674169167084723,-0.0406415557810856,0.000312942964787226,-0.00159456390122883
0.00944700810278558,-0.0482691369521718,-0.000239715561046967,6.5279359802539e-05
0.0212384059287807,-0.0469561575808189,-0.00102285215428344,0.00215922671369027
0.0258287696770057,-0.033393175643203,-0.000591905288475117,0.00314471331290185
0.0311605924574933,-0.00628939114005585,0.000141722711895586,0.00244300515018609
0.0378890646695485,0.0452474563573202,0.00178543429531414,0.000836250674988942
0.0371318820960878,0.103444638397246,0.00685877567713839,4.86163566989226e-06
0.028117186566375,0.112370421988066,0.0108477481369077,0.000884869859767637
0.0193875460464399,0.0540487130906495,0.00629954440966431,0.00276517063719709
0.0147187857476364,-0.0167671184756276,-0.00282936109551473,0.00406607808016184
0.0100952295841383,-0.0512485326302259,-0.00669752980826421,0.00356555182717244
0.00453086825595357,-0.0473069251126697,-0.00418472034722064,0.00123823840685056
0.00539105604255436,-0.0259174051358193,0.000239034459245495,-0.00155813746178258
0.0127506606968782,-0.0137126033643534,0.00487540422275252,-0.0030461455432166
0.0153512954973993,-0.0172112289469086,0.00891579612434019,-0.00289035080761543
0.00838999462064506,-0.0239336239658949,0.00708993667702869,-0.00224184281134251
-0.000579436177161143,-0.020900672105386,0.00171593830849642,-0.00219614417229198
-0.00775684340069786,-0.00783278428782312,0.0024056683481135,-0.00251979717159033
-0.0153297535520145,0.00431210728206848,0.00920892474914052,-0.00200963234338165
-0.0225827354635289,0.0114966122221809,0.0155090750964347,0.000224312452697006
-0.0258076922353188,0.0187006223156574,0.015844826366432,0.00377007474573985
-0.0186781805439592,0.0313652745493395,0.012224975064236,0.00667056838328177
-0.00490420719995135,0.0431946133046813,0.0096804003979478,0.00750297339742001
0.00277954528319947,0.0429232844318697,0.00700675495480736,0.00635427651756493
0.00500809944073398,0.0282884506150046,0.00325822601812394,0.00351624179189704
0.0113105678514628,0.00934286045537375,-0.000221709520904497,-0.00049273128385309
0.0156895099163624,0.0014066654741455,-0.0025946364571884,-0.00405441661565395
0.0123635704417229,0.00103523159036419,-0.00183219161723529,-0.00522301903100962
0.00892721531490926,-0.00123889014904701,0.00247135891022918,-0.00349561830277873
0.00291870996682857,-0.000660717803014375,0.00672325282724037,-0.000451345131888525
-0.00895734144318843,0.00521148809217098,0.00888387510894194,0.00147102834316488
-0.0189489649517417,0.0110578184677865,0.00949214849130439,0.00116002942012397
-0.0225512202817052,0.0126162943261585,0.00892439042458663,-0.000389147004567087
-0.0210572716487433,0.0123575184623519,0.0090830650631339,-0.00159857105812744
-0.0173011417683204,0.0169941274900792,0.0105859249278557,-0.00189310299561148
-0.0141976365307557,0.0242108663275342,0.0113818411970268,-0.00117135322892991
-0.012572977094986,0.025960697092787,0.00960317132596993,0.000775392822910106
-0.0102344836313287,0.0236339597450219,0.00618874266903619,0.00320275168432069
-0.0056278809583166,0.0225776834976855,0.00588719300344891,0.00432536249730165
-0.00229489685472304,0.0239886056173319,0.00870516912367417,0.00347507360247816
-0.00305551907315854,0.025530662415998,0.00847627919211017,0.0016128135613356
-0.00442406295384342,0.0241049054025756,0.00312215526324941,-2.51566206890081e-05
-0.00441658293093735,0.0208291911539044,-0.0026921668110776,-0.000590006324561704
-0.00320537549493897,0.0179945313755854,-0.0044521175491062,-0.000110604640135756
0.00225171461265292,0.016145871736187,-0.00359562263394364,0.000513083426214532
0.00923058847777881,0.0146885888185451,-0.00167883151904728,-1.24580696530901e-06
0.0108224114067473,0.0133656298168798,0.00311299659205827,-0.00167109277988745
0.00735025958545994,0.0127231418950325,0.00827173044984329,-0.00261703598172079
0.0023536133773945,0.0101507720345768,0.00767013458256844,-0.00186539132534802
-0.000701735364103034,0.00515308809960371,0.00331026394187339,-0.000982852911406054
-0.00040000822556642,0.00342396884300623,0.000854592871960397,-0.00142166400797921
-0.000335860742305423,0.00524409668460282,-0.00118905906557507,-0.00209778659158879
-0.000721578554081233,0.00725884729399217,-0.0039331888589371,-0.00167076472974235
0.00367461176448723,0.00924912307711436,-0.0055213549166341,-0.00146597665911684
0.00911678608038803,0.00863006467651878,-0.00648227792706857,-0.00282731670681857
0.00845491976501797,0.00208108909849316,-0.00823198916348073,-0.00432365225884701
0.00303496503394712,-0.00840078680662037,-0.0069266474072819,-0.00390097810770588
-0.00326653439229907,-0.017676615669225,-0.00370539695728777,-0.000450195853831984
-0.00839195770219134,-0.0209901157570078,-0.00456279417296537,0.0052490962680733
-0.0105389713864331,-0.016313433248191,-0.00686315913076172,0.00987140515189561
-0.00867594933035376,-0.00681335230242129,-0.00967210732432455,0.0105426713698337
-0.00705101712214373,-0.00193126012390468,-0.0129537896191622,0.00723006185451075
-0.00797841641040968,-0.00991696628840676,-0.013932941479851,0.00182135549216965
-0.00733796641597229,-0.020392668490141,-0.0125604540928987,-0.0034503528009126
-0.00476353715370431,-0.0182411331462312,-0.00936242596452408,-0.00657365855052881
-0.00138865753872381,-0.00809992040646705,-0.00636289248525838,-0.00657857153231889
0.00607102148774982,0.00872872502113385,-0.00326625966048926,-0.0045860895809921
0.0176706391016336,0.0338064763499928,0.000615967663421981,-0.00215838331538176
0.0248072561624825,0.0416451214078748,0.00150815458342205,-0.000104300311008189
0.0207230950293341,0.0206815367157335,0.000127866072274954,0.000440777568294889
0.00966434118985651,-0.0031738005759773,3.76563717988682e-05,-0.000973759876759867
-0.000377989694571531,-0.0129390704212128,0.000672607792012517,-0.00300015718102446
-0.00527496017966589,-0.0139067892648348,0.000471615789309926,-0.00418994685782487
-0.00714012870523353,-0.0160890903019778,-0.00143107977468522,-0.00379979267731208
-0.0093885483027124,-0.021354298078444,-0.00533158648450198,-0.00192682354057077
-0.0111550572904672,-0.0200861994544266,-0.00705343000733512,0.00044187700609419
-0.00932278039160696,-0.0122079243269212,-0.00451276244475569,0.00252746952040758
-0.00571568024550416,-0.00721511752390229,-0.00108988606166619,0.00367968520528769
-0.00440585648704575,-0.005924623924848,0.00169641516449403,0.00352168753513632
-0.00466913841972393,-0.00195301922466875,0.00395461331402323,0.00289452767445645
-0.0037394464648244,0.00594801108818727,0.00515144181755175,0.0032128933264584
-0.00100084297228762,0.0120455678081021,0.00568138728239801,0.00463900585748693
0.00065524902489597,0.0162953444898519,0.00721783848713152,0.00554599068788096
0.00222492655349671,0.0192757667399666,0.00847653632419866,0.0043433194879922
0.00742389979344723,0.0146138007445024,0.00611108875621933,0.000910610755253565
0.0118865847473199,0.00420049130962853,-0.000729529035522199,-0.00350281210136221
0.0107493366440433,-0.00183166850428203,-0.009743014058479,-0.00692350976460651
0.00707070469396679,-0.00432175376362907,-0.0164049288461651,-0.00754264930164693
0.00558513751896889,-0.00800636751051354,-0.0173196653299708,-0.00460151776351917
0.0073749848597873,-0.00853908655770135,-0.0154564109353803,0.000527112959243746
0.00803995758981127,-0.00161320186579647,-0.0138146732640291,0.00486056834748572
0.00275739861223096,0.00436204302768836,-0.0116849681550748,0.00651341419262394
-0.00625860042446035,-0.000681527162934252,-0.00911092350522442,0.00580306473299673
-0.0172199135943781,-0.00862943523260954,-0.00584265446241128,0.00388811207393211
-0.029157167225792,-0.0124221388361216,-0.00367296865480451,0.00116984643840454
-0.0358783051488851,-0.0216364591945796,-0.00576260383011544,-0.00258301519412878
-0.0354491916395177,-0.0270268135130799,-0.00913574235060481,-0.00640908709950298
-0.0297542082110957,-0.0181606298715489,-0.0106820716924811,-0.00835605366367924
-0.0214596262596511,-0.0163585907422236,-0.0126184513322307,-0.00766353757638401
-0.0134835245871791,-0.0246133990555615,-0.0133750666910879,-0.00505349511807361
-0.00475469454654465,-0.0214716858316851,-0.0108965896255803,-0.00163814300208032
0.00611715473219105,-0.014601337324906,-0.00642882577093325,0.00181159136526085
0.0212207261280201,-0.0197443553807073,-0.00129277125197927,0.00532700161711678
0.0408804629903825,-0.0175835026660049,0.00164011593365477,0.00843187806601241
0.0538832847775175,0.00625770308140348,0.00496333613650755,0.00882709151502586
0.0500513960834138,0.0260875615343127,0.00878605849749497,0.00502474945503155
0.0305604887140376,0.017876184609102,0.00743900200911466,-0.000847376290345795
0.00615216329017854,-0.0108930064412996,0.00360591574625971,-0.00487766832733842
-0.0103311283800912,-0.0376786796790739,0.00207108498519114,-0.00374027050349911
-0.0184589293339683,-0.0428737168914707,0.000947472543155893,0.00265955185455041
-0.0228122549664514,-0.0246519811795301,-0.00294495389042014,0.00847974298339981
-0.0225720630056831,0.00206989821849259,-0.00881349121026707,0.00751187188050615
-0.0165054830515838,0.0302908369494168,-0.0135355682008774,0.000529328360268916
-0.00646054028639971,0.0571344955720999,-0.0139851411621612,-0.0067483662922198
0.00296754017187687,0.0601765683239587,-0.0117851453857013,-0.0102549765090581
0.00541799652518049,0.0307871053919628,-0.0118514947832311,-0.00995358366228614
0.0012127714048008,-0.00581556780802465,-0.0127400132084827,-0.00751952319565065
-0.00171902086502132,-0.0251304899208579,-0.00912214636611188,-0.00436055912878357
0.000378728768691224,-0.0244646713671834,-0.00259882864528769,-0.00111197316118144
0.0017647948080584,-0.0172244388904877,0.00273330144775149,0.00195275844982804
-0.00154441540873818,-0.0154905200456056,0.00483116074522715,0.00411590157748293
-0.00332126306246507,-0.0169371175510517,0.0030535456404324,0.00474842251497952
0.00148197194389136,-0.0126015218310928,0.00311818026035192,0.00399540655574547
0.00968840481240842,-0.00444905275508507,0.00691037878103456,0.00256448471424848
0.0165440194239979,0.000812837760808166,0.00804375307380931,0.00109686202095371
0.0197801819110966,0.00372437147714728,0.00611911980617313,-0.000631929275949076
0.0217459225411317,0.00824415675917562,0.00562181960386851,-0.00233158178302584
0.0245432870251681,0.0140131271802902,0.00609105658415028,-0.00232487132948027
0.0245417176937105,0.0163758037113807,0.00435022066812791,4.24819723924236e-05
0.0200123546544665,0.015132387224557,0.00117988218427871,0.00268868825012362
0.0155262854913228,0.0138367011220832,0.000500539288237799,0.00285977673238811
0.0127012014907331,0.0141797425672142,0.00220617134857339,0.00060200887339201
0.00831586609259385,0.0163693033885483,0.00146760857498101,-0.00173500069412363
0.0047178944965161,0.0193332094068368,-0.000811705115356325,-0.00259550314293399
0.00479916154624898,0.0204339006379108,-0.000841973850646972,-0.00165931628480406
0.0062412841563069,0.0182003713671239,-0.000237415108897923,0.00050181852165095
0.00702582137097857,0.0155809239582521,-0.000531686270626814,0.00218363572199648
0.00579177991760923,0.0154998969726653,3.79304642273148e-05,0.0018666314756454
0.00331050920427306,0.0172305232131016,0.00273781639249448,-0.000270064547121062
0.00148651150098677,0.0191134517767394,0.00524363233354567,-0.00233541906974973
-0.000221682837680799,0.0199953942826137,0.00525555493621533,-0.00259300858052013
-0.00215529084047553,0.0190314818204859,0.00251674747705246,-0.000719251952810281
-0.00202016020323306,0.0157398572620688,-0.000326853358510371,0.00204866353002605
0.000767946577776894,0.0100364334305201,-0.000367853337258249,0.00356202276303004
0.0028161334596752,0.00378046328831882,-0.00100578249363838,0.0027044829068414
0.00251891052840457,-0.00014882444054865,-0.00454617875094926,5.62147350490127e-05
0.00102334459770773,-0.00158487586120361,-0.00708046070273898,-0.00229037767451695
0.000155565730284335,-0.00465257427889641,-0.00823566133436925,-0.00219759794190077
-0.000209395145605525,-0.00914403673142492,-0.00830457891631038,-0.000379407905301293
-0.00179555029988436,-0.0100673758011261,-0.0062276178660909,3.7205629214691e-05
-0.00444206355322534,-0.00767012132100637,-0.00479592284313494,-0.0022246693983704
-0.00666867555321045,-0.00635801033319814,-0.0045964507630003,-0.00516964033979657
-0.00522114078705777,-0.00724745475513513,-0.00294622173141638,-0.00597002920636203
-0.000488162655695979,-0.00816848340678755,-0.00151375122568221,-0.00296322081916008
0.00309052912912923,-0.00865083824405543,-0.00256414564693884,0.00232737031745815
0.00612659470436828,-0.00793499262884619,-0.00370997261942375,0.0056388485549769
0.00788519577030135,-0.00679963964143823,-0.00510942400856023,0.00466633824595807
0.00530529194692403,-0.00603978525618089,-0.00730899173207168,0.00113193122705875
0.00162991154680146,-0.00197481315981287,-0.00597925184615366,-0.00176741617036864
-0.000346482136789892,0.00595374063590308,-0.0016297129047306,-0.00207639314332813
-0.00118723978873291,0.012065950954424,0.000552150845502694,-0.000525393660600127
-1.51358444939326e-06,0.0148624403131766,0.000966786795979216,0.000587630949495891
0.00295956857198702,0.0179423639648694,0.00306831836792782,0.000160147428587734
0.00445537363696953,0.017785840828937,0.00606218387359975,-0.00104142690053808
0.00104695171394836,0.00587965280799339,0.00662299859968087,-0.00202463854613631
-0.00912665825935953,-0.0144146129634395,0.00548338555456226,-0.00241746839311866
-0.0208660309234819,-0.0285432990558069,0.00437188675030021,-0.00115476402175919
-0.0238917680235942,-0.0328631795181221,0.0020782187634683,0.0025628506539148
-0.0169824609959061,-0.0350295578098924,-0.00112850321763123,0.0059121863236422
-0.00911117039753618,-0.0367415707578779,-0.00146177933386885,0.00483913867855782
-0.00462282313351135,-0.0317052983994043,0.00277714334351706,1.42491024283939e-05
-8.1595211244e-05,-0.016468188785779,0.00943598157022948,-0.0040188060132144
0.00481382173405395,0.00168401321562078,0.0134499834706384,-0.00425601204778021
0.00674865608336694,0.0157948962461825,0.0131916776912402,-0.000940169097095939
0.00792921244245828,0.0217929166667002,0.0155902828167649,0.00322722046664252
0.0120563204955468,0.0167518945426637,0.0221394660526456,0.00457980041219063
0.0140820055214962,0.00741643533194104,0.0260314642294759,0.00213744109686562
0.00883519757917815,0.00140272332181632,0.025452701551918,-0.00122283494414849
0.00119967887550328,-0.00185110073582839,0.0226654589559175,-0.0026380096823189
-0.00376648127433136,-0.00457072715450642,0.0196368437532677,-0.00191993117993368
-0.0062258277871244,-0.00523149945317652,0.016532900554781,-0.000311927587456073
-0.00633910225780544,-0.00268339782518314,0.0125609369349344,0.00094891783166214
-0.00465030230635518,-0.00253924911322558,0.00852273064456822,0.00172912012037666
-0.00202348816050541,-0.00577126930699539,0.00522457102007613,0.00244866384499805
-0.000661945099658447,-0.00656868869214657,0.00396596382958637,0.00265297958853312
-0.00281393620055647,-0.00695671604322952,0.00430959836356457,0.00220382514756923
-0.00574392252612125,-0.00632671783913839,0.00429081711689897,0.0017827359960763
-0.00758605163736402,-0.00258824183502025,0.00326043062490954,0.00158989942793875
-0.00913457330331209,-0.0018552737914909,0.000701175346750166,0.00116328028279097
-0.00918075291379757,-0.00515238047149559,-0.00161456586767879,0.000180047894143113
-0.00688886966142521,-0.0078023789155039,0.000405542578075599,-0.000948206482847563
-0.00417666061580226,-0.00857715083586621,0.00479156844684556,-0.00164495983579513
-0.00481959889664497,-0.00946392679143087,0.00822558193076389,-0.00204105826451863
-0.0054396455748507,-0.0117554934178298,0.0122406360198587,-0.00228849251416874
-0.00316401442417431,-0.0119240316520426,0.0195732541155318,-0.0019188458291939
-0.00318800417297701,-0.00849225310269619,0.0256459107020373,-0.000206447183771017
-0.00534025129741088,-0.00561544058721382,0.0251103025115041,0.00294367861259881
-0.00407099642976273,-0.0041285461052152,0.0225858078814918,0.00567313399945108
0.00152455826520871,-0.00051534965344102,0.020407109311481,0.00579137336321968
0.00430577046058463,0.00263292159408009,0.0163470024604121,0.00370071595166373
0.0011775975676729,6.58013412335589e-05,0.0101998245933536,0.00108347409378764
-0.002764054046181,-0.00384854679141395,0.00504267898556803,-0.00112265002016117
-0.00466245920830572,-0.00444087945986567,0.00396192898041573,-0.00245597794449964
-0.00362986998972284,-0.00448907978908644,0.00542992421391004,-0.00303501782771053
-0.000588235616543624,-0.00747756652746487,0.0056921419430703,-0.00373194563429026
8.63008106215674e-05,-0.0111547176364764,0.00567787804620283,-0.00478393237172026
-0.00161360249893714,-0.0122998408108114,0.00716257649002597,-0.00478472507129545
8.72485239299427e-05,-0.0119079901749427,0.00601244324830178,-0.00232124025446722
0.00470113911555105,-0.0103908306955123,0.00188804894984285,0.0021966999133086
0.00442819191168761,-0.000410298512002499,0.00104296764933938,0.00593105708157043
-0.000179294199095983,0.0183527482471628,0.00167538451769215,0.00540528097495781
-0.00214738737591242,0.0258538636111276,-0.00147242622369077,0.000703490059417895
-0.000326364310040288,0.0131410114957513,-0.00699622862592812,-0.00405361774828765
0.00379622289863718,-0.0051938080030384,-0.0129236963330973,-0.00496332808074384
0.00657396430323147,-0.0165059197443503,-0.0190282309017996,-0.00218551585831699
0.00300871709009324,-0.0194056731357269,-0.0232292577044374,0.000201809759955372
-0.00294528028804002,-0.0176252123321522,-0.0239791966906594,-0.00102791851397898
-0.00626425541207467,-0.0138100914866131,-0.0224601448655911,-0.00444035310149792
-0.0120380911859905,-0.012128667613857,-0.0193041227866912,-0.00640727532388264
-0.0212214998301047,-0.0175282336208822,-0.0154269407146716,-0.00502555129210129
-0.026644613166862,-0.0314960368618179,-0.0126193932271174,-0.000772380655964049
-0.0261137515517514,-0.0515826070355215,-0.0112179583057883,0.00426001444801214
-0.0208272395252416,-0.069260019607592,-0.0106444065917571,0.00803399322934142
-0.0104011845417075,-0.0742498078698388,-0.0095251110771031,0.00915752074899301
3.86630757800224e-05,-0.0652181441834398,-0.00577548916272228,0.00678331203543221
0.00421668096281518,-0.0477791914544233,-0.00434881323907961,0.00180271447147076
0.00633019629165707,-0.024786140548178,-0.00910700015826063,-0.00337321118653995
0.0127322122784435,-0.00305807136760895,-0.0149719022123271,-0.00685584216972695
0.0202551682496169,0.0132227928803218,-0.0186498653160404,-0.0086050801926733
0.0215405709063434,0.0380846214865388,-0.0185800832436763,-0.00940543167607519
0.0170240455076083,0.0710295861598544,-0.015687829766614,-0.00933390619778669
0.0124972764535153,0.0835799532860005,-0.0155474902717368,-0.00799438442133039
0.0113427488888085,0.0737872246978575,-0.0166850337912762,-0.00548594729609734
0.0118349707976843,0.0551809948220104,-0.0131069662837867,-0.0019672897336883
0.0105582315527823,0.0255669925039393,-0.00832425612215296,0.00251151878371767
0.00871369806346033,-0.00626253092962059,-0.00804792847375269,0.00662390581632514
0.00664835340442467,-0.0278242822557722,-0.0105728348743948,0.00828336696855994
0.00123559923131335,-0.0366647007143116,-0.0126025072242891,0.00664469858479348
-0.00725410475010654,-0.0383290629700284,-0.0125879503309768,0.00282467286408415
-0.0137759306908952,-0.0400474667725122,-0.0098205239497039,-0.000919372991576986
-0.0176896873988002,-0.0353961535275215,-0.00491202585312166,-0.00253236945682627
-0.019824902699862,-0.0204251902854348,0.000734697471044396,-0.000868671111139229
-0.0168569116946607,-0.00499027866084163,0.00476152670241499,0.00301885034368525
-0.00769224388732405,0.00334360050228356,0.00658874829085878,0.00555884263476519
0.00246918818582822,0.00374956043897384,0.00815371906866166,0.00420464769730567
0.00843992727028161,-0.000773844994956675,0.00837271259800361,0.000253698618071257
0.0121319019444998,-0.00726034411624467,0.00354036561788281,-0.00331711842627988
0.0128534063566864,-0.0115811682974063,-0.00611632371579654,-0.00527704539874276
0.00831975296774242,-0.00908038875395362,-0.0133134767246336,-0.00616964723539532
0.00505940926602876,0.000544801924152516,-0.00979864327573222,-0.00665768379124507
0.00929749495387669,0.0130764584118593,0.00127843619394499,-0.00695258675434481
0.018209167020246,0.0214581363675348,0.0103341320353998,-0.00638099420955173
0.023237413349811,0.0239015423591113,0.0152015604766933,-0.00370496973102478
0.0192937741573672,0.0263837139530793,0.0173406700209497,0.00106112519333139
0.0114997124803262,0.0344640037639043,0.0175659387864743,0.00591044489468195
0.00820861452306596,0.0453876441335786,0.0133865037717593,0.00911706676523788
0.00706116845390683,0.0505700674897781,0.0049290183451995,0.0108324731068179
-0.00299206786021184,0.0460553470103114,-0.000688570047854843,0.0118657917347012
-0.015727967750087,0.0348320984839356,-0.00391222081426777,0.0119760310124128
-0.0155652124369839,0.023780847290402,-0.00601353260831966,0.00937686642235364
-0.00653536870978631,0.0173846600717343,-0.00377691403635511,0.00298331204441945
0.000622257703267279,0.0143341151673448,0.000545694568334542,-0.00513865675513116
0.00726387352787542,0.0144561132492879,0.00328377842546742,-0.010484193571522
0.0163953246982986,0.0199239063356182,0.00585071855717866,-0.00958771350208889
0.0232202753095198,0.0226252678715951,0.0103344121457165,-0.00326063070009466
0.025264096350597,0.0100684210733378,0.0120809719827281,0.003593802608384
0.0226604283810536,-0.0114584405755587,0.0105265285740927,0.00637994521190352
0.0166827444800795,-0.0255035303019017,0.0101805558266896,0.00512517698353904
0.0117169703167052,-0.0254518404584876,0.00991127264348968,0.00307354883601677
0.00826498270304559,-0.0140074212455778,0.00949258213062098,0.00244070894091786
0.00509340987893338,-3.27240321726895e-05,0.0101628621921798,0.00288109053096528
0.00300986826418399,0.00705402074054191,0.00931854768504141,0.00312125200164727
0.00336588201419974,0.00761984041334268,0.00791488514929508,0.00263818844474635
0.0040913870098191,0.00769063022457862,0.00951230205447908,0.00198519140902767
0.0012856586470809,0.00861410863941974,0.010973312067779,0.00185939977509775
-0.00374421075113989,0.00751339399566864,0.00880034276553683,0.00176985707550431
-0.00667433866307887,0.00205455543382735,0.00432533865572156,0.000855859700453186
-0.00658291258693303,-0.00819921557623156,-0.0029142118859816,-0.000843022836459142
-0.00589766895306073,-0.0213354207023119,-0.0134748801757401,-0.00288983455965146
-0.00537524008908189,-0.0310401930050779,-0.0233982774225729,-0.00480788438690517
-0.00559493968543833,-0.032801620320718,-0.0271807178797812,-0.00578270988585226
-0.00553754118186852,-0.0310798529659561,-0.0259552708695409,-0.00475038176135882
-0.00436240227239243,-0.0303040932098824,-0.0241971659738872,-0.00163658267862506
-0.00293800452634816,-0.029639187375985,-0.0216424878045799,0.00191686108216905
-0.000427196833255518,-0.0276775223930625,-0.0196825230724441,0.00411529340019014
0.00127424862748862,-0.0234283356837757,-0.0192579448917712,0.00434238270752935
0.00335896081364202,-0.0159167046860429,-0.0186559801700874,0.00315491143588961
0.00924500106820294,0.00811266258332731,-0.0172167784733043,0.00153107843554474
0.0155807816911473,0.0498183414243906,-0.0140747107626794,2.3509929842784e-05
0.0185163942317662,0.0788460321984004,-0.00885917822447858,-0.00124350109468424
0.017895395607155,0.0753095504822311,-0.00294094089188859,-0.00220796986013293
0.014852896774963,0.0440334357525258,0.000568453485351301,-0.00292971556854833
0.00990063971030153,0.00464991632922226,0.00151935553119202,-0.00345633403184675
0.00324216855047689,-0.0208400508835675,0.00441195162919557,-0.00356648608101443
-0.0013705650128586,-0.0294349064679498,0.00882668500622393,-0.00299710619881425
-0.00268072000597732,-0.0314664265882768,0.0115021126407375,-0.00141149741858683
-0.00429835498141828,-0.0300794044980683,0.011924429392694,0.000966064480291206
-0.00671999133718361,-0.0252704660018282,0.00780003987123262,0.00221004550746255
-0.00785250636383278,-0.0226042393551305,0.000940068276390288,0.000397038707592058
-0.00639316188287119,-0.0212062977468229,-0.00339133625312092,-0.00356037964077603
-0.00398945014418518,-0.0172689907413805,-0.00613919086165196,-0.00696232074093675
-0.00349859460528185,-0.0112755353380729,-0.00786355159513193,-0.00799858368157463
-0.00240222391816933,-0.00399572309260777,-0.00773192020319719,-0.00591582401889512
0.00133488898243052,0.00325203668590018,-0.00486396590764547,-0.00174181534028829
0.00382314216343124,0.00838202892377629,0.00295915038943005,0.00141733837442311
0.00430172045886441,0.00782577426601027,0.0105022223339288,0.00167323208140139
0.00450426567952963,0.005437458582518,0.0126608408687795,-0.000511684554799946
0.00415162473194632,0.00803650761334223,0.0104279808253885,-0.00330708631002016
0.00400675340063441,0.0117785406690488,0.00714769903941017,-0.00455325461781815
0.00468011566012511,0.0123495611530383,0.00437754884641864,-0.00393371162524093
0.00635054858138398,0.0138647253759648,-0.000144810533467574,-0.00244850275069707
0.00745554908201787,0.0159422162704278,-0.00442576395543431,-0.000433949562348389
0.00429641120790447,0.0135896962477734,-0.00621315503155829,0.00204889468118715
0.000646421036862318,0.00847318043882359,-0.00784206608235153,0.00413233780379815
-0.000428338477405981,0.00639664860938727,-0.00777216089424309,0.00473587028404507
-0.00444223215840357,0.00808116726073261,-0.00761334143207469,0.00359918915589878
-0.0104166393958699,0.00901992828440045,-0.00972144986606019,0.00114594253746885
-0.0107514381952073,0.00739238942369638,-0.00810364655704767,-0.00164287839535134
-0.00622953377383857,0.00576157606212417,-0.00389660874091048,-0.00332754656349136
-0.00433630853916076,0.00577461276567676,-0.00293142293028121,-0.00290712427009036
-0.00820533237690713,0.00687781744732121,-0.00309888342580734,-0.000482995531512312
-0.0111538044821986,0.00828717063935043,-0.00202687915706446,0.00282405822682189
-0.00715688851041431,0.00837490637045929,1.8441714964252e-05,0.00493071110233725
-0.00172591817484034,0.00650374348182518,0.000759926639544481,0.00436729210486289
0.000302932243307175,0.00436654357499083,-0.00088717976060897,0.00199934997050826
0.00245679667561829,0.00399208856748178,-0.00209484980661313,-0.000346076984179409
0.0058494089546814,0.00422953602275755,-0.00333512437720429,-0.00191811506703888
0.00692782869391737,0.00155168359601083,-0.0056330552180642,-0.0029448644835611
0.00534933077145504,-0.00329909868951051,-0.00885888905896659,-0.00357512718941826
0.0018512149587677,-0.00688959452109117,-0.0111527560277423,-0.00387556776172343
-0.00200832530472566,-0.0103607985721553,-0.0110505141530654,-0.00374971773794186
-0.00380347860262177,-0.0135228328855705,-0.0106662957800497,-0.00288349646008999
-0.00316422759505138,-0.0142327498064659,-0.0105996324385735,-0.00136904488050488
-0.0022857892440994,-0.0123869777648802,-0.0111834826132417,0.000351486373967881
-0.00223284096202691,-0.00882023620655261,-0.0122350010806926,0.00189384935225454
-0.00256597026073618,-0.00459307718909735,-0.0125624945756583,0.00276227395215287
-0.00543046829078026,-0.00189611233506272,-0.0137113600340487,0.00239051292644545
-0.00694595315217593,-0.00305067212268736,-0.0160864092722422,0.000753446592649916
-0.00181340617219663,-0.00524349088045286,-0.0184470606455099,-0.00123812240429363
0.00258450028354327,-0.0035748285897872,-0.0163125589992819,-0.00159034973126523
0.000967012580708656,-0.000100271427832477,-0.00852286127595898,0.000868161571936614
-0.00264006269446851,0.00393123634826917,-0.00290459459649417,0.00427691470193296
-0.00543407680408908,0.00542608001147622,-0.00414181967483542,0.00643438371579242
-0.00554645131945165,-0.00342780565444481,-0.00986338211233192,0.00673901487921475
-0.00198940584274931,-0.0169819712113764,-0.0156180145926246,0.00497525295275048
0.00293843430195009,-0.0234092300858575,-0.017884615355734,0.00264282372457369
0.00463519725415984,-0.0194769594320391,-0.0157358939253197,0.00184390545514638
0.00284550396524757,-0.00964985234274768,-0.0124902319197986,0.00198701438292575
0.002667693378634,-0.00111824808735516,-0.0109949534898386,0.000949030031945389
0.00200695413054321,0.00423347441745284,-0.00907327899828282,-0.00166062184377695
-0.00359867271483985,0.00742605023606817,-0.00481362582165185,-0.00343457440082423
-0.00784787078364221,0.00281304006142237,-0.00461572388322494,-0.00285657540011136
-0.00551928090709035,-0.00752874207574531,-0.0101416331424281,-0.00225616932921884
-0.000712909147312084,-0.0146870124396656,-0.0141089435294009,-0.00341639493846696
0.00126850777880251,-0.0165158872893996,-0.0128888499672467,-0.00466862546960694
-0.00155299481457549,-0.013638669615431,-0.00659956504209785,-0.00399526663167371
-0.00655592473802576,-0.0102822766319956,-0.000585596522891843,-0.00107867611629025
-0.00844399665238307,-0.00964736811359592,0.00157013587689064,0.00268017487054657
-0.00706441138510846,-0.00744981400562528,0.00435652205834714,0.00553307539667316
-0.00520928643279871,0.000409773744968072,0.0087628154695827,0.00722151393364592
-0.00546015798090401,0.00960839131491265,0.0117223460896462,0.0085449029163046
-0.00806957074122354,0.012287995861669,0.0111654499511692,0.00956576512267031
-0.00778835519883952,0.00849777747253477,0.00678578180233561,0.00902263574194074
-0.00212064045125012,0.00690100542226288,0.00349688824095938,0.00613628376250654
0.00606325839473026,0.00851238982547927,0.00490213078386706,0.00195856655636308
0.0133114222217073,0.00662507828217036,0.0084354746632583,-0.00203053087485924
0.0159803811630487,0.00383643175778402,0.0126091787683856,-0.0049020284087645
0.0133734384858565,0.00540557655996823,0.0155852964236127,-0.00591929262560221
0.00924229406861159,0.00667792737404084,0.0144179836283855,-0.0045947836045748
0.00582572496952865,0.00528067269061972,0.0113539581100838,-0.00134486359160648
0.00316927600261149,0.00463479779479303,0.00892216648146148,0.00202792431446421
0.000624105763236696,0.000934057712965782,0.00849858370170203,0.00334877607971287
-0.00287937835183012,-0.0105072601774112,0.00790836984795281,0.00196751813059876
-0.00739884559829822,-0.0222242190703712,0.00495975437213047,-0.000482626738351577
-0.0102089591043776,-0.0266970527107847,0.00494358470213101,-0.00176929615734736
-0.00953219413137816,-0.0262065428914982,0.00839254258414887,-0.00130814608251803
-0.00897537455890529,-0.0243052225630007,0.0112414768093443,0.000169078790168886
-0.0122145963871594,-0.0219283155648602,0.0130611070308718,0.00259870746250296
-0.0155483714804154,-0.018502773750719,0.0118145053955144,0.00655146906310151
-0.0150461305811275,-0.0119975834282449,0.00964533199694414,0.0104516188200194
-0.0136852909726807,-0.00338626750726349,0.0105981344037466,0.0109241300108026
-0.0116411260039112,0.0041548248625152,0.0133652280932806,0.0070789815621017
-0.00691742151342782,0.0133964865386509,0.0148258178828848,0.00165209826234789
-0.00225149474685762,0.0312856439785392,0.0144132289709048,-0.00234250019311578
0.00341355385270031,0.0513454120693081,0.0152062894227784,-0.00447853461714799
0.0120686471828872,0.0516225496145663,0.0161481326008212,-0.00577486838797063
0.0154043445243355,0.0286105419616404,0.0144380158334694,-0.00657508254748277
0.00953153139515261,0.00546856866518228,0.0109053828328557,-0.00653091387733831
0.00352252050469953,-0.00408386067295417,0.00960323751655653,-0.00577339040062763
0.00197251536131169,-0.00709095934398354,0.0110665124444741,-0.00534352055974042
0.000935322767051746,-0.010921177626446,0.0106483552248952,-0.00595484240984722
-0.00213523969474691,-0.0153207953542414,0.00955019698042219,-0.00722068189570798
-0.00483713952862359,-0.0143652480969832,0.0141586867132896,-0.00802404694176769
-0.00407167675994238,-0.00489614410437482,0.0217995168050307,-0.00752037726561389
-0.00262954654696814,0.00636048191888293,0.0232609000833235,-0.00555210900388332
-0.00327640466149416,0.00975893196076714,0.0193028414889227,-0.00197044011159228
-0.00567374730447293,0.00535769394792913,0.014972654481326,0.00304054240503886
-0.00725013597397922,-0.00272295974583921,0.0104104509391544,0.00827272898388225
-0.0060731635658646,-0.0112934019023712,0.0048009812647273,0.0118075363137682
-0.00625917825014799,-0.0146466495192182,-0.00144430018479936,0.0120025280115542
-0.00924168745532743,-0.013508490587446,-0.00464555754902956,0.00831979435701874
-0.0109725546814838,-0.0121527232299874,-0.00382803471670895,0.00213162408799116
-0.00965419479623322,-0.0102654801042045,-0.0020476540804874,-0.00367868894165678
-0.00748267149955285,-0.00752951674420461,5.80435678836731e-05,-0.00711828832382441
-0.00659598926252384,-0.0071255534521259,0.000659386138572788,-0.00824158021597184
-0.00732066970406954,-0.00744061556096786,-0.000856845212415875,-0.00794790297889448
-0.00790483966048825,-0.00365512142822033,-0.00148856170102881,-0.00670853882208516
-0.00557839570392747,0.00531825106621516,-0.00150381673285484,-0.00494187052763326
0.00047351477656738,0.019563753933974,-0.00303543863798099,-0.00362027462906068
0.00808631957367967,0.0384608052947244,-0.00459324664025763,-0.0033841815273946
0.0126098175630603,0.0494734120072098,-0.00492898395226346,-0.00375538315408976
0.0102657822394087,0.0383988581462707,-0.00601787836554835,-0.00387022094824051
0.00349394205318797,0.017402594905743,-0.00638852849605955,-0.00351006964010458
-0.00158415645963214,0.00638960847208212,-0.00396235756860358,-0.00322910704924548
-0.00362409648045326,0.00271802282087566,-0.00532211217026949,-0.00389542996924861
-0.00526364131434291,-0.000991968926459752,-0.0103564129446654,-0.00610604821879246
-0.0076696009246974,-0.00222690269731154,-0.00925725796743835,-0.00824035618374746
-0.00905535110866685,-0.00122807869093133,-0.00382298518285253,-0.00626674462066309
-0.00664654655140792,0.00054226783186575,0.00138622276878158,0.000923781066504465
-0.00197487805652144,0.00463332559603737,0.00724380616984194,0.00986353202723357
-0.00104994653862277,0.00837041902466218,0.00838508503842988,0.0171619462659738
-0.00534837421961692,0.00675596904534673,0.00586757858294604,0.0203646999217035
-0.00847831134624991,-0.000411756487290195,0.00770055230945749,0.0174604194464877
-0.00743933658111292,-0.00872838221110185,0.0108448822946267,0.00935327048037244
-0.00530925295780351,-0.0102995623746051,0.0115386074886239,-9.00572901856023e-05
-0.00417725484463536,-0.00246864695463675,0.0115899967388114,-0.00712250737980747
-0.00564323859652502,0.00795520756266897,0.0107470864323243,-0.0100889479340108
-0.0080825644433367,0.0136748206303698,0.00630181039861424,-0.00929295681440199
-0.00737231294478595,0.0128022618250449,-0.00125941225160497,-0.00632095526646457
-0.00295782038384169,0.00898926881647894,-0.00801321794211692,-0.00312236601349949
0.00285691730807104,0.00654511595302042,-0.0118519985406708,-0.0010125608703839
0.00701952730703968,0.00611761168702924,-0.0146162304634095,-0.000481671542263783
0.00699019996526422,0.00695716485421101,-0.0171888900480871,-0.00116287680584031
0.00291837378634825,0.00902123528233596,-0.0175890470296195,-0.00194636903938135
-0.002597577498957,0.00938137539100461,-0.0152843903081344,-0.00170959709280434
-0.00613930385937451,0.00459875141121198,-0.0117066545015241,-6.4378383907525e-05
-0.00619314537883808,-0.00228304759594631,-0.0087636940365224,0.00213252268329132
-0.00492252259489244,-0.00700128367379298,-0.00468487278433754,0.00377360753966898
-0.00432040228544294,-0.00940817381823007,0.00115957860184328,0.004720394939401
-0.00537956158911043,-0.00928486816295056,0.00611425584288868,0.00518077400202164
-0.00733583846352877,-0.00759769406011458,0.00961140921900733,0.00520199208534309
-0.00761754320988911,-0.00574542102479678,0.0133109339881334,0.0044462873437705
-0.00837400811528627,-0.00182136419015549,0.0197374504174604,0.00232934065293825
-0.0108334093998845,0.00391277592207418,0.0261501932660433,-0.000587231535518449
-0.0106970115162579,0.0117144676060429,0.0288688265868433,-0.00313089437910083
-0.0080893275212758,0.03066901376803,0.0306893194472672,-0.00418355066258608
-0.00542615119682721,0.0527344968824569,0.0315057665763972,-0.00220485747738611
-0.00334589933478973,0.0508821903277682,0.02827392325834,0.00233813758577171
-0.00443644854680174,0.0284356911086253,0.0228990861688366,0.00649353566139174
-0.0101836767817552,0.010056850675913,0.0188684357539409,0.00868437431938085
-0.0175385072622661,-0.00143225151466707,0.012983302401625,0.00895259154656872
-0.0226913782205963,-0.0139835293282933,0.00214434433665111,0.00621093709413291
-0.0224858721874084,-0.0267515388973076,-0.00865672371276041,6.34254576583632e-05
-0.0169894662165991,-0.0346270000392131,-0.0148124834259289,-0.00717278811869352
-0.0114312440945784,-0.0357621628589213,-0.017517088539784,-0.0123577840158215
-0.00888313384249103,-0.034425232184164,-0.0205907189962459,-0.0129428116654604
-0.00673758205186176,-0.0317441598649619,-0.0232696732345466,-0.00842841863130983
-0.000151513595861722,-0.0272621141699966,-0.0233033040386771,-0.00200790824780042
0.00814267691112996,-0.0237959605357824,-0.0222093799617615,0.00155920541223222
0.0115765281820658,-0.0180962180042329,-0.0212881566247746,0.000578606226969209
0.00963246707176205,0.000746807617294704,-0.0195595944422034,-0.00270510987460848
0.0073932740210664,0.0407451350615621,-0.0139737607761266,-0.00491490300933425
0.0118623382232961,0.0775660299242607,-0.00543662793839417,-0.00410926624445281
0.0181760792811884,0.0712972134389653,-0.00177958651502013,-0.00131054110135272
0.0152444809309517,0.0343617589032818,-0.00504930849986715,0.00113739422840854
0.0067280302815327,0.00786379080694492,-0.00938645013125239,0.00239481140023728
0.000573035778666523,-0.00196124521935423,-0.0102392412334801,0.00260164397677911
-0.00407968680068228,-0.00914366843411423,-0.00895291502101744,0.00185682833294837
-0.00751174174957824,-0.0188597869060373,-0.00986385587780254,0.000186441796183889
-0.00838124020878914,-0.0260416007371857,-0.0109400742728986,-0.00246553381172246
-0.00846165532347579,-0.0231230282996263,-0.0103322039442702,-0.00515584538053782
-0.00845985511313425,-0.0113471966296038,-0.0108188099980617,-0.00627214408370592
-0.00528641971473898,0.000197028273897107,-0.0123583624293756,-0.00530502233167122
0.00169112303029598,0.00769737770653086,-0.0127744095364061,-0.0026349050060652
0.00679481763473656,0.0114399778885646,-0.0117199663469872,0.0012344497085252
0.00653658005466861,0.0117084842566266,-0.0116508359064805,0.0057804346850418
0.00351701115120209,0.0115310630585148,-0.0130518141718755,0.0100368301808727
0.00175179621275965,0.0122898623131118,-0.0142999564818367,0.0115912205475232
0.00225107966892453,0.0134310074038667,-0.016283701323531,0.0082921672052685
0.00184691765803786,0.0124746766388409,-0.0190376588432623,0.00174559494779698
-0.00104713071059701,0.00731645842776314,-0.0204176367630372,-0.00365564098115907
-0.00181763340064597,0.00260910353424097,-0.0191031822440786,-0.005013500490818
0.0023010607433066,0.00239019231513539,-0.0156964257160268,-0.00234529690614007
0.00759828014238167,0.00234989747511887,-0.0130102336691515,0.00264312082027674
0.0137180798535594,-0.00188658928116834,-0.0130227959470939,0.00689113103092266
0.0174030458429714,-0.00708489747290435,-0.0133835506324776,0.00724083993271605
0.0137736938424336,-0.00616113790716834,-0.0109715687519041,0.00479397059550021
0.00806596567695754,0.00363016091406947,-0.00642171428595263,0.00435088460190712
0.00642342052624265,0.01275365423915,-0.00342159470244693,0.00632031285134261
0.00884345003190739,0.0119296185887679,-0.00432849064394098,0.00512387742567783
0.010174930152639,0.00326677564470193,-0.00802424726615992,-0.00188412033232632
0.00749358711213679,-0.00622619712685048,-0.0105897227769505,-0.0111446119070233
0.00367604238805341,-0.0097745337712119,-0.00848045305497565,-0.0183282720804756
-0.000261771585706487,-0.0064212047185823,-0.00246772361521941,-0.0202684985371377
-0.00365644367026904,2.6871002292532e-05,0.00420688460511251,-0.0146699070853447
-0.00589585611227851,0.00859369709393333,0.00792699779502198,-0.00333025004090589
-0.00694568710965394,0.0187846239607165,0.00785967956230141,0.00715210611284308
-0.0060632077015872,0.0233685767232311,0.00512266910775639,0.0116148816212123
-0.00690102349512972,0.018760569481527,0.00159258412077324,0.0115917580396117
-0.0104189446262286,0.0122749595902515,0.000159523192503053,0.0118688031050697
-0.0129158338549143,0.00944074408250184,0.000930022942118388,0.0135751904779774
-0.0124071951236356,0.00932011492920721,0.00416559799745474,0.0143591553212785
-0.00818296528534773,0.00990137151821831,0.00834596980510511,0.0139904528675385
-0.0034811954133525,0.00930039078887164,0.0102129779506667,0.0151463918502301
-0.00394739009702184,0.00672471239338575,0.0117885198832734,0.0185385090419955
-0.00878036806173912,0.000231235078050063,0.0120828506845128,0.0204187448965455
-0.0122860055281923,-0.00866739411718912,0.0097968828288929,0.0157144725765633
-0.00984182557513476,-0.0140032876939502,0.00833119272553922,0.00381269363715989
-0.00313483191131475,-0.0137465957347186,0.0072441727897833,-0.0100639450146518
0.00161378648255785,-0.00892985695432701,0.0076908491064707,-0.0201649189365974
0.0015755615374909,-0.00181226090711413,0.0102936835214074,-0.0243700909999431
-0.00262892278533833,0.00299338392960088,0.0101470976246204,-0.0236640471044106
-0.00488862363873164,0.00173187789628546,0.00519126638697516,-0.0195141456911983
-0.0027489288347547,-0.00160029199719808,-0.00068312737176308,-0.0119520001309785
-0.00275333735113213,-0.00178921114569507,-0.00360097064682031,-0.00162778004071598
-0.0066301098358201,0.000272296677001173,-0.0036847317195702,0.00827348372256212
-0.0109855679049171,0.00170994338853294,-0.00107729181029685,0.0158118372938691
-0.0151938451131236,0.00143860239766111,0.001884580562269,0.0228170796154608
-0.0189219601372771,0.000483245942838537,0.00268923327740619,0.0306522438505126
-0.0201384147366465,0.00111897434593512,0.00447032711165022,0.0351447398443461
-0.017051726843386,0.00450536291560191,0.00601507259775656,0.0284482280952262
-0.00954548729067869,0.00595931580090129,0.00444074645713335,0.00667338457003737
-0.00171863528697715,0.00236597964781693,0.00489460366710394,-0.026368022861612
0.00277150588877656,-0.00346641020027836,0.00814275420836195,-0.0608730727158983
0.00531066439840647,-0.00678934962401354,0.00811983020653742,-0.0828459374577593
0.007941225904,-0.00490864338735763,0.00570633157059313,-0.0795821656026812
0.00973783523073577,-0.000757532404914241,0.00549753680461816,-0.0505298683983515
0.00970591073551956,0.00220187624729721,0.00456649988931454,-0.0105332442857852
0.0105886252842609,0.00394773261534223,0.000377479035512798,0.0221772553566673
0.0143032017866665,0.00555251200688948,-0.00253862319340055,0.0392510998801333
0.0149470940665619,0.00431681470212688,-0.00195566570377738,0.0424257789892806
0.00708558438272883,-0.00177925278843217,-0.0011889867104212,0.0375971323785998
-0.00351430834501454,-0.00691597644010036,-0.000861616448349012,0.0307265894723893
-0.00812347756079188,-0.00579750812464068,0.00160439767703442,0.0244111951345184
-0.00635119736720812,-0.00137847912919787,0.00422022939415328,0.0175165822811025
-0.00653583886874246,0.00182320482895587,0.00299470607700928,0.00767780762816793
-0.011031374694732,0.00442331030779976,0.000889109173691125,-0.00457602323664568
-0.0106542717441837,0.00754498858340115,0.00323472527403657,-0.0149957282188868
-0.00502428188030359,0.00826883498168525,0.00749258845450615,-0.0210121862719658
-0.00328973961378806,0.00554038408227707,0.0096595070634507,-0.0234894408561428
-0.00395893550707381,0.0016059783925743,0.0111278701034871,-0.0241792594820326
-0.00202143631832627,-0.00223071655614713,0.0151142157206153,-0.0238998805529953
6.11887142852024e-05,-0.00346591149890377,0.0191528570577095,-0.0213775540719516
0.00156474486957659,0.000232127982479218,0.0174005500285186,-0.0158383610222135
0.00377466132536494,0.00456613938005244,0.0117794415278698,-0.0100922190242556
0.00558154773412782,0.00648030711263654,0.00765934123916248,-0.0071646195096225
0.0085386436589012,0.00638929060037072,0.00702800924221817,-0.00503653394743817
0.0140052348856115,0.00488360754858615,0.0103848300918367,0.000403538202103764
0.0163968446262405,0.00498216234965164,0.0155253814956969,0.00689931374788675
0.012543414410555,0.00768141268652993,0.0190028729842928,0.00774090429619409
0.0068774445468107,0.00894708768996209,0.0206132862379124,0.00152467110044159
0.00350415416248062,0.00575686957216309,0.0218671686759601,-0.00650308833593016
0.00356037457673795,0.001016985565958,0.019474624522821,-0.0101489291470535
0.00324021786900837,-0.0077494491938175,0.0117983940815133,-0.00823722461668051
0.000738944849684255,-0.0210968902080457,0.00455877846423407,-0.00446397209792819
0.00134967141617075,-0.0280172752015779,0.00166039693661598,-0.0012332530810537
0.00539677721440104,-0.025529209102713,0.00101554588747523,0.00181864845310659
0.00763802285940028,-0.0204455265017957,-0.000386963689479262,0.00505873056456018
0.00465483109888342,-0.0168217739123781,-0.00243411806986278,0.00889632371966078
-0.00241690941218038,-0.0145452093512222,-0.00408289178179338,0.0145820231740754
-0.00836838609677529,-0.0118897675039655,-0.00360657419689411,0.0213572229998378
-0.0102936988301379,-0.00700406075386162,2.45240772979594e-05,0.0255863815362404
-0.0106238532458349,0.00156854379049638,0.00580532385113955,0.024899293828007
-0.0109139306837228,0.0079556714394344,0.0092943575415752,0.0207245437946923
-0.00975336296596288,0.00838126147158798,0.00795253424689545,0.0161150515049437
-0.00621512724708614,0.0143178595703833,0.00588320204829151,0.0110558992409029
0.000584242736584733,0.0311599384994367,0.00600136467541382,0.00240608096561422
0.00700676866175576,0.0410092599989449,0.00640279332405967,-0.00974878058721167
0.00723048324089965,0.0299454360424516,0.0050219407684449,-0.0195920317471752
0.00405961716076139,0.0144303416155371,0.00392422457463048,-0.0221291734435812
0.00360617181744238,0.0144224109035118,0.00557972594617695,-0.0180013982091121
0.00481797313962271,0.0181865156663211,0.00738922553094229,-0.0103441613216828
0.00304995122668843,0.00892218595498125,0.00608231664957047,-0.0017764292824244
-0.000912735196029173,-0.00515869158165872,0.00228390471011272,0.00548689646500208
-0.00265804830662372,-0.012511349542964,-0.002468837870088,0.010038920771256
-0.00120178825110417,-0.0127054497529299,-0.00525880769071528,0.0123854496498478
0.000259195429085879,-0.00969124798993782,-0.0037564352102131,0.0140510244348153
-0.000402649599025898,-0.00711393674579255,-0.000984310613342132,0.0153040853966331
-0.00189507488724305,-0.0051663365718037,5.70451195870088e-05,0.0146378919146577
-0.00364322936488135,-0.00314050324092701,0.000343311436162515,0.0106514199181748
-0.00668215645023198,-0.00167937811933382,0.000528834879483971,0.00444606660628336
-0.0089270515231415,0.00262551781456739,0.00146485008908234,-0.00066145999270836
-0.00756888073764112,0.00831766814421969,0.00273868429722272,-0.00222639298736079
-0.00668210985579324,0.0108851504892021,0.00280252890092642,-0.000852336420005706
-0.00747456140807175,0.0145277072848775,0.00342373688027407,0.000622862105716426
-0.00607808335872781,0.0179172605734206,0.00447455667586219,0.000283808655691606
-0.00217940847867028,0.0164608076127969,0.00416911205613333,-0.000683947783702411
0.00250474712082333,0.0129898670052298,0.00292528013977593,-0.000625769470770345
0.0045965244349866,0.0113728936008299,0.00128893729904197,-0.000193965545435918
0.00344038128697895,0.0156584251265776,0.0033104279055439,0.000119353756165928
0.00482549900388816,0.0209284036383498,0.0112546101632928,0.00181386154718717
0.0107606633730792,0.0196681334306864,0.0180235000967482,0.00507084451598507
0.0145456659085745,0.0167249818081709,0.0193685541066432,0.00635996732041344
0.0136309886741479,0.0115784813915083,0.0177294205738245,0.00325870847265842
0.0101313045703856,-0.00565197038743164,0.0137144669202738,-0.00126759948579012
0.00513203649543342,-0.0303837238648094,0.00827449421774206,-0.00311361588519605
0.000115518359269979,-0.0460579514388939,0.0030039934628968,-0.00177018540154545
-0.00792812448497866,-0.0515362695672393,-0.00291822069958085,0.000764619473739216
-0.0169610411963038,-0.0524627587223176,-0.00763837002789036,0.00266441629341923
-0.0200774679802323,-0.0482078609075074,-0.0104993490990476,0.00348079838412194
-0.0220894383979024,-0.044248270944585,-0.0133815932748574,0.00434897193298058
-0.0244914624577916,-0.0448125653995193,-0.0152597196632496,0.00611792717092125
-0.0218972509252929,-0.0434198063515163,-0.0154460093851497,0.00645200000947816
-0.0141093205249036,-0.0363179156078569,-0.0157010781535036,0.00219189264728729
-0.00308282562775294,-0.0239359004499944,-0.0159844772161832,-0.00500534002189244
0.00948999013666573,0.00723474845403646,-0.0107674396009211,-0.0107731977749679
0.0221908234022783,0.0657907956538147,0.00038589997442505,-0.0135407588683111
0.0320134155969274,0.114428348666197,0.00954872172167452,-0.0132753324746217
0.0369173200223665,0.112429940608192,0.0114490314962103,-0.0087144185410951
0.0363838377955516,0.0813814668892029,0.00759733539783198,-0.000563078709986257
0.0328860673978223,0.0584310197293483,0.00292401833666221,0.00669525270595395
0.0277226919384789,0.0318890361836234,-0.000676074530713378,0.0110374386718072
0.0202400967916057,-0.0117177040085203,-0.00585056686815155,0.0127032378146531
0.00999966642206928,-0.0427581147512492,-0.0120488434118863,0.00826282683562479
-0.00433366790950722,-0.0450799640916932,-0.0162042077784812,-0.00341080175388558
-0.0178759901280284,-0.0387330357303218,-0.0176348168736421,-0.0146853183881779
-0.0244008090407487,-0.034031242237909,-0.0154914104520289,-0.0167298006808679
-0.0235009419412956,-0.0261958459251488,-0.0125188720765655,-0.00958946084304959
-0.018622960821106,-0.0172189008500222,-0.0140017023158054,-0.00170295137417839
-0.012177719852513,-0.0107537227304614,-0.017350720488947,0.000263060653855103
-0.00528338053437584,-0.00415900463454853,-0.0176733551920292,-0.00229484305926665
-0.000166005963922555,0.00567984954323287,-0.0156190769034331,-0.00349797307418379
0.00701115450204686,0.0143181960171762,-0.0148292263446157,0.00111115728752761
0.0181432517561967,0.0196228698180488,-0.0154832656361281,0.00960824038868843
0.0278020344437192,0.026450949249878,-0.0144959255789804,0.0149829044476884
0.0338585380605628,0.0342571621234336,-0.0132329230747932,0.0127078963079386
0.0330827057071262,0.0386804721238674,-0.0124125666289496,0.00430577938055034
0.0251962041920157,0.031650548997449,-0.0136047852182498,-0.00531636506198828
0.0166320051277508,0.0153260300839037,-0.020331681096527,-0.0123324253277083
0.00971359589238701,0.0087480844900045,-0.0255419271689447,-0.0152717330003573
0.00209649886038171,0.0166576619779419,-0.0228360515444797,-0.0130595482509342
-0.00530491475943201,0.0254327078472671,-0.01821384626006,-0.00600387038222551
-0.0102035198170012,0.0296471536948788,-0.0154780594836952,0.00254237525987349
-0.0149027740132599,0.032257245762103,-0.013646311898009,0.00959169713729284
-0.0193153709783602,0.0331995787673411,-0.0107923298501906,0.0133738757028456
-0.019303723870425,0.0304420330545926,-0.00495505538693346,0.0111629300850167
-0.0132504980673848,0.0242346170454494,0.000231720818003006,0.00255033206195948
-0.00263795306454139,0.0203969180840402,-0.000856487421561566,-0.00824124780479413
0.00941609785756165,0.0205112602590445,-0.00560052548971471,-0.0152412345796041
0.0183758289059227,0.0173191730253291,-0.00743182320985814,-0.014862652945194
0.0201767745011621,0.0117352088345718,-0.00525103436303644,-0.00916172646347012
0.0162387920322509,0.0106812290795185,-0.00144838392123688,-0.00299661141296733
0.0130756501659483,0.0122664939303497,0.00166331055775226,0.000448397569438428
0.0148964222454644,0.0109957520885598,0.00658113039808363,-0.000353036035853626
0.0180637520465744,0.00484469401781141,0.0138152474261465,-0.0042640098478452
0.0163082377070216,-0.00358278031881144,0.0175557013673426,-0.00716063831288684
0.00972866341078313,-0.00747055774698942,0.0175930273113257,-0.00585647622084498
0.00322233333183708,-0.00581731489906682,0.0160730290197001,-0.00119864476498635
0.000186974958766961,-0.00679681608091105,0.0126884190592121,0.00303209929516369
-0.00117077987936573,-0.0131482773527274,0.00834123815148417,0.00404713708857416
-0.0038165135725155,-0.0186423977985052,0.00380579385051078,0.00260564191710683
-0.00666659958087533,-0.0201040814623568,0.00139769889724144,0.00150488564667427
-0.00752049971136781,-0.0192329832202429,0.00195932654673633,0.002717479460028
-0.00664974674636516,-0.0166228159758641,0.00490620523515424,0.00694325256693762
-0.00329109406853898,-0.0140778322240611,0.00812614493962492,0.013845941033808
0.00133038632445824,-0.0138981558348621,0.00868679098897925,0.0207757908927934
0.00061170984013501,-0.0156406875228639,0.00959430073046265,0.0240599148403836
-0.00374278403382379,-0.0176493897683762,0.01004030293502,0.0231959957771482
-0.0053332700927882,-0.0193631062760265,0.00760017497993083,0.0195090808306999
-0.00539477957840421,-0.0230864963963074,0.00443067561177226,0.0119464371111432
-0.0057398564287154,-0.0288931671006297,0.000825659454919892,-0.000518654907235135
-0.00642910752464698,-0.0304834175605182,7.6040906905783e-05,-0.0149590518413552
-0.00672312226490056,-0.0263845047723278,0.00296180622249764,-0.0254298920772653
-0.00600583389860021,-0.0218061930049881,0.00665357046833217,-0.027189508811493
-0.00676341015400145,-0.0147099550978437,0.0109364087402852,-0.0200559344110546
-0.0085204352659036,-0.00473903192650736,0.0129631402073182,-0.00813774823358198
-0.00658561204510541,0.0012629696489842,0.0110747603246218,0.00201338647010147
-0.000426274429915909,0.000963013669180802,0.00665695494787888,0.00446304096629225
0.00623516270637055,-0.00444560854679995,0.00124094178949247,-0.00212750714269999
0.0121289588491464,-0.0112551908895513,-0.00158974897223317,-0.013023705853426
0.0188314534643805,-0.0144606391950335,0.000666225239653515,-0.0199704919077668
0.0211495338926754,-0.0135725770659363,0.00329277036635318,-0.0171026096252497
0.0149901769445306,-0.00878070802346577,0.0022737105978335,-0.0049596960130956
0.00816457530455614,-0.00191885589140979,0.00109019358531746,0.0108548049338814
0.0028876574063715,0.000751336206169865,0.00168262528076292,0.0234353651887984
-0.00413362924326211,-0.00274093646615991,0.00285935806987292,0.0276384996079335
-0.00919442727930641,-0.0101819416249806,0.00289198064601327,0.0210164604783316
-0.00982614161458485,-0.018318439335581,0.000497399842361868,0.00638806840784653
-0.00895786879688092,-0.0220042337505515,-0.00313368673983418,-0.00649345190418201
-0.00673227960066377,-0.0187763731742771,-0.00416782391197373,-0.00895814362846404
-0.0035691660147892,-0.0106310121327694,-0.000704660008520996,-0.0016460552642476
-0.00210077071287032,-0.000729931550972993,0.0035104605347494,0.00880099636039207
-0.000369120766793271,0.00686900464424328,0.0051692633142918,0.0165523173286438
0.0032442366352694,0.00562659569151579,0.00211098139134844,0.0169136908827024
0.00741118061225847,-0.00397779893845328,-0.00676859443335494,0.00621148677162492
0.00857147109047559,-0.0121322700557086,-0.0140505635061221,-0.012159710064339
0.00553336381985015,-0.0138122458740222,-0.0126187327304383,-0.0270695780304594
0.00264512355578101,-0.01007461594061,-0.00586464432077997,-0.0306442454864929
0.0041226642405811,-0.00668820921267201,-0.00252878260653858,-0.0259246471625083
0.007795949762582,-0.0101069463087628,-0.00517864370197485,-0.0207483070820302
0.00526628952087506,-0.0173237376090964,-0.00689204874839022,-0.0167421544674287
-0.00146574627031962,-0.0206259592596082,-0.00687943242149418,-0.00918252178973883
-0.00214748911088175,-0.0175714818855461,-0.00800701618735196,0.000945509512958246
0.00315913061788558,-0.00965166947667812,-0.00599184606954505,0.00376715328431878
0.0102888819604541,-0.00217805932885197,-0.00264126939304534,-0.00356803046067111
0.0124085235323038,-0.0023152618952929,-0.00355585998109002,-0.00947932847487191
0.00298058311210906,-0.00637448642988144,-0.00550660382531488,-0.00506457712763547
-0.00728354340142415,-0.00832738441717779,-0.00451709939532284,0.00411872304474041
-0.00857641097426071,-0.00709426941907173,-0.00206932911654738,0.00872688364962227
-0.00527473826459567,-0.0059727063389229,-0.00379998654584164,0.00731292105042982
-0.00234814129220388,-0.00900279156817315,-0.00858235548189066,0.00450403060822382
-0.000968122850927395,-0.0093211123905062,-0.00922782529117438,0.00472369064676927
0.00124214503154794,-0.00426074500301948,-0.00591280386917879,0.00820109744937929
0.002984169864867,-0.000733696439950833,-0.00183254408609458,0.0108472398991415
0.000566986318682104,-0.000449819863719019,0.00108085490092142,0.00935687617606592
-0.00104824627459659,-0.00178062117160976,0.000355691828307678,0.004255623189074
0.00224388852110892,-0.00471391021362883,-0.0011012478297595,-0.00182299899174208
0.0049534353501119,-0.0082917986581323,0.0013370639548295,-0.00602926944940159
0.00522495899843891,-0.01231631567861,0.00354359670164382,-0.0067961376653694
0.00683075996770938,-0.0177875341930737,0.0034185782969928,-0.00459269874138491
0.0113197380681243,-0.0231640152614803,0.00665033266154134,-0.00050789367333419
0.0140860737170075,-0.0260846485308193,0.0135738381110742,0.00443994144005276
0.00912128438035298,-0.0244415430428088,0.0188500428996145,0.00813345440662208
0.00244382875175135,-0.0199625146840219,0.0199410735198938,0.00851040088281409
0.00198962004334922,-0.0186310670353815,0.0159539709577641,0.00637723765751821
0.00132278598590235,-0.0203270518526215,0.00860729410139092,0.00459605363366066
-0.00593193398051896,-0.0205550451237638,0.00280176886435161,0.00462635505286827
-0.0130252548299245,-0.0184879423135386,0.00110848039101956,0.00599044620636011
-0.0139270804467019,-0.0164834089442216,-0.000204480435215128,0.0065573109110145
-0.0121816666271879,-0.0150978670682623,-0.00418306131149275,0.0036087568357747
-0.0101795262398305,-0.00893194430704919,-0.00565900043191988,-0.00203848220580969
-0.00697585208206799,0.0016185688736016,-0.00395959704457825,-0.00569476510414015
-0.00269871331081904,0.00646869386347521,-0.0043723253051475,-0.00440207140505999
0.00188319315741168,0.00914913322804553,-0.00560847415827341,-0.000659893928611051
0.00547717886428028,0.016528255676045,-0.00526373674183387,0.00147278413585054
0.00614844756236162,0.0191954880815215,-0.00313203380418582,0.00127277480373219
0.00109559810724826,0.0110283521117987,0.00032257075533537,0.000455244928816299
-0.00432452497067793,-0.000874524167811287,0.00380140440625692,0.000495233423625563
-0.00135019448053966,-0.00474912566276778,0.00806900890388835,0.00190264717628419
0.0063961741119911,0.00413715713464918,0.0131227302334638,0.00452615042479289
0.00932506633122414,0.0154141600517633,0.0184241191861093,0.00730545685900128
0.00296010554428342,0.0122770455470351,0.0216967967539875,0.00856588609900589
-0.00660572402168341,-0.000343447987244762,0.0217395375477168,0.00733188891770445
-0.0110489809788802,-0.00545566173117244,0.0209252733269233,0.00482386586430821
-0.0102231060625847,-0.00553023675028106,0.0180993063555331,0.00379726099178017
-0.0045914601253283,-0.00463415522281867,0.0121377216835916,0.0047248793689508
0.000872831581077703,0.00158524107938409,0.00723071519269412,0.00507658185052687
-4.95800335280176e-06,0.00774173141108061,0.00320047125381158,0.00371082859457598
-0.00329249358060275,0.00719237633619005,-0.00231130692104372,0.00231019747681788
-0.00354699101049028,0.00390422466308091,-0.00533211853148919,0.00161868973345076
-0.000820070337289392,0.00327991678836653,-0.0047304468160575,0.000652278934901293
0.0015216859982598,0.00474232159838726,-0.0036327150078302,-0.000564568520118915
0.00400549608942485,0.00432415941249171,-0.00501909401211367,-0.00166003659764493
0.00675225704401225,0.00302562718896359,-0.00879320375059173,-0.00395144511878874
0.00389470909208176,0.00326020570190304,-0.0124356572435112,-0.00803177241777876
-0.00201422407013396,0.00383905173981519,-0.0158538848048336,-0.0121588061516929
-0.00346999716305224,0.00661371416393612,-0.0171064943842102,-0.0146524072404962
-0.000169972435705172,0.0126983407425365,-0.0138317921394627,-0.0137740112421262
0.00597907176783286,0.0174626618989676,-0.00955127148419222,-0.00853609709538381
0.0100689850828064,0.019270520389942,-0.00593144208208486,-0.00203003336198183
0.00913158671021451,0.0173273914119286,-0.0026662522061676,0.00194326674877541
0.00538020773561896,0.0110195895817019,-0.0027314273439072,0.00271026892994103
-0.000422664524045343,0.00671522177460617,-0.00609347627629533,0.000761594026220603
-0.00672777190590122,0.00782821125420609,-0.00871382726881885,-0.00226737358586027
-0.0102689639906382,0.00912943347478459,-0.0108502927538196,-0.00404115475245656
-0.0102225510614462,0.00879391064756795,-0.0123449918749966,-0.00356399008129995
-0.00708046870330857,0.00956147369120734,-0.0107275975330226,-0.00116176828196617
-0.00306878747673082,0.0115690811040593,-0.00793974700305197,0.00198974958614513
-0.00164373309639696,0.0133064281400287,-0.00411427631209477,0.0046216928709806
-0.00430064985851419,0.0117617699860579,0.000351127417928023,0.00584135796564461
-0.00970744577045634,0.000449624195354392,0.00152329289518854,0.0049652375418617
-0.0151877693032559,-0.0223754998749393,-0.00176311018898421,0.00132098763232053
-0.0178982222380422,-0.0439001954903777,-0.00484989061531285,-0.00467803314027824
-0.0150983019212312,-0.0516606481958761,-0.00347776710768668,-0.00997323988509995
-0.010196257957307,-0.0534402725854281,-0.00236628604500559,-0.0111337367803266
-0.0114286414088908,-0.0598635470312484,-0.00552461838532919,-0.00808170716747831
-0.0182014323868604,-0.0625968242446953,-0.00914330749543008,-0.00288709942913515
-0.0236741360980911,-0.0533307030141229,-0.0106156067796684,0.00254284128661627
-0.0251490797094607,-0.03791728541054,-0.00974908994102278,0.00633830930930536
-0.0213969844077811,-0.0283240251996476,-0.00958065714078436,0.00780796814050956
-0.0125237446095086,-0.0261266459679033,-0.0112485599790358,0.00709591483823429
-0.000893671245833269,-0.0231514852582434,-0.0113076804938572,0.00344612181534958
0.00903822360193635,-0.0169955888767197,-0.00885328401086507,-0.00258287825199303
0.0130888257602959,-0.00272636419263994,-0.00307238487393909,-0.00784307046105065
0.0119317175154417,0.0211336645500918,0.00262389620489942,-0.00935850971695605
0.00886815964788098,0.0424247413020948,0.00325836997037198,-0.00693419531874154
0.00644453913835656,0.0544112081459092,0.00343084105902861,-0.00212435197433835
0.00918135776165688,0.0635394246304816,0.00538784888953595,0.00490100967618122
0.0162015872046508,0.0731988317138082,0.00688140687565573,0.0135668868746903
0.0197158855986718,0.0682030186391293,0.00590136492894707,0.0188767992548573
0.0126351273571398,0.0387825273693458,0.00369369323318685,0.0147164982342224
-0.00826381356086378,0.00264207972164973,0.00377822641852285,0.00178676288011173
-0.028783182664355,-0.0187513819907989,0.00472933439985198,-0.0121855154019557
-0.0294042887887595,-0.0254535920642353,0.00533481340121692,-0.02112136792515
-0.0158467955743677,-0.0306367592410654,0.00286938109713784,-0.0248303575363646
-0.00294919786026969,-0.0369315426040193,-0.0028889872274662,-0.0241213305340352
0.00428578047155006,-0.0378227912608747,-0.00675528697228502,-0.0173043019044706
0.00384942631050382,-0.0310323331427884,-0.00706705319224301,-0.00404170512088647
-0.00020156008177547,-0.0204812055587919,-0.00706605738059877,0.0107216362605673
-0.00205440153436945,-0.0102451223636093,-0.00802660444933709,0.0200535093218525
-0.000883483790148777,-0.00314011407038636,-0.00817080162212299,0.0208484270204258
0.00111129867386355,0.0035556214269132,-0.00535871995524944,0.0157261934625876
0.004664461876892,0.0135094992366785,-0.000666653031241284,0.0104634391272311
0.00957522190714709,0.0236075774772675,0.00351195079745982,0.00858115949702235
0.0102446346668735,0.0321136858960918,0.00675694047044152,0.00853624067242622
0.00502711021089472,0.0405708305715175,0.00776912219556519,0.00662771834942154
0.000462915247614027,0.0493500623178976,0.00423375950056955,0.00225004504638876
0.00189791311365956,0.0571538868924591,-0.000271621281677446,-0.00166329916272304
0.00652214950739946,0.0605721064893683,-0.00107069389835336,-0.00335196835489813
0.0112711553409455,0.0575829538715819,-0.000541529726341507,-0.00433422511388367
0.014193348873573,0.0510442852429175,0.00289000915415792,-0.00667783369918265
0.013314538585364,0.0456853993132667,0.0103048789153988,-0.0094771376754736
0.0123984420956869,0.0412361680679989,0.0158562291538198,-0.00939259984257081
0.0143299625439258,0.0329674810301351,0.0147274685308047,-0.00566088683996205
0.0171505748932973,0.0209316898660333,0.00826298991551091,-0.00277016908289884
0.0173922085065761,0.0118358903061974,0.00389598280710029,-0.0051814832406204
0.0108722544222911,0.010155935821439,0.00451880371012391,-0.0100727722469188
-0.000248192384188193,0.0112423065833205,0.00479962686519664,-0.00791552458404871
-0.00862527063478558,0.00901892807494148,0.00248147199540042,0.00589459678934547
-0.0116720258570263,0.00256528904893194,-0.00144250262753388,0.0210140964906853
-0.0127253293498171,-0.00464881789966558,-0.00743479044643384,0.0230207766164748
-0.0122658915092793,-0.0101958580859614,-0.013361521087326,0.0115472086534551
-0.00640315861854823,-0.0115580643362002,-0.0151986900619854,-0.00210947115621156
0.00369537549027929,-0.00681103997300124,-0.0116095540734512,-0.00971290975796782
0.0100211835697102,-0.00148465523284329,-0.00565772287601973,-0.00978253229193969
0.00914064518347434,0.00215032737975858,-0.000951684895904695,-0.00313402448049262
0.00729989904098044,0.00574936211179386,0.00120964378047486,0.0058641811616425
0.0103191120625043,0.00565056157308847,-0.00014116832783188,0.00679206923841639
0.0142809580747298,0.00453064429328082,-0.000351745550782111,-0.00641947192289162
0.0153259424448851,0.00788503271761315,0.00395363435197428,-0.023389414291578
0.0144550851952069,0.00833958982316578,0.00621310906408402,-0.0285453389258417
0.00621799007123437,0.00657045666368477,0.00490146907289025,-0.0186414796778744
-0.00818253186461308,0.0130713861484955,0.0038116876483599,-0.000637349536838722
-0.015618362091241,0.0198492886385047,0.00265017804397802,0.0173203745311752
-0.0190384478015489,0.0132088847051354,0.000632350977902156,0.0288308318928509
-0.0281127714181254,-0.00219160462960347,-0.0017296976176007,0.0305847595086233
-0.0347848413691991,-0.0136472534327674,-0.00318111029998564,0.023754616733036
-0.0331775158851653,-0.0175465824088345,-0.002879564622887,0.0126972434723932
-0.0296274116303107,-0.0161413535803064,-2.17710647501031e-05,0.00242332117943785
-0.0278928940399487,-0.0109822088493416,0.00593492099990621,-0.00308555698102999
-0.021957468997625,-0.00707973288725197,0.0112545517790579,-0.00398358587643006
-0.00688150918808671,-0.00941746455390865,0.0112221093983124,-0.0059785054693838
0.00893029738026631,-0.0153673232481644,0.00649938037215361,-0.0135066978625128
0.0159094145240882,-0.0185904054727938,0.0029277679627746,-0.0226075756300826
0.0153421125075821,-0.0140006716837682,0.00335994673180901,-0.0254666767015773
0.0121613243704835,-0.00358186842758278,0.00687927922245517,-0.0189620035432364
0.0110568405518947,0.00235057698948824,0.00945329273126506,-0.0060428084547338
0.0141413012301996,0.000787018511220943,0.00722008995599435,0.00690598587044335
0.0151274284386159,-0.00246631136795335,0.00211556577781963,0.0141488721419206
0.00834465124655451,-0.00465945169316358,-0.00301411143016083,0.0137547075430125
-0.00258584683140286,-0.00566320504993831,-0.00382531258855759,0.00693216546393982
-0.0117156926472867,-0.00550658166385314,0.000449036179084786,-0.00241634622894755
-0.0179297233535322,-0.00294198381799202,0.00574911756507905,-0.00939202117431495
-0.0243717917743413,0.00121392101248133,0.0100777323111956,-0.013134436401474
-0.030835480419977,0.00320519705895065,0.0108635998763797,-0.0152869898142087
-0.031242893765341,0.00458284841379144,0.00868744661902659,-0.0144766877598507
-0.0238324676429504,0.00645268108444179,0.00698321834613983,-0.00818237874564159
-0.0134173300931602,0.00608333014321875,0.00511076239028861,0.00293153418314513
-0.00180320582787647,0.00682034665543884,0.00529863001155711,0.0148112698490508
0.00970513027738647,0.00914390854543274,0.00835607513808236,0.0241749018803679
0.0120551019945202,0.0100409052379454,0.00881920373063548,0.0308172726694878
0.0045890942618496,0.0113414455817092,0.00468655900785103,0.0340222596111448
3.94453733930794e-05,0.0128738146963078,9.7063460185242e-05,0.0313182884085211
0.0024317520819251,0.0135939942625772,-0.000386042306231486,0.0241187325266297
0.00823631443588035,0.0116996849186297,0.00234263565192833,0.0174485798609613
0.0153028100880998,0.00354943652272846,0.00405582668148715,0.00848589051117258
0.0183526349573912,-0.00857617167819255,0.00309960532869444,-0.0122151943175534
0.0139280529916303,-0.0194798507341358,0.000583627281883852,-0.0412145202147972
0.00516631550167385,-0.0247972305434726,-0.00173571395330021,-0.0594151089210146
-0.00244980311055931,-0.0210930959656338,-0.000280040630170812,-0.0542430230344274
-0.00720984212992462,-0.0131710326981811,0.00492121977022135,-0.0311257881813441
-0.010510361236266,-0.00673994519366876,0.0102875789869339,-0.00110706317354659
-0.00994303506273394,-0.000726876505818635,0.0139397870281398,0.0258421402887279
-0.00459618133115447,0.00296292751959114,0.0145356051271824,0.0370423832306186
0.00025576114584365,0.00266504529997462,0.0141513170414218,0.0283106901757169
0.00253836765669413,0.000278998081855302,0.0133503740824132,0.0116709838433439
0.0047707257845296,-0.00381803415116564,0.0106700454818383,0.000351151051321798
0.00818060829449129,-0.00823830794298115,0.0079632815499028,-0.00115171151616877
0.0130783910617543,-0.0107261974218574,0.00439962321920557,0.00704508825427871
0.017266502603498,-0.010255677848076,0.000882712343611982,0.0197105063271084
0.0181531047601675,-0.00895992279138015,0.000448638052361455,0.0266760350277051
0.015740921586577,-0.00798508742219585,0.00075261634318845,0.0229159824369869
0.0117353468673511,-0.0057222813993797,0.000257869955936121,0.0133869578845273
0.00940462667525971,-0.00330864622017864,-0.000254197153950507,0.00492261050039006
0.0066675019595934,-0.00171302490209038,0.000614315670440987,-0.000823103172682683
0.00211666484197468,-0.000403675632098767,0.00236203530669593,-0.00485254842841671
0.00244261217501918,-0.00113447997839588,0.000671816697132676,-0.00717742425859184
0.00774704390570603,-0.00280078482258632,-0.00309628383198822,-0.0082460414437772
0.0102819593508574,-0.00196655662522729,-0.00476226079490031,-0.00859370194491228
0.00920381470852613,0.0019094729583023,-0.00333862524364434,-0.00589897226448046
0.00754255628306629,0.00835777264889825,0.000400539609072942,0.00138635291862735
0.00842442851419836,0.0119031248002616,0.00353068088069718,0.00793348547625605
0.0132413974258239,0.0087282223779855,0.00536880790243964,0.00511736942778279
0.0146895408571641,0.00367047894991077,0.00492822870817583,-0.00752340118821814
0.0114822391963983,-0.000590580666379998,0.00125845801053688,-0.0211218442481908
0.00941729507439667,-0.00378395251634016,-0.00053767499585581,-0.0281454667863831
0.0104546424266342,-0.00629174682850922,0.00159958796356936,-0.0274642487895141
0.0144671868527467,-0.00992065281744295,0.0042690159705823,-0.0207366099304771
0.0129013004398747,-0.0154370474231738,0.00402447357234651,-0.00995026788453846
0.0015486787819473,-0.0216049086439635,0.000677857881878782,0.00148517219307555
-0.0078000768159081,-0.0244282216164782,-0.00147563191399792,0.0101309398838422
-0.00952438580012423,-0.0215766920256829,-0.00112272341984307,0.0143736189719342
-0.00717286179744281,-0.0131924297658422,9.25254928281418e-06,0.0141693037632468
-0.00169738345189448,-0.00209392695137412,0.00233881865162741,0.0112735602357776
0.0056294528764097,0.0061377927249086,0.00530605970236791,0.00842517029425412
0.00980593826025661,0.010462686120723,0.00722828292158999,0.00711455400749034
0.00807764074122869,0.0126584085109988,0.00858838812823368,0.00729559662401665
0.00466822938135053,0.0100954217500173,0.00844942191187782,0.00766502588874565
0.000984958062473484,0.00154026064587449,0.00497476741542125,0.00571150543937793
-0.00218019589881723,-0.0061119798080523,0.00120880463801652,0.000125656048449586
-0.00258101081391534,-0.00753575952051354,-0.000790327502252761,-0.0070816506603386
-0.00361484573623738,-0.00557746679774586,-0.00158010305220187,-0.0123398799658392
-0.00650572779658289,-0.00329608895013249,0.00237900639631721,-0.0143007764824595
-0.00694262099020635,-0.00314574496408297,0.00647044545216217,-0.0149038708703027
-0.0037371383566942,-0.00582286224873629,0.00542072730321747,-0.0167442459966303
0.000811975140109628,-0.00806853957423849,0.00368253766690488,-0.0197579555806044
0.00439205723332591,-0.00723497471690714,0.00161372486828894,-0.0201319212549371
0.00549492200808878,-0.00440275757438644,-0.000450675662586972,-0.0141808407013338
0.00549436650549614,0.00215901751518738,-0.00051363469294291,-0.00423991499855518
0.00458048267854346,0.0111853972422076,-0.000202138884222116,0.00307193330972982
0.00181507362774889,0.00921755318529976,-0.000352774508922042,0.00441637970733917
-0.000219224779927013,-0.00234898008697542,-0.00085257734406926,0.00251465879528558
-0.000576041223405845,-0.00774846245597823,-0.00284310765677961,0.00198952194434313
-0.00314878939004743,-0.00666972705832968,-0.00421788758429162,0.00436628176974628
-0.00704898455737827,-0.00507630912681939,-0.00210731617137651,0.00830135936427594
-0.00541114654254928,-0.00264040484331956,-0.000464810604929396,0.0104555576083891
0.000785702990244862,-0.00105697198619021,-0.00121781184362028,0.0068639129597935
0.00245343508392096,-0.00223608880095167,-0.000613354124597478,-0.00063467430923524
-0.0029789862500985,-0.00275509835741366,0.00146388400409097,-0.00464783228670594
-0.00778571627512456,-0.00147622484569383,0.00157293378734799,-0.00269534514782707
-0.0075368335025513,-0.00110065558237277,-0.000499213858529322,-4.54784648906571e-05
-0.00590624142991519,-0.00153775733442092,-0.00267627510888745,-0.000140635821490345
-0.00546415894680132,-0.000198840783889648,-0.00327078850454426,0.000246663063695697
-0.00316137524178009,-0.000245141357824518,-0.00216656108842963,0.00397805465692755
0.00181915665965252,-0.0040879916702564,-0.00229457473020927,0.00805297822722831
0.00631812254462934,-0.00659483302659754,-0.00431916880053342,0.00863598134250965
0.00890647350567655,-0.00705381663199741,-0.00753472940171898,0.00625224308263402
0.0077519414772168,-0.0059428744433296,-0.0104304699959648,0.00346296693944683
0.00465346042084798,-0.00256208485188009,-0.0104120426328252,0.00127267079923088
0.00409099532438384,-0.000241667595948165,-0.0103197834695753,-0.00173923244802966
0.00389241223014559,-0.00144782063455275,-0.0128398579328771,-0.00731287747079593
0.00229652872142222,-0.00419349966414714,-0.0156667706768354,-0.013902475776636
0.00203621873839806,-0.00391745541617578,-0.0165804973044443,-0.0171084848628125
0.00217628565022504,-0.00136303935897207,-0.0133683242593057,-0.01420789951256
0.00128943237786127,-0.00109266183712514,-0.00981411043587746,-0.00618640553123528
0.0017645312404931,-0.00235553312211547,-0.0104431486056531,0.00309729807805354
0.00488104801126445,-0.00310460048957555,-0.0100181074740319,0.0089530896855347
0.0060072545891084,-0.00273990060928137,-0.0076142898983894,0.00966297260758572
0.00173369986246283,-0.00133287887622802,-0.0071161030907087,0.00768734257012092
-0.00447174266678166,-0.000473660642228022,-0.00698421836505134,0.00595326353270247
-0.00856819359664075,0.00131846645507769,-0.00684985344430455,0.00484734830928922
-0.00934809029205497,0.00300529284585021,-0.00566382718594526,0.00355635090226763
-0.00642663766511181,0.00152340119658134,-0.00239120898278607,0.00183213731593109
-0.00297154414591158,-0.00102392248770012,-0.00194916565053137,-1.46915151463638e-05
-0.00257769671293837,-0.00660371264188489,-0.00501763147784092,-0.000821792459898087
-0.0015623874198469,-0.0156149476738685,-0.0080524485450927,-4.41842665201016e-05
-0.000198109917210594,-0.0205550944942051,-0.0104932470956269,-9.44781140308072e-05
-0.00222127938251285,-0.0191774222687585,-0.0114434056211818,-0.00308000653625369
-0.00302822527495123,-0.0148324254184147,-0.011152224241786,-0.00740016721508977
-0.000379591051676655,-0.0085725668524604,-0.0104876359586355,-0.0101537311073962
0.00291410661140589,-0.00176642326889875,-0.00828875480303673,-0.00836338583435102
0.00389396012607162,0.00162376668621216,-0.00667472616286727,-0.000320328057806998
-0.000235324598422796,0.00176466615722379,-0.00732662865950391,0.0110384272088899
-0.00438891719284776,0.00102443084421429,-0.00808164440860917,0.0212791651621073
-0.00328159279349582,-0.00330298063668135,-0.00936493093427413,0.0279766403217585
-0.00222704318321407,-0.0109851309179191,-0.011819908049356,0.0280941584889891
-0.00575815471942193,-0.0151300563680802,-0.0142961448634489,0.0211260795432486
-0.0122969920056095,-0.0104352161975268,-0.0138266101160179,0.0129862540562333
-0.0189568950504233,0.000287235585128878,-0.00938381299197834,0.00939500112281574
-0.0213147406725186,0.00788026838470386,-0.0061163752697219,0.00728332537293186
-0.0194169980948764,0.00785461657397086,-0.00560508804075841,-0.00312710590502368
-0.0164548561606356,0.00381352304993529,-0.0037800815615492,-0.023019696913625
-0.0138816763031981,0.00283099812174335,0.000413339960422747,-0.0395565449979634
-0.0138396989374485,0.00413522999301784,0.00374269167928899,-0.0425490893128734
-0.0148715486295558,0.00137450265593133,0.00466425085163901,-0.034302663826423
-0.0144484648070332,-0.00436481702157883,0.00457867456669466,-0.0205484994200427
-0.0108534459276882,-0.00899355495623539,0.00323788984968367,-0.00527837953919001
-0.00435511070390753,-0.0114454812894462,0.00145369571431185,0.00780659812075968
-0.000104362716461831,-0.0150085116925559,0.000882674687243888,0.0179261306755635
0.00299205269504894,-0.01884737531582,-0.000881029954064533,0.026614446629842
0.00482424285673404,-0.0168124541538836,-0.0029041099727086,0.0326907368072758
0.00184769019816259,-0.0116185206795263,-0.00302788814141587,0.0327210304001625
-0.00043276750782429,-0.00630805466670432,-0.00324472063542004,0.0264399140127005
0.00144086799487689,-0.000505402794450894,-0.00398545067544697,0.0180072126001625
0.00306729740978666,0.000845742245302934,-0.00504562762602723,0.0110215678258787
5.758564172695e-05,-0.00152616182678962,-0.00532329246919179,0.00492577447112019
-0.00508711071720676,-0.00199371993840698,-0.00482117935599736,-0.00169811726794215
-0.00754665620419871,-0.00168922471682985,-0.00542746068435704,-0.006993754015619
-0.00847889870070466,-0.000531860672622262,-0.00356047392974149,-0.00829666275872504
-0.0107363895617372,0.00500781985723234,0.00392644472728428,-0.00500088681447508
-0.0146813795116818,0.0098346276097192,0.00943136185908262,0.00113751868706118
-0.0164561208328582,0.00575745282558646,0.00725672047631218,0.004006619131054
-0.012632627297965,-0.0027393996313037,0.00582056109580644,-0.00208004437437843
-0.00698179584486531,-0.00565995127537037,0.00769963959421011,-0.0137638403234782
-0.00424368370669316,-0.00318181675530142,0.00630559665170533,-0.0230681970785981
-0.00213840551154268,-0.00105463887434579,0.00149485116185446,-0.0273847635048565
0.00259290662801429,-0.00122664285375041,-0.00289695575295928,-0.0290736887208283
0.00751658207080999,-0.00247373930788688,-0.00279740604003076,-0.0300154943672846
0.0112088312547426,-0.0026217743299463,0.00129758962792488,-0.0278204822227448
0.0133075984310353,-0.00133183115131255,0.00463249886310988,-0.0155141390879223
0.0147413981391226,-0.00139168549569515,0.00358222871203893,0.00828124497232774
0.0166537041264784,-0.00307140739057765,0.0010415028012525,0.0300426715430812
0.015538127464443,-0.00320105594219169,0.00174819902918098,0.0344061033386508
0.0130893191025328,-0.00236246022220637,0.00191324770411561,0.0219029913028746
0.0106706876180956,-0.00187432381233381,0.00149861221378367,0.00513653230776703
0.00329387759521657,-0.000317498080694669,0.00475165332398584,-0.00544920996911107
-0.00541655592760005,-0.00128378641702625,0.0060721684856899,-0.00900506580535496
-0.00747158728879963,-0.00680683037347009,0.00366610890781789,-0.0101892130535497
-0.00568880197707744,-0.0116167866517636,0.00425319830129058,-0.00993503805906179
-0.0055081767646205,-0.0132158738125884,0.00646988834767364,-0.00418466383221829
-0.00706227427779883,-0.0124552958716723,0.00621056562418691,0.00476875918935921
-0.00771943359877144,-0.0116182621551075,0.00592280344523011,0.00582765749328647
-0.00481243584782319,-0.011126142369971,0.00643962621552125,-0.00418862450070059
0.000542560930382796,-0.00777833375285135,0.00539961818573408,-0.0145391454131278
0.00660141192606806,-0.000710368991481494,0.00268040948971694,-0.0146974593167423
0.0119249864365337,0.0119237993469727,0.001408062008196,-0.00526529040557782
0.0146562017644893,0.024621092270047,0.00312949238809855,0.00648555513883389
0.0143339389636819,0.023948974446038,0.0052955511340636,0.0151200820038344
0.0142307074917186,0.010206219323472,0.00563318593105289,0.0178690223716232
0.0157513262724997,-0.00227081186585712,0.00266413825863587,0.0141514813008406
0.0156710950102437,-0.00375797228693537,-0.00170034339979099,0.00566048449332286
0.0135774172904779,-0.000734884037393819,-0.00249773949750005,-0.00517863020987269
0.00889514362584501,0.000431865593690609,9.05094512884119e-05,-0.0128886942339631
0.00181079438807986,0.00266194212846313,0.00303101644436429,-0.0118040926204934
-0.0026616802132107,0.0051118391423369,0.00371639890366673,-0.00471937788002364
-0.00253072802819448,0.00747128154760055,0.0047378581338484,-0.00130939059084671
-0.00117779412916168,0.0103762907613565,0.00844322618272506,-0.00777846635082362
-0.00237742773328793,0.00847377341478567,0.00786481895340549,-0.0208169205528584
-0.0057972400783251,0.00214881409152308,0.00290629634737129,-0.0315942195134751
-0.00895246748956065,-0.000467743485032951,0.000927447553797789,-0.0332448572716656
-0.0134928702279886,0.00130996253817962,0.0027361932534391,-0.0228419673587204
-0.0191371560497062,0.00218406828397702,0.00468678269823056,-0.0010744500742297
-0.0191242054762896,0.00114711973508733,0.00317458788158398,0.023785589199507
-0.00999908208373124,-0.000490743412350909,-0.000701666522335523,0.0417514618759009
0.00286382079154526,-9.55403519911488e-05,-0.00158351127748715,0.0518128562533507
0.00972074512123472,0.00308849965185818,0.000188417940674452,0.0535087107180153
0.00652848641781303,0.00220923273291289,0.00110054162453426,0.0428126568850892
0.00168485196988934,-0.0031165855424646,0.00142370313503761,0.0236337885411643
0.00414339596976553,-0.00356031094411764,0.000711515046490604,0.00452227868817218
0.008127983398791,0.00232798541404981,-0.00113526975392682,-0.0120509328517464
0.00504933335231411,0.00827662113777564,-0.00260816943250507,-0.0255853853534844
0.000687237336543817,0.0111345977413782,-0.00307294783522796,-0.0337182354509548
0.00240461783886149,0.0121213995221017,-0.00211464986473983,-0.0355166138243219
0.0051843484947449,0.0121661881386489,-0.000676733245422174,-0.031578683647048
0.00350325451417744,0.0118100870278168,-9.94393293193988e-05,-0.023652694761474
-0.00114358331675901,0.0103818624792088,-0.000454890237686443,-0.0137870927016722
-0.00637535561888034,0.00769481592117741,0.000100503691670701,-0.00354034370767376
-0.0111805864832285,0.0073938721966498,0.00284662409872691,0.0056782876539421
-0.0130430472387823,0.010648891199433,0.00656041337615087,0.0145159570691991
-0.0101279965214801,0.0125347738995545,0.00879787418002103,0.0230049492893368
-0.00637340189983603,0.0104167970839251,0.00874531721886119,0.0254129863993412
-0.00387606455603909,0.00811851043676944,0.00802954453112887,0.0176612247182708
-0.00221133884204649,0.00685648149713175,0.00821327304528238,0.00621672191008764
-0.00122081714228883,0.00398287153796414,0.00881072693906811,0.000369646999384257
0.000418051790529303,0.000406190082964828,0.0083133096198825,-0.000245487731834837
0.00351699980756666,-0.00184228190402362,0.00707887153591998,-0.00179905472761172
0.00715698135763505,-0.00276485953314864,0.00624700606225503,-0.00339393564355323
0.00816594449315079,-0.00480902762735057,0.00607384915297407,-0.00164766943218644
0.00655498772947385,-0.00842382392106402,0.00555421772590956,-3.13611382343474e-05
0.00578175657018195,-0.00881831182889077,0.00519014030502842,-0.00173197639273384
0.00802290490762866,-0.00678835832507153,0.0049459110186308,-0.00529392377118583
0.0109672994174529,-0.00659643729025305,0.00225856642454764,-0.00896370410751012
0.0126379252948181,-0.00621942591323529,-0.000266948685459435,-0.00986307604778892
0.0113545702763089,-0.00244471639512005,0.000130377151808986,-0.00553332020372271
0.000148051385295955,0.00358784316935679,0.00140178301928447,0.00106953644378501
-0.015158782623017,0.00854742646035487,0.0036142864201264,0.00616189254302483
-0.0156670688935806,0.0093492025285179,0.00551971949378587,0.0109895564660427
-0.00421791980206348,0.00639438035858338,0.00290683906449934,0.0172508921349457
0.000600671712116934,0.00221898471578122,-0.00455622274480623,0.0212032706480154
-0.00384831668920053,-0.0014043439827688,-0.00988066285167313,0.0188146103604966
-0.00835399280080958,-0.00133295509251906,-0.00918945355509241,0.0118880740281263
-0.00882732534412971,0.00280636818329218,-0.00469401865170333,0.00348080364470419
-0.00816573950504364,0.00717983989669766,0.00241754800250735,-0.00418672973075198
-0.009156646415345,0.00979997911043847,0.00873923367873789,-0.00734691149710901
-0.00852938395310817,0.0114548228523482,0.0125735411553874,-0.00308228249849949
-0.00331925851838238,0.0127706961041444,0.0145920706082781,0.00502787740048576
0.00865563616285882,0.0111532098195359,0.0128939755498213,0.00689681961924815
0.0247735969820063,0.00338069011142625,0.00760711759777146,-0.00525543518814104
0.0319580134380625,-0.00836062224737638,0.00222201409358967,-0.0270152273025527
0.0286513834078034,-0.0187269893527368,-0.00228726437293267,-0.0425300261149165
0.0228582443434577,-0.0224980385806206,-0.00537456771589951,-0.0410746459869917
0.0164810663555157,-0.0177734996545917,-0.00544783123821112,-0.0249528803575496
0.0100825444028402,-0.00928234615006039,-0.00319568415961368,-0.00167002399135868
0.00288427795861753,-0.00178654201859086,-0.000622742622399326,0.0202099404867299
-0.00692488306133532,0.00380941789165404,0.00119457784247798,0.0342507545956497
-0.0142785908201907,0.00610057166100651,0.00259708825693855,0.0391023653617877
-0.0129031584170074,0.00595880254327604,0.00148177890593554,0.0345899913710072
-0.00684680869767045,0.00457233329390334,-0.00181511418144488,0.0209202903025613
-0.00395744378438878,0.00144473150868347,-0.00389655850274822,0.00394135316625029
-0.00631867411659598,-0.00334128922775433,-0.00467168863484352,-0.00728837286279056
-0.00825270601898681,-0.00708932959607988,-0.00420014489877199,-0.00828764927740311
-0.00341111869266023,-0.00649923055533949,-0.00584049775246871,-0.00076416990202625
0.00500926755195097,-0.00461019143439188,-0.00942533947523697,0.00828452456105501
0.0131658243903902,-0.00422495880656813,-0.0100723671122422,0.0100998044126403
0.0199025840651913,-0.0011087535514642,-0.00840987124113242,0.00326804072457262
0.0204670531842903,0.00996458432712569,-0.00455576754154336,-0.00197216786085255
0.0171267520964729,0.0218291550951232,-0.000508776704749367,0.00362141119413645
0.0154690033569738,0.021933561692099,-0.00168819076035916,0.0111025224874954
0.0124395493177204,0.0124012777192048,-0.0069485903778415,0.00549940949543357
0.00787454350493862,0.00484686129791159,-0.00960309621541152,-0.0116646304704967
0.00597531104697794,0.0013796541349834,-0.00808758399152158,-0.0284927048346451
-0.00100738717548866,-0.00123691810446423,-0.00258556350071091,-0.0348027181936847
-0.0177652771493904,-0.000248901630536169,0.00677860376018125,-0.0240702987236664
-0.0253247828818049,0.00223104642554481,0.0128708832566682,-0.00258802689000225
-0.0105878010064573,0.000459944122804746,0.010087797143419,0.00816941422276336
0.00929834975132889,-0.00492653658537333,0.00408771067363544,-0.00683199346320034
0.0160728086091809,-0.0110811080030624,0.00142616899226139,-0.0386843430635609
0.0140428873644346,-0.0131330559797763,0.000459026173712934,-0.0606871570821877
0.0142547865013421,-0.00752242176593804,-0.000681518079936451,-0.0531594031976895
0.0156285693905354,0.00245325939890157,0.000768577347218559,-0.0225789858120985
0.0124697430384462,0.0110152960737082,0.00423946569176958,0.0133655658070585
0.0102454388877216,0.0148516376445721,0.00629685512700775,0.0448166455592853
0.0140946890776447,0.0128176620228817,0.00596650180013557,0.0648905729937174
0.0154001377826629,0.0091366321534294,0.00319495071047628,0.0664179887041675
0.00983079587507387,0.0102604828442153,0.00138483399384438,0.050119388471891
0.00255588288876926,0.0121521785943386,0.000778069341730657,0.0258446261523296
-0.00522851661214687,0.00921467075594778,-0.000829366356817319,0.00278594840564187
-0.0133105763207871,0.00511747920636194,-0.000658699912890364,-0.0152563997103837
-0.0160845493161277,0.00239809160265098,0.000570308347780574,-0.025869092002007
-0.00983103272207264,-0.00187729347953815,0.000148439112853793,-0.0291790846224614
-1.8727642701933e-05,-0.00655634018759385,-0.000957798804597836,-0.0290957916469063
0.00658572371235851,-0.00597469928215211,-0.00207144232968914,-0.0265170074411029
0.007234054553223,-0.000222937129518132,-0.00170706669347419,-0.0177968055596102
0.00242747254987367,0.00497155343319521,0.00131303475727191,-0.00129312259237914
-0.00165627760399623,0.00820761777550147,0.00568327105891894,0.0167346147138907
0.00040162619111434,0.00988008930216444,0.00828440923260754,0.0230624378454182
0.00630838825296608,0.00672598344346115,0.00716909494138383,0.00925208227991428
0.0117300623092761,0.00224584881359745,0.00558684247852168,-0.0187637145264639
0.0109566242803993,0.00358668053963101,0.00778516442274,-0.046408714071339
0.00294062984633637,0.00891385547788784,0.0122927874992849,-0.0593941713411731
-0.00331177570110908,0.0168711270780006,0.0153285773151481,-0.0495225746149807
-0.00405139447455238,0.025627722220948,0.0158413797566055,-0.0238483079089892
-0.0019691441237148,0.0275032060636199,0.0142271827314264,-0.000588547949547442
0.00262881632127636,0.0182911977661308,0.0103824091510643,0.0152874403394183
0.0102330037298802,-0.00353956084572714,0.00219808372316408,0.0346354865795326
0.0175638782844179,-0.0259658337594332,-0.00652974799801487,0.0555911358853778
0.0169363416969053,-0.0280384119180417,-0.00813106081787877,0.0621496229011463
0.00619810890546863,-0.0123496472529046,-0.00358803512722627,0.0498929230365647
-0.00682095889913445,-0.000204173672963503,0.00220380640679996,0.0287451624647354
-0.0137221336945831,0.00120689841970565,0.00642359761485405,0.0111132614058183
-0.0164142718774763,0.00339158201941498,0.0107913212158052,0.0052876289212983
-0.0204671962298157,0.0112987466201817,0.0185923844304777,0.0101851930954176
-0.0211637492066054,0.0172205860391115,0.0250829569059982,0.0153558053555185
-0.0135019246407388,0.0148121938728383,0.0237974383182554,0.00547343806297063
-0.00189820858067823,0.00698652157513335,0.0165522912330609,-0.0256170386850168
0.00421361465848348,0.00108918369994846,0.0105484044923875,-0.0571052136484154
0.00199345358701023,-0.00259784918486861,0.00832786654107213,-0.0613732919602619
-0.000561526106904403,-0.00486906738757539,0.0060080702022261,-0.0398710580370568
-0.00074015522731602,-0.00433903653012007,0.0031333382181481,-0.0128628318168213
0.00128798063881217,-0.00288699835426404,0.00115396524641837,0.00867752833899765
0.00524345568621136,-0.00104438688677482,-3.51350930347417e-05,0.0234510750223232
0.00623625866813936,0.0015141530758686,0.000788703619384022,0.0299488987239874
0.00711290632309462,0.00505257300610773,0.00223683529468227,0.0269664212613986
0.0105719269967485,0.00942296959001844,0.00259344365366514,0.0166681471359321
0.00998347578566799,0.0109911697162021,0.00133402887590377,0.00514062536666122
0.00403853265860202,0.0082795189672666,-0.00269957031049277,-5.68302541369935e-05
-0.000426923593204259,0.00452215037921657,-0.00644725948009935,0.0022738554147221
0.00147892332128558,-0.000309189354407907,-0.00986050793737968,0.0048097875767571
0.00475848866784972,-0.00595016738089071,-0.0127780839333971,0.00222884353826916
0.00160661728457139,-0.0078777861184024,-0.00972397782510653,0.000953101669729743
-0.00554639696993664,-0.0021444479731011,-0.00221972806729116,0.00875046570240075
-0.0105240027874948,0.00895151845574879,0.0054278316655417,0.020318930572599
-0.00996836837006257,0.00821731079636498,0.00610924640510247,0.0299345395951168
-0.00303979057795978,-0.00893607153916321,-0.00308653549534857,0.0356148782051991
0.00404623859200377,-0.0219767959145973,-0.00952587412194437,0.0252285366024838
0.00341722462429157,-0.0238364179971492,-0.00908470321832019,-0.00573122542175483
-0.00339981368263424,-0.0195674748138285,-0.00690106170976744,-0.0384982396343004
-0.00645920798679311,-0.00824691090328524,-0.00394820201889067,-0.0579646715600123
-0.00500886413128237,0.00457484705653291,-0.00209582707342716,-0.0646938236992021
-0.00861459834864761,0.00980719925990513,-0.00148612010798193,-0.0530252925497303
-0.0120837953512978,0.00649150437463554,-0.00433235143028678,-0.0196523079066586
-0.00729450258965165,-0.000117674941887085,-0.0115626726205453,0.0140125519173802
-0.00171166969488021,-0.00519815208403374,-0.0187521334076699,0.0260816790026101
0.000328754650376562,-0.00741088967809715,-0.0208214673390411,0.0206856732204813
0.00356961370167232,-0.0048271187628039,-0.0164150053237393,0.0137890884642777
0.00944404780069623,-0.000307017538417744,-0.0129366975279832,0.0136850015447167
0.0118238403288386,0.000182034357734506,-0.0156596274953736,0.0194908583784874
0.00555393557083912,0.00268850986558021,-0.0169342401323105,0.0237869429339412
-0.0013303879861402,0.00903235409106727,-0.0141394507603716,0.0170577594343112
6.3454502654374e-06,0.00925918549613389,-0.0137198888458032,-0.00517909061230006
0.00307323741398743,0.00211042251985814,-0.0142600028531353,-0.0354429532365584
0.000187999706826001,-0.00591102065048057,-0.0147379126067288,-0.0529737324267092
-0.00571511230563795,-0.0105184303527506,-0.0173565432481557,-0.0443590306695138
-0.0100022622098029,-0.011016874626523,-0.0185232164444409,-0.0206690424802998
-0.0129699671420829,-0.00862765526222694,-0.0171057278804806,-0.000257583553437336
-0.015672466151217,-0.0038119369787169,-0.0163016747264625,0.0121457131527825
-0.0159166162066184,0.00187384306152104,-0.0154333903160792,0.0189916502550192
-0.01224037166319,0.00376318360065343,-0.0137208615014293,0.0161549697009869
-0.00789235197533018,0.00317873650995002,-0.0119101857574856,0.00365542055547298
-0.00518513399918361,0.00435399145919687,-0.00877601477549535,-0.00479010453816785
-0.00452656542336055,0.00468093082139091,-0.00379299107952344,-0.000975483653678853
-0.00647007241616968,0.00292047151499777,0.00193504909887351,0.010951603080677
-0.00754265576686761,0.00630336015884781,0.00791070984225155,0.0286443695026823
-0.00152354368618415,0.0120047571330275,0.00908013273075227,0.0463918726871149
0.00856514250177179,0.00698451387710282,0.00256463142101704,0.0464950185028503
0.0122709618735384,-0.00425546166679493,-0.0053635331456549,0.0219376806711838
0.0092025044109065,-0.0045729381068187,-0.00758259325899731,-0.00785401728034349
0.00755775775857523,0.00372935248427377,-0.00434165111144211,-0.0199345881916589
0.0107921869038697,0.00394878119382168,-0.00292145971944765,-0.0115715977733033
0.0157357893006514,-0.000816362202904987,-0.00498364348288626,0.00317704373848944
0.0171315293228747,0.000628395873251052,-0.00496434368641112,0.00978311721524875
0.0149223238510046,0.00305368129693,-0.00406653958796784,0.00410484767399893
0.0115660663319643,0.00159921170329656,-0.00621356310581629,-0.00754625786905722
0.00820211489904849,0.00241972944499319,-0.00703767162835176,-0.0188152027839541
0.00820436561528156,0.00770482450323621,-0.00338154358768164,-0.0315171919121361
0.00952135218144802,0.0123685814390969,0.00164754254124925,-0.0453491658786256
0.00730115836396841,0.0152284019093152,0.00579300830723322,-0.0451954437129432
0.0046294827592831,0.0193735520472254,0.00956793139640614,-0.020278882099017
0.000586157994167918,0.0206455517311821,0.0119702449422293,0.0129542065343789
-0.0124171143767306,0.0127628634538246,0.0102982591907111,0.0331999022125477
-0.0321874774828524,-0.000886769760113308,0.00518393296500047,0.039381340764617
-0.0436380910674724,-0.0106089148274764,0.00182644503031659,0.0381747549444378
-0.0366147266116945,-0.00974822975542119,0.00291426836445913,0.0343420827962464
-0.0168708591112301,-0.00372652594633071,0.00422117476648748,0.0325710496852352
0.003076882673763,-0.0014323318053452,0.00159853863133719,0.0305341559705097
0.0133817328488717,-0.000111869538483102,-0.00115359449616662,0.0219088621124295
0.0149339418318976,0.00288753949158528,-0.000840792186357932,0.00863807900955291
0.0122989956240104,0.00370395295012427,0.00108105964022485,-0.00233178190876339
0.00834307333460996,0.00169309805590514,0.00248871645607959,-0.00812179797477102
0.00547713932545073,-0.000331968557755696,0.00117391116900113,-0.00868511865893056
0.00407486833884338,-0.000215619391617356,-0.00167414138700056,-0.00745756682731709
0.00468965799236098,0.000724210486893299,-0.00433029670757812,-0.0134020179293203
0.00634401360405189,0.000766195801161453,-0.00563429860653738,-0.0275088500312209
0.0057283266313503,-0.00147809245233044,-0.00532610046526248,-0.0362955238160377
0.00206133514706681,-0.00598975079200096,-0.00634495058212592,-0.0296657527510034
-0.00290416378189531,-0.00776084570070865,-0.00741695555777825,-0.0093999599778298
-0.0068978095334424,-0.00708618125337852,-0.00669281051249544,0.0177116390343973
-0.0102505399529586,-0.00540473574059361,-0.00605776049421173,0.0386146191545666
-0.0156849934539782,-0.00142979316279462,-0.00639846309752912,0.0357876069517866
-0.0208403674280111,-0.000764480767790636,-0.00860035902196811,0.0065459149970052
-0.0248178169237092,-0.0028425313738023,-0.0082703814892648,-0.0273816515381064
-0.0307946368339753,-0.000871619352114717,-0.000735357710854407,-0.0430741439006363
-0.0355151035597734,0.00204703254207389,0.00538334406070822,-0.0371068398731905
-0.0342118989732119,-0.00283942817486412,3.03893796169763e-05,-0.0202526832200442
-0.0319697869697961,-0.0138637149536131,-0.0103868855412314,-0.0072904731293632
-0.0322372380666416,-0.0212873596742819,-0.0139602150602619,-0.00408992006423062
-0.0302595163583461,-0.0214216660655379,-0.00995403743476522,-0.00614256023076326
-0.0217832184114069,-0.016344709181786,-0.00685519047978483,-0.0151009540406732
-0.0052086257197444,-0.00975415095567933,-0.007628953014861,-0.0309090931696727
0.0127473812771679,-0.00253649078996685,-0.00653961832869993,-0.0353865147286227
0.0221161322431473,0.00361273427447656,-0.00138770549618072,-0.0140564057864146
0.0195587557864274,0.00422340488564004,0.00383083698053165,0.0187396238434229
0.00965652596210374,0.00239766715525726,0.00599166431697458,0.0335626265644898
0.00351628407915011,0.00142804450092576,0.00260412196568686,0.0189239794621834
0.000925761075719546,0.000513917886387413,-0.00425192908717301,-0.00560007071277403
-0.00892246751439543,0.00115728148419702,-0.00745254111621608,-0.00999234754665031
-0.0231241887966981,0.00160656922706293,-0.00736076868095605,0.010328946496471
-0.0290334023057718,-0.00186213426539126,-0.00948894296213675,0.0235086624433295
-0.0290276992861693,-0.00315409637965198,-0.00990817854138925,0.00690219666919459
-0.0315749824480688,0.00155439539261571,-0.00347422812609347,-0.0120515387372498
-0.0319681804973482,0.00164819145004755,0.000746659175286409,-0.00351692469918392
-0.0250310011467002,-0.00388977699103698,-0.00225470103100078,0.0130784429688655
-0.0146325579031585,-0.00247210410833511,-0.00369549284494172,0.0134198430654209
-0.00462552729693717,0.0020933217428722,-0.00135775023849661,0.00828878426056897
0.00106943986248502,-0.00560496785954773,-0.000458056256731154,0.00906930669365179
-0.000762655113577071,-0.0164575143647681,3.52769167206971e-05,0.00737513630096619
-0.00265462710425474,-0.0133987147590537,0.000721307359498644,-0.000610728689952912
-0.00100025387020354,-0.00189403542647682,-0.000134768163285495,-0.00600691626863481
0.00177475309130397,0.0124313859917916,0.00262356673429902,-0.00452334912330456
0.0131125455405297,0.0195125587896536,0.00900783564563436,0.000311500139052194
0.0299953991847566,-0.00341391286633786,0.00338731916445915,0.00336088487673705
0.0328946366008243,-0.039292472503671,-0.0148895382603488,-0.000659574708312443
0.0178867684477501,-0.0438230921168787,-0.0199933995079898,-0.00905766068277315
-0.00124902517911465,-0.018618891294475,-0.00647443267291192,-0.00876589771721934
-0.00966260528495197,0.00285856183993321,0.00466508445020011,0.00610652440860138
