0.0210411374350783,0.0525135679678491,-0.00729751304452897,-0.0153615009367884
0.0318658033581138,-0.0174511821694049,0.00711842989208844,-0.00897753075546682
0.0325103142045648,-0.0524476109187939,0.0236419135211243,-0.000381110670194449
0.00851679232315847,-0.0199783442001498,0.0309762770780941,0.0104041746615563
-0.0338005589773788,0.0441046076724604,0.0305897381422927,0.0239104077637426
-0.0598151190531818,0.0783815400041276,0.0262710055513986,0.0341629613850326
-0.0508123862425087,0.0597897757270073,0.0108064580554892,0.0328558841754606
-0.0215260446854303,0.0170750187469734,-0.00792431322379585,0.0205223141760029
0.00792515816928144,0.000461333152301787,-0.0149700476230583,0.00336339885544274
0.0187066848219574,0.0206203706132839,-0.0158061877347124,-0.0151578696511581
0.0164670430613756,0.0567982582768467,-0.0183869796054286,-0.0315561508325594
0.0120992694494902,0.0867184123580706,-0.020158553141518,-0.0391802836489052
-0.0100772679453827,0.087226759991384,-0.0190892734435872,-0.0334806378681326
-0.0458292827735793,0.0299019007536021,-0.0131926956947388,-0.0182471339242716
-0.0531383224285865,-0.0848333661143938,-0.00162146402245826,-0.00353604435723306
-0.0168842266031611,-0.202852731955186,0.00817447738293037,0.00490560371377868
0.0292168070666179,-0.257043061706818,0.00867274651327499,0.00934117277700713
0.0553550999978314,-0.192370323515596,0.00593937737661796,0.0119956970068454
0.0682994287055617,-0.0389151016574642,0.00897401805022633,0.012404533530045
0.082846198352926,0.0690951661920045,0.0171079270029672,0.012195914480623
0.0927600258767352,0.0612736194350389,0.0250154618325383,0.0137952359773594
0.0953811163030619,0.0118176153223221,0.0261520373843381,0.0178196144359875
0.0915829562919728,0.00488798360114581,0.0186914800584045,0.0244412954937848
0.0683301255697517,0.030954333180337,0.00747352013935318,0.0295455944963445
0.0228195021904286,0.0498484020735396,-0.00261986204788322,0.024281540874925
-0.0237602912113459,0.054969775453139,-0.00724641552023739,0.00660104826870649
-0.0546101710632959,0.0542801311169734,-0.00444627970863851,-0.0142810690895921
-0.0780702625146789,0.0515762686466053,0.000531208056570299,-0.0273771696412164
-0.0927792343665939,0.0258368083289045,0.00390773733257671,-0.0287518240323459
-0.0777720555599462,-0.047476182244119,0.00732694247240488,-0.022240694925485
-0.037180014919821,-0.134116789015665,0.0101040910488489,-0.0142907438524788
0.000397443300189898,-0.176991664847179,0.0122543261398984,-0.00857430279659662
0.0186603495466194,-0.164501930641266,0.0154695044044753,-0.0037260958792402
0.0208417800925665,-0.118229440701416,0.0184498373346618,0.00358697728037125
0.016253060306593,-0.0652990917604564,0.0159005606022613,0.0125445738871566
0.0142729454057393,-0.0285103162009156,0.00502925755696043,0.0190846671995545
0.0225183879598468,-0.0177867167172307,-0.00503133796665531,0.0214583226396659
0.0333032091061974,-0.0207095143190438,-0.0058969998848068,0.020790920348588
0.0333855774429641,-0.0150780917584955,-0.00282250268871458,0.0189145587980409
0.0264625682299887,-0.000460736986173028,-0.000592591636474435,0.0168451163765998
0.0204254980947799,0.007647900078601,0.00390050967920268,0.0138847797535665
0.0159676621843999,0.00766796628235487,0.00881799006613195,0.00879636334411218
0.00971139202044992,0.0109691977712847,0.00748851026706402,0.00203227615639941
-0.00213869394473663,0.0190531881158693,0.00143924661335992,-0.00495109207063405
-0.0140612340715075,0.0221605041104486,-0.00232639658035398,-0.0116280989113153
-0.019515359593475,0.0147703366074407,-0.00189347516441434,-0.0174467964126314
-0.0226140579564201,8.4132411807547e-05,0.00088147034600225,-0.0206287269109122
-0.0244522080925478,-0.0179673094683572,0.00470924046500962,-0.0190807640026765
-0.0220275544657298,-0.0346213121590613,0.00739213700487125,-0.0120391687584047
-0.0195581648465566,-0.0421759538117166,0.00608315431421742,-0.001679573208804
-0.0174592916340463,-0.0461818578476538,0.000828968420392624,0.00807402725504752
-0.00589082106747858,-0.0559921592129115,-0.00396917915514015,0.015041183137546
0.0179266378820708,-0.0652659344857357,-0.00506117299810402,0.0194496289101216
0.0305849496497366,-0.0688429838812484,-0.0046788814703625,0.02101608777847
0.0141343851467813,-0.0661941110373312,-0.00470407417820894,0.0178736817235736
-0.0087109185116062,-0.051631347949215,-0.00413945175889716,0.0105327759712931
-0.019176755249125,-0.0211509847676861,-0.00477156795973893,0.00371773360647495
-0.0250844383591061,0.0197802440341168,-0.00770857828602154,0.00181807522661222
-0.0306082492546669,0.0547790974806476,-0.00924296315841116,0.00461612628318303
-0.034831243439441,0.0718405828193099,-0.00684246241786076,0.00814232331743917
-0.0301226445068231,0.0737183209553134,-0.00280087008254883,0.00761111615995411
-0.00596868805016063,0.0645193602964712,0.000329576477745598,-0.000154325076108398
0.0227682681406146,0.0484934926823608,0.00348309748314557,-0.0147663965417674
0.0403263665355881,0.0304324738759948,0.0052685285797055,-0.0319635468607868
0.0572175989062437,0.00086022397361242,0.00442414662041652,-0.0447406423744811
0.0736195652899203,-0.0395755032462049,0.00487154666523689,-0.0475830199378416
0.0646286440596771,-0.060764092126498,0.00572225598110638,-0.0412161022572315
0.0223142267391699,-0.0467553294725158,0.00316730826489025,-0.0290113509206965
-0.02129268046998,-0.014794225862834,-0.000176183218924866,-0.0119629544325943
-0.036284042716788,0.00273452749990257,-0.00136029618236631,0.00764568329896406
-0.026809682391545,-0.0036948670633816,-0.0022138446658249,0.023729833681281
-0.0152251460192803,-0.0113335799805146,-0.00317888532790551,0.0316303419755794
-0.00755002713775864,-0.0128722362897163,-0.00111347194826471,0.0312151059357284
0.012052774614263,-0.00790811539842583,0.00271813617851435,0.0250741114506769
0.0324267099019432,0.0119418356129435,0.00624422229092807,0.0172992068778352
0.025392567752003,0.0369398548969385,0.00840644754010509,0.0107605698164145
0.00381223829861491,0.0504068752751054,0.00473249309367332,0.00495952487869565
-0.00521362672666656,0.0496557200357748,-0.0017325893776188,-0.00103044178234859
-0.00241322934350908,0.0411183856998911,-0.00324846715759345,-0.00669826786133502
0.00398438609847168,0.0317952706173701,-0.00159076451463739,-0.0120553344950064
0.0117461597070003,0.025868017849682,-0.000299794283200813,-0.0172836634423793
0.0171238428933149,0.0226605724524643,0.00145326521888845,-0.0207722907664648
0.0202371918842119,0.0207107806823263,0.00372947223231211,-0.0207703567546738
0.0226062654834146,0.0199778142194706,0.00659087692278876,-0.0175411765466527
0.0216906186018944,0.01892323368655,0.00897548276946188,-0.012621176991053
0.0194954333657226,0.0104747113837244,0.0103338213611499,-0.00765549458540413
0.0205771898664408,-0.00683856555343148,0.0122137144155776,-0.0037819506623887
0.0229570479408856,-0.0127769118168137,0.0133175222535193,-0.00129806959929519
0.0227804293616169,0.00333171812585436,0.0141131130976963,0.000344047466671459
0.0201374943010163,0.0223240477077518,0.0151152290516582,0.00207737635160232
0.0157452823329074,0.0299505570597581,0.0117386312970804,0.00414416612683296
0.0110388668305623,0.0310051027142114,0.00423994802148749,0.00593571306200564
0.00841919784225777,0.0323660372327494,-0.00130938936268523,0.00655300050084834
0.00728321142976115,0.0330966352678328,-0.000807915963677447,0.00555744197555482
0.00626336628795184,0.0313719436119005,0.00477803845835631,0.00380363174488534
0.00483257982791154,0.0302741543672948,0.00799276108499025,0.00227963830740534
0.00237715958499485,0.0314964254740014,0.0053440669134286,0.000694406279750467
-0.000484997645550057,0.028942812980016,0.00335429720814719,-0.00108456920319458
-0.000992338782426615,0.0173549217408455,0.00519949376992388,-0.00232770015712678
0.00157143107426636,0.0092083922186952,0.00674426532662883,-0.00278054674779315
0.00266584073664002,0.0176242664093719,0.00583142354005174,-0.00246341738361256
0.000260014612601326,0.0307042269228924,0.00470144694243245,-0.0013363585834752
-0.00505409869903572,0.0337893889511579,0.00410414179135563,9.94997638267252e-05
-0.0126711227572684,0.0313860741513676,0.00364448463180296,0.00100950480906635
-0.0186343944287684,0.0325184426455407,0.00359451992592416,0.00112271444555357
-0.0196825470019501,0.0406197223995082,0.00312657148824649,0.00102850911362239
-0.0183833632483915,0.0517465399252811,0.00300523528431145,0.000822133532140165
-0.0190184486354132,0.0571717949633073,0.00478799214174944,-0.000210076920812611
-0.021140127336873,0.0561330138022952,0.0060825167075335,-0.00111850251265243
-0.0229414975807741,0.0543554472746754,0.00482132879507413,0.000582325909509105
-0.0194261796692623,0.0322132681286043,0.00360780297295653,0.00489608159653228
-0.00815055989877014,-0.0303226989829172,0.0042996958040531,0.00883310164867164
-0.00258832259438396,-0.0868219441669033,0.0053242657439384,0.00985559177146104
-0.0108708878580007,-0.0866957372074668,0.0059139341767345,0.00785057781402329
-0.0214332246477961,-0.0491290988004691,0.00785090574953529,0.00438128848997848
-0.0222076347214298,-0.0120483520083617,0.0101530897445257,0.000571963895113105
-0.0144154175921045,0.00707290592337581,0.00945748051065801,-0.00285172785116924
-0.0116435117256105,0.00959289867195153,0.00543639818600619,-0.00436737620606091
-0.0203350728750947,0.0109871499197457,0.00161398225696364,-0.00325931994104373
-0.0273015960666147,0.00709365221854051,0.00147852228267831,-0.000986689506042743
-0.0229616654207496,-0.011000344301422,0.00350102699244722,0.0007491015394948
-0.0166299314407977,-0.0161275222190748,0.00105280207578261,0.00170335063034118
-0.0153496675594247,0.00465117642237626,-0.00727781753056426,0.00200612361234885
-0.0157036008232015,0.0256951922843919,-0.0136409519878904,0.00140487714649404
-0.0172488667977152,0.0302042491998053,-0.0136904066138214,4.36618914570678e-05
-0.0201401693963531,0.0216580295997536,-0.00881869373320273,-0.00148632020601857
-0.0226200549192713,0.010449250930181,-0.0023653331114696,-0.00251065290407743
-0.0254362363288428,0.00186957089301462,0.00112692770860667,-0.00271708578141481
-0.0328263618758153,-0.00735106265524453,0.000476213144469387,-0.0023732014900431
-0.0486141509648327,-0.0188085146500481,-0.00210949924260653,-0.00166191179239575
-0.0621103240718921,-0.0276245869633145,-0.00366373640285174,-0.00064476954761124
-0.060289037644132,-0.0282374459174708,-0.003485266630465,0.00070500216099553
-0.0497962263337323,-0.0216172173344464,-0.00241115394009472,0.00264523955453715
-0.0419837379249808,-0.00991580618323167,-0.00115980154121845,0.00472881935027567
-0.0364915804989928,0.00243099385407556,-0.00130813337174846,0.00540354145323101
-0.0256684953087608,0.0043553495800223,-0.00276396040775888,0.00366207069781127
-0.00403488475473125,-0.00337722368090485,-0.00469960809137747,0.000923468553726213
0.0237395099066391,-0.00605536928670388,-0.0061696509508929,-0.00044694296354061
0.0500578143901488,0.00333967202397578,-0.00634958260062631,-9.84742809540374e-05
0.0704374899964591,0.0153503653924469,-0.00648148347279977,0.000576845944529914
0.0715585125891629,0.0178952194455886,-0.00801660804090796,0.000857538804747443
0.0480705553535183,0.0137788521310873,-0.0100285562675223,0.00141550332610854
0.0249045478041319,0.011554041214856,-0.00954143847534415,0.00290176280409991
0.0202710205243285,0.0153024884211801,-0.00665514161623327,0.00474144782420736
0.013477716121597,0.026015455552937,-0.00584804373964357,0.00529566198423621
-0.0197663142466123,0.0438667472019288,-0.00794764137291411,0.00364028937384047
-0.0677471482386987,0.0726859352426298,-0.0100962431208913,0.000436487579742142
-0.099690772521302,0.105879394524819,-0.00983544592778377,-0.00318692833736226
-0.101333809149497,0.114904107801012,-0.00622103549690428,-0.00629776582864337
-0.0900618991037457,0.0670444755557312,-0.00282725234375309,-0.0086417570293993
-0.0841921961436351,-0.0128010324538576,-0.00359034271487481,-0.0104304513428257
-0.0736796407769726,-0.040293316477893,-0.00816832163001381,-0.011108069058069
-0.0507034649616095,0.0133463047181319,-0.0136509492523403,-0.00973841535350329
-0.0183705615456706,0.0984405030268748,-0.0188996826827872,-0.00616341982240047
0.0109871705051529,0.16171254244111,-0.0197477898393926,-0.00074051929342067
0.0211561426922342,0.162843866686914,-0.0142443255665845,0.00520192910603228
0.0237926367029312,0.0864507329441344,-0.00879092838963174,0.00918343332265813
0.0396783421639474,-0.0160421596264949,-0.00436693759035526,0.00990994071556272
0.0621535416632164,-0.0404599235685151,-0.000315763480104989,0.00819992862710158
0.0639217001902785,0.0532847950636021,-0.00108405390460789,0.00568301344365126
0.0406843582541197,0.144663477537333,-0.00553652867476276,0.0038877305228951
0.0177346437469802,0.0887421304379059,-0.00768267796917694,0.00367532952640637
-0.00102601948429477,-0.0573869688158043,-0.00590599123581476,0.00515300026348629
-0.0192514118366697,-0.121247551265435,-0.00252326294648486,0.00757312651031986
-0.0199890805285128,-0.0723771286722846,0.00110753009046021,0.00893985140706555
-0.00553700533049765,-0.015387281892901,0.00415866917519163,0.00675084246487301
-0.000970734715717136,-0.0195422898790852,0.00494891477789779,-0.000269746751448224
-0.0228324074964695,-0.0638349436068008,0.00400116181252245,-0.0110809169438317
-0.0615913591811426,-0.102680825104647,0.000697665681336657,-0.0231708109871528
-0.0836904164618223,-0.121202266923317,-0.00539935151927974,-0.0341043909860193
-0.0589322923276512,-0.112487616028606,-0.0101400785244145,-0.0419336773992299
0.00115230584012951,-0.0699207951847616,-0.00722666649338123,-0.0447299996682845
0.0264618175728605,-0.0144223463753938,0.00230547340583532,-0.0394330530905526
-0.021539227146411,0.0258682467148187,0.00455550114962087,-0.0230695643395442
-0.073897400490383,0.0374697400982868,-0.00433945668144838,0.00242100238111561
-0.0406917137214019,0.0238154866409495,-0.0118219685456042,0.0290860810007566
0.0576617873410822,-0.00272775013367328,-0.0099795407116175,0.0469593289573709
0.115091148943907,-0.0269437291185379,-0.00305718179153239,0.0486809036420657
0.0974611586455902,-0.0339741076070098,0.00370128687325767,0.0346885026271916
0.059214312011533,-0.0295912240679881,0.00918748084139343,0.0138500971174779
0.0366368843682629,-0.0353248310681318,0.0108266828110491,-0.00158384168228313
0.0188289214446952,-0.0670907806634397,0.0102007061394713,-0.00380862798315367
-0.000871700944030343,-0.100722461855375,0.008932017245939,0.00384786824323364
-0.00632351193069776,-0.100179915031848,0.00413537685607376,0.011596553924096
0.00245581151156112,-0.0780327198854794,-0.00115605585019474,0.0122905322855891
0.007541367098289,-0.0687563074310591,-0.000989218114510078,0.00503244568980687
-0.00022208426040915,-0.0848228928047517,0.00299532606361106,-0.005851908611591
-0.0111509377836633,-0.107380592454278,0.0056337892135546,-0.0157582957986845
-0.00409052220439306,-0.11013041822638,0.00424657188824072,-0.0224980337740653
0.0240304074764028,-0.0885816564504779,0.000127197082631387,-0.0254529267620489
0.0495712460813955,-0.0583071063556295,-0.00198723645409187,-0.0245276735004186
0.0610901814182642,-0.0337941988240636,-0.000889852546118352,-0.0198794682309572
0.0650135771837417,-0.0202902243401305,-0.00022970324033498,-0.0126488237760636
0.0549404459407872,-0.0228796624772394,-0.000699824157428936,-0.00530088140440707
0.0265974520029416,-0.0364831018338752,-0.000194364086508861,0.00013699870234404
0.00228397923887772,-0.0461280832604531,0.00263972115224787,0.00431259164771739
0.0116663933421127,-0.0444570693077795,0.00683173662379267,0.00902247634604174
0.0460269656132251,-0.0336748040620999,0.00730199106786791,0.0161307721014339
0.0594330880793352,-0.0292507698542301,0.00543068880815482,0.0267593444116384
0.0372355723809105,-0.0527035052594396,0.00630739196686554,0.0366494919262882
0.00606069147241666,-0.0827832611789678,0.00960704335590822,0.0381830997808381
-0.0121603919038456,-0.0664913309584611,0.0115944599730977,0.028317251109593
-0.00684507505965425,-0.0125102106763475,0.0072371556288971,0.0100745307577388
0.00974173362816436,0.0301738218212015,0.000888486902168265,-0.00927234927631228
0.0126838673337389,0.0527497616375309,0.00191402128932246,-0.0217893872121871
0.00436572822966045,0.067098188510472,0.0070500812403054,-0.0250236841369831
-0.00122192671931923,0.0660752971676939,0.0059372539307468,-0.0216619034989752
0.000858703470044138,0.0461227210730732,-0.00086774018601261,-0.0135182341593915
0.0115344684982667,0.0298983322677845,-0.00330862931489295,0.000745934805512851
0.0237419855431081,0.0310664491038246,-0.000735261213023872,0.0203076979286811
0.0294824138503711,0.035867379748236,-0.002464567241411,0.036740498420147
0.0362865796689248,0.0212590484868669,-0.00855197947562047,0.0392344436750061
0.0575882100490678,-0.0330492552749123,-0.00981252960513726,0.0251726777619346
0.0850024776731465,-0.103879430189754,-0.00377151059338386,0.00355800840316185
0.0910383906402163,-0.121958677890423,0.00282912471810663,-0.0118288780529769
0.0599926388453669,-0.0712306167653238,0.0042806011043613,-0.0132720514402704
0.00980950689572138,-0.00626467527709623,0.00202787910414907,-0.00400671078831452
-0.0280282955020368,0.0352109449457377,0.0011651783813684,0.00731452469781458
-0.0428913707497253,0.0512292575648716,0.00390315510785407,0.0142293262974104
-0.0336804603271488,0.0470135828934939,0.00740591469709953,0.0137073678090945
-0.00775643764212824,0.0421298321900294,0.00901054878118382,0.00648372275071474
0.00460110986222942,0.0610011337453103,0.00837928443691948,-0.00172598766968092
-0.00698292359515824,0.0790475964005488,0.00767288487092154,-0.00524791177150525
-0.0173040064285004,0.0563822189629359,0.0103460273750807,-0.004595705297091
-0.0115804294364025,0.0164383622331395,0.0140276785010771,-0.00406728398333217
0.00166992305863604,-0.00226787237001558,0.0138381333560907,-0.005868011464496
0.00901249664427161,-0.0036829387291719,0.00973239588527139,-0.00920885481828982
0.00897748580275466,0.00345847750374748,0.00602796177956124,-0.0128508265921885
0.0109583029444992,0.0151716766431731,0.00447957317884206,-0.0150698848554078
0.014984906338877,0.0069560044972905,0.00176967493584388,-0.013306260312135
0.014673730892894,-0.0311597889817024,-0.00227456887025821,-0.00735203116146807
0.0138329308201536,-0.0676007286016047,-0.00551876031811375,0.000401584866889376
0.0159224152824807,-0.0773804009413981,-0.00746769053906282,0.00798341355272936
0.015209487292421,-0.0706177152595504,-0.00746425834979583,0.0139771074430387
0.00973304155271557,-0.0626371791037075,-0.00664253039047075,0.0168267720719422
0.000319668289566049,-0.0549182850559099,-0.00600123427907511,0.015478659249251
-0.00873673870039501,-0.0434360980063899,-0.00600699383488514,0.010129496751067
-0.00520051739691785,-0.0223378362344959,-0.00671249540488522,0.00296320756504348
0.00950460616107446,0.0105027785256439,-0.00527274886757831,-0.00258501658701879
0.0220429565703649,0.0419871345313781,0.000300603758377741,-0.00491760385798574
0.0294669623335309,0.0639841962436673,0.00797825834092661,-0.00570844468154992
0.0323594688270021,0.0886315011384969,0.0128701934055318,-0.00681194013685181
0.0296917316999362,0.11562343791307,0.0136064658668534,-0.00779617477185396
0.0221694518637204,0.132645194556153,0.0114246795529371,-0.00765738821335058
0.0125414540600705,0.141334174631029,0.00846833153854383,-0.00639744093241677
0.00733349036081661,0.138502542461596,0.010467205251878,-0.00446170299518823
0.00503696450278425,0.0977008050029962,0.0161048919128694,-0.00289924520016344
0.00151085971182071,0.0150298016805068,0.0183606084150139,-0.00340914428272349
0.00300327805255842,-0.0598377790605298,0.018747122041109,-0.0063061989967332
0.0118496909071785,-0.0787343745411875,0.0192276948562077,-0.00949932219393811
0.0243159793408329,-0.0384082730733149,0.0135412408992997,-0.00996584489417621
0.0305863876240989,0.0168189167109222,0.00109804328398222,-0.00543691031600699
0.0208616968976972,0.0364434896035045,-0.00823580440765643,0.00288249448611119
0.00733379490455173,0.0121892769699126,-0.00943837365704739,0.00944350520699392
0.00438503909633785,-0.0316144932519282,-0.00604420623188404,0.00959404993292203
0.00458104040955573,-0.0579843879632729,-0.00195668604711694,0.00353667549788512
0.00178248846920352,-0.0413363037326885,0.000639547905400271,-0.00534528295102999
0.00139734589493001,0.00867948635914559,0.00132249122263908,-0.0130526301336176
0.00422384853571281,0.0535969629238661,0.000223193996156777,-0.0174829944314222
0.00779980799570212,0.0691509062803851,0.000743802173258825,-0.0196588799155163
0.0088220572750768,0.0683083096992869,0.00457693032417134,-0.020495154279551
0.00433997288642094,0.0626001044145079,0.00716193825928677,-0.0184920567298779
-0.000674825655506361,0.0500601880990926,0.00711398991369744,-0.0123943853118062
-0.00163800395136004,0.0354413913794292,0.00571011464456487,-0.00375172396756009
-3.37022951165313e-05,0.0223170894270274,0.00410204162530024,0.00435874552162909
0.00174649369826318,0.00934417915190904,0.00324662370706557,0.0105868459554687
0.0026977428744024,-0.000145869309033835,0.00269709982721792,0.0146442036716643
0.00407003124932224,-0.00243249230651526,0.00232641515520028,0.0153812669305736
0.00559583282399134,-0.00292516028634263,0.00240653102490345,0.0126266060105049
0.00473437797862274,-0.00739298482036058,0.00246790999693646,0.00796795233218161
0.00271501790371523,-0.012891684821502,0.00148296170445714,0.00284273229362241
0.00260639292729985,-0.0155368129116661,0.000602777899122791,-0.00185810429679718
0.00278784863218421,-0.0164756490289307,-3.18305789125681e-06,-0.00526629078617643
0.000984241538823235,-0.0185731297903097,-0.001111857099615,-0.00695529638245124
-0.00193202730642759,-0.0206152847619467,-0.00126833546723649,-0.0071040468896118
-0.00392539172841303,-0.0197204055977544,-0.001069435522933,-0.00631930746168081
-0.00352945044680219,-0.016085672646298,-0.00161988478453773,-0.0052721239278766
-0.000567920190989495,-0.0113535966556672,-0.00328317420163385,-0.00444913870889823
0.00318070170616346,-0.00743151797255431,-0.00543785119656578,-0.003902103274704
0.00568518331445616,-0.00540241983591969,-0.00626974399854044,-0.00344159110948301
0.00559852070638284,-0.00385267213261615,-0.00549470589656918,-0.00313519968957824
0.00223616759228906,-0.00200930443124843,-0.00523366232077776,-0.00316239925912693
-0.00133286335743765,-0.00125963456937831,-0.00893075511164133,-0.00363562800960017
-0.00286973616927019,-0.00276996744383892,-0.0141346305757904,-0.00438360250059477
-0.00253310490379087,-0.00527819880938614,-0.0145827388517407,-0.00469885054765191
-0.00147400650588606,-0.00683274818456461,-0.011961011471605,-0.00371230621665437
-0.00260374189944185,-0.00373973465658505,-0.00914599332192014,-0.00104448071585014
-0.00530637350841188,0.00773780997686852,-0.00562716855487086,0.00250848376561936
-0.00799657136243309,0.0197876134347603,-0.00383061812261785,0.00495465163958091
-0.0110288655828988,0.0252272324117743,-0.00405139109381437,0.00508085230621069
-0.0125984352675415,0.0310442996393202,-0.00488489397438374,0.00400068061077708
-0.0114163086978935,0.0463298422005633,-0.00692410242352862,0.00380332200918714
-0.00915554178396306,0.0676118780610546,-0.008895826221942,0.0051305333066138
-0.00758806341564222,0.073516617740386,-0.00976624985295597,0.00594066347626638
-0.00788080364955014,0.0550486280114146,-0.0102941902979243,0.00324545334774363
-0.0135600183974839,0.038567443891124,-0.0104575620943796,-0.00254408294870761
-0.0252413099227239,0.0471419404600611,-0.00996343166673831,-0.00709744071287456
-0.0338289570064122,0.0519166070699266,-0.0080260679631454,-0.00657665466686468
-0.0284732877707725,0.011123390511772,-0.00764398864875326,-0.000777623895689975
-0.0116415330805431,-0.0470154824551967,-0.0111624894799869,0.00697926038824017
0.001827980461631,-0.0662588976088091,-0.0137602710291366,0.0121515233357644
0.00304480421706161,-0.0596356457116845,-0.0113652635237537,0.0117355351009271
-0.0024197032792704,-0.0747787296354478,-0.00609798807933705,0.00658764075584504
-0.00416482931278191,-0.0962088995593146,-0.00145977693327056,0.000824941606484763
0.00106975164283391,-0.0643293082856054,0.00107697510451272,-0.00237274407146807
0.00640640911014959,0.0181085147013514,0.000514964787051418,-0.0030042094995682
0.00212470759136271,0.0809257497353677,-0.0041314904724011,-0.0024371004318845
-0.00977927643552836,0.0852088548400582,-0.0114256283336623,-0.0015329946983733
-0.0152330570579566,0.0592100254334092,-0.0156443766299646,-0.000451884265583216
-0.00794496841488793,0.0443975719949413,-0.0138180252079128,0.000461790995874352
0.00705789167000794,0.0454118399260883,-0.00886084797241888,0.000172367245539721
0.0320853676530247,0.0417258392862532,-0.00561099506283769,-0.00157011496608621
0.0586432238996398,0.0233985246932594,-0.00537122295588702,-0.00353212337172356
0.061296995710602,0.00198329003220385,-0.00741066728319562,-0.00413617926842133
0.0368487664569396,-0.0143018175205361,-0.0102704591016065,-0.00248249781649976
0.0047607218457375,-0.026980204552797,-0.00919436453961694,0.0011805102932636
-0.0244870960413597,-0.0299284707863754,-0.00331904663637579,0.00598220881968115
-0.0633592923731751,-0.0327227286771282,0.00287441885429594,0.0103950194465547
-0.103621689146121,-0.0476866796432348,0.00635466821724744,0.0119643271696969
-0.10459702680189,-0.0618573097944051,0.00681708546180379,0.00888127826599837
-0.0747363923968177,-0.0613274113984896,0.00415111620172783,0.00173850725102745
-0.0745355183586677,-0.0435245062431912,-0.0010416152505285,-0.00614144341596207
-0.109790000661041,-0.0188186893995197,-0.00615507296384256,-0.00990477269319352
-0.123160028803445,-0.00493357403938747,-0.00759126794355398,-0.00691653799446909
-0.0909702423525963,-0.00770422716533344,-0.00363193761011605,-0.000278301859418614
-0.0387612335908697,-0.0167498249071699,0.00214179527943937,0.00437937964034802
-0.00534974149391246,-0.0162125223572066,0.00384650369579985,0.00434655540243483
-0.0040153386290943,-0.00293789634317383,0.00187337777721288,0.000526815897731348
-0.00613907728897316,0.000199206097976327,0.00164825450709611,-0.0038687937190389
0.00804521523393835,-0.0217618085636641,0.00547853995501058,-0.00580577296301519
0.0360907387281528,-0.0380515410257294,0.0106408163297518,-0.00613814779320518
0.0736321132153367,-0.0220202075257046,0.013936327719478,-0.00786527732904231
0.0994090186237378,0.00115531105996652,0.0144080672458799,-0.00881655060563935
0.086559777093006,-0.00324431833992052,0.0126591002177076,-0.00441603433961553
0.0486240391974845,-0.0337179432774342,0.00882249512262011,0.00326673122235744
0.0196538629415954,-0.0509877233273788,0.00145264232861006,0.00892369437963007
0.0100015658922638,-0.0302811281067562,-0.00626294731840166,0.00965071868541633
0.00335007241580162,-0.00107616856589428,-0.0103582913865273,0.00489532152097888
-0.0283284540990427,0.0106762350265006,-0.0115907611109996,-0.0028516032972029
-0.0778521651176393,0.00722723761002786,-0.00805774859315496,-0.00896599220954878
-0.110096556282736,-0.0177010759268871,0.00201733898312082,-0.0119196907137598
-0.116706862919071,-0.0615499154083803,0.0122224676749523,-0.0157370020913784
-0.103962356845028,-0.0864132569036736,0.0137557934676161,-0.0201172148873424
-0.0757084202449976,-0.0756624505889055,0.00919122567516788,-0.0153087550403845
-0.0406471253265515,-0.0596539638302544,0.00719795279581246,0.00552661999614947
-0.0110892937524709,-0.0466026513403608,0.00634390531237153,0.0349094708673531
0.00675738106572643,-0.0182865994360073,0.00193303254815817,0.0548190755497793
0.0144278216931881,0.0195865528095276,-0.00273198893120383,0.0528189079708506
0.0102209212349019,0.0412469122623193,-0.00487761694184808,0.0323697987827538
-0.0008338742591279,0.0434336896486549,-0.00786875323085191,0.00562860032428326
-0.00704298542216069,0.0414290026784049,-0.0110012125822002,-0.0175375005438411
-0.00706994328401398,0.0377195955318461,-0.00862206500263511,-0.0313960504097348
-0.00643903565138832,0.0305028157903732,-0.00113273996424455,-0.0340132678310967
-0.00217496961061259,0.018070373872663,0.00469279403769799,-0.027210954636651
0.00312079085930327,-0.000275341064712359,0.00500516874474685,-0.0130592399085936
-0.00269086172672022,-0.00159522183340194,0.00420400186979092,0.00499760256935548
-0.0105512340505,0.0344546825415791,0.0056724245590476,0.0198640811093711
0.00038721853893614,0.0769086419152403,0.00372397789731626,0.0263818353289001
0.0318524553263395,0.0883690899618594,-0.00198318088797568,0.0246431098742198
0.0672168410323685,0.0754816196161099,-0.00354945549897914,0.0177577485988348
0.0815357308075027,0.0611860929200756,-0.00178864913432357,0.0109463721400562
0.0611702085768699,0.042220087813448,-0.00141719422427795,0.0082816260842525
0.0337261533896217,0.00330082324996062,-0.00100204019784602,0.00867086921340496
0.0384044254038371,-0.0589267371667832,0.000363420887036564,0.00934514177098931
0.0576317216575783,-0.146822202206738,-2.50923766818448e-05,0.00932885241048284
0.0478587008553027,-0.21747252254234,-0.00388006808273092,0.00746881397852395
0.0231148169155339,-0.199639818913024,-0.00998794067157118,0.00265570154900583
0.010135580088556,-0.0981413583020978,-0.0153903288870113,-0.00532550806933996
-0.00355328234075341,0.0149073317683791,-0.0158796917071385,-0.0159847592673531
-0.0152049988750459,0.0829260792133971,-0.011911191264946,-0.0261061500489746
-0.00787497790921573,0.0980920506408462,-0.00786822923060315,-0.030448359083529
0.00572677084173581,0.0844131121660533,-0.00443243073081309,-0.025236806208844
0.00350814824830225,0.0630562372340709,-0.00172120945087057,-0.00925867670902854
-0.0128579392874186,0.0423726767259476,-0.0027892597842148,0.0139358879336457
-0.0282828075989964,0.0301260269519977,-0.00762754593024603,0.0345516427010269
-0.0348957757519096,0.0342707884940601,-0.00989730668273129,0.0435628422415438
-0.0296058159474919,0.053644104230718,-0.00721725626123347,0.0400385042987017
-0.0126789709783816,0.0753771583495194,-0.0025519264708809,0.0285895422801485
0.00543011440423585,0.0876571810157947,0.00277828810699989,0.0140121868183127
0.0186606761778514,0.0833998065424207,0.00664620087340131,-0.000301399385961423
0.0320675236222561,0.0698105754558936,0.00660499594932778,-0.0127120484621866
0.045066699908029,0.0697336691881476,0.00392194912093227,-0.0220526470903832
0.057073725130212,0.0872264344994539,0.00354913442487171,-0.0263039415499477
0.0641573655726053,0.106990609300319,0.00724365008546426,-0.0248654886062938
0.0522226531608454,0.108731359390608,0.010468495489348,-0.0204040121345823
0.0235181223846389,0.0808563575417219,0.00984714055177463,-0.0162855768054996
0.00104781906096504,0.0307011791917713,0.00400863909037946,-0.0133777921224743
-0.000669925967689753,-0.0513132503414373,-0.00334223190560137,-0.0111295325612753
0.00594539667316423,-0.167127095431457,-0.00454099731309818,-0.0092349404177076
0.00677191081483128,-0.247700970481864,-0.00307002395600377,-0.00674220697866901
0.00340999984770633,-0.218297728195499,-0.00296984535082512,-0.00306459883925145
-0.00535082141780836,-0.110669635337151,-0.000925796284605553,4.90047047336014e-05
-0.0189656036187134,-0.0151535117945611,0.00109996575785259,0.000288480588202474
-0.0275444959856711,0.0338078713628996,0.00122616200451592,-0.00272614165196408
-0.0266662625578459,0.0487291989986477,0.00165059905903775,-0.00768069471557031
-0.016676915166385,0.0524037935366081,0.00203883336376798,-0.0122702202929811
-0.000583800408138165,0.0620988414799096,0.0023693313077893,-0.013798087060958
0.0144060159246319,0.069594358936896,0.00562188084946595,-0.0115505226918203
0.0241923165348971,0.0710715273832092,0.00981471033450724,-0.00835650158027118
0.020243041341039,0.0702823262807186,0.00778807435723663,-0.00729785631470476
0.00935265302930061,0.0553293197179076,0.00246532321831844,-0.00797314491767093
0.0140779774686108,0.0199139975120028,0.00510677922298022,-0.00745621345452649
0.0277219461495251,-0.00312233286194776,0.0124250501042613,-0.00373060153046851
0.0315460389761565,0.0191832798323529,0.0104897788560057,0.00239385704860894
0.0227612770149999,0.0496073550394865,0.000691222911820509,0.00843672866262431
0.00640169991878267,0.0432790673513038,-0.00281480798253371,0.0117070433417828
-0.00792416062175477,0.013712177700509,0.00363303971267825,0.0107000586072392
-0.0122009102243962,-0.00752703465175724,0.0115780051104622,0.00657834094956154
-0.0117218639549072,-0.0192814112050155,0.0128242885166829,0.0017451047760108
-0.0171875803458434,-0.0539136379528719,0.00720356934482849,-0.00255001602204618
-0.0225484112670328,-0.109108607797188,0.00175713042655971,-0.00668100690394607
-0.0134249853382592,-0.12839675477088,0.000393693083668385,-0.0109389189513224
0.00933646914293822,-0.0908624207948965,0.000289925001923793,-0.013628892578918
0.0262965793484469,-0.0439003693375931,-0.000258012307679921,-0.0126287987025
0.0276689246622069,-0.0310914662730551,0.000251304975510336,-0.00808008640312837
0.0258664414503853,-0.0448478517085598,0.00189012363367215,-0.00211897449773439
0.0290348615895634,-0.0455752616773079,0.006020892205979,0.00306584841569093
0.035695573258431,-0.0145542769821272,0.0118558575929879,0.00609171478051471
0.048605614606789,0.0201698471923987,0.0128689606183755,0.00679625107959791
0.0655130283160683,0.0316416959947038,0.00871813546632699,0.00670638543168781
0.0629786635160233,0.0282514699747559,0.00546617787392467,0.00718183439585258
0.0279273584996557,0.0239260423090884,0.00458755370020856,0.00801001076148595
-0.0147022328439902,0.021489449148968,0.00268593577679358,0.00867303390696525
-0.0444691963302985,0.0221776629854498,-0.000992951234145507,0.00856275372332538
-0.0578306858896955,0.025139693920227,-0.0026059646680074,0.00674127740411307
-0.0447892232057374,0.0245803442321338,-0.00103829814193414,0.00327746167389978
-0.012581949796316,-0.0011722618485351,0.00140161448843163,-0.000552742119014672
0.0104547846817348,-0.0673116030310035,0.00338904359343285,-0.00334800077589298
0.0169495359719705,-0.137805810489402,0.0038867081448675,-0.00481694804810156
0.0301807938594254,-0.152954394759512,0.0031629120645398,-0.00536036438340544
0.054404089667817,-0.0956769935989788,0.00315682865400843,-0.00336646491889028
0.0608144422805623,-0.0180709369918098,0.00275189487047948,0.00269947140058136
0.0427465987273822,0.0199063816974187,0.00170595779504125,0.00952689138071871
0.0238735416885519,0.0206516034782915,0.00225333718513873,0.0117162302079663
0.016464002262882,0.0135715388711619,0.00343313952754166,0.00844685890192594
0.0154487759252811,0.00999640242784618,0.00394419798891362,0.00344403145635278
0.014724948098095,0.010380661335921,0.00351746304204252,-0.000236256164102807
0.011969588183639,0.011973084816828,0.00251049671062228,-0.00187482557927924
0.0082647622771582,0.0137075617952231,0.00214975493833762,-0.00185930538876651
0.00542694801499986,0.0157437996198216,0.00122718082281336,-0.00119237834422386
-0.00317936990637866,0.0154042660110868,-0.00150691770783433,-0.000544556891127246
-0.0223568357165753,0.0114457680758125,-0.0038442915530708,5.2737423863203e-05
-0.0373570488279931,0.00800266653375335,-0.003905868991053,0.000466569272725272
-0.0362952957770366,0.00770225581363148,-0.00257381909945589,0.000663509255962877
-0.0252377632259016,0.00840094649478412,-0.0021507059096842,0.000719500006284115
-0.0155938555648161,0.00705319867175761,-0.00462581380418386,0.00060507730833056
-0.0107605122671948,-0.000435337298601988,-0.00925351201542972,0.000279131398528971
-0.00301165439768796,-0.0123523268731218,-0.0127767525449071,-0.000358571553877653
0.0113709103906982,-0.018990565150918,-0.0139645332178646,-0.000980088777725532
0.0309348607594774,-0.0175172162973549,-0.0134820428294623,-0.00130307762202502
0.0517154560044055,-0.0126069489921416,-0.0123726540978366,-0.00165800088437559
0.0540465569176263,0.000916853938081447,-0.0117885704553668,-0.00207965914088779
0.0276504766379379,0.0166910828707111,-0.00907463507976499,-0.00233940255977495
-0.00195859407848091,0.00524618916502894,-0.00523641649087954,-0.00245526700201557
-0.0176948780822877,-0.0312931156758851,-0.00458879219054737,-0.00248982843825871
-0.0274822279727855,-0.0548751485697864,-0.00548785738901696,-0.00221634000262413
-0.0329672136320091,-0.0453051219385995,-0.00693423873619262,-0.00135771380511766
-0.0318781520855558,-0.0107582349651596,-0.00849441078389826,-0.000305708891694959
-0.028881634790452,0.0222408906268735,-0.007855417036391,0.000270351198704628
-0.0265562516306824,0.0310744871331483,-0.00597149158488853,0.000248884735603066
-0.0200323021079724,0.0143826217708328,-0.00536667582229446,-8.29141235350248e-05
-0.00596190077091397,-0.0192906957670556,-0.00526995401038924,-0.000477945305904091
0.011355892793901,-0.0486005177343491,-0.00637683912462528,-0.000961824230033203
0.0176729418005829,-0.0452606836362486,-0.0106619282797679,-0.00114937707022793
0.00278474721192437,-0.00945240357486844,-0.0138903056330913,-0.000190016256849123
-0.022733063822459,0.0294400672473218,-0.0120561690608708,0.00157064113411522
-0.0352689885525344,0.0518553157242162,-0.00718835596619509,0.00252465990345403
-0.0262488108663325,0.0527656228645448,-0.00229888258651894,0.00176179111904671
-0.0129287640086317,0.0351221187400285,0.00225453410458069,6.53701370035152e-05
-0.000927844131939595,0.0121409990298722,0.00395164159406471,-0.00198396390195522
0.0121545918750965,0.00328483067675747,0.000578090790416421,-0.00482579789038683
0.0171934362059579,0.0183708662305823,-0.00301410749510381,-0.00759134682212013
0.0137790104507098,0.0389095774921935,-0.00415965484520262,-0.00825865718983982
0.00975408834842075,0.0450730987140988,-0.00426251956277438,-0.00634638672588762
0.0110162182993172,0.0337068171613995,-0.00493115220519257,-0.00323873020880906
0.0114868212217869,0.0164121453479594,-0.00853892402675355,-0.000372692814648261
0.00210261358395931,0.0137558672631272,-0.0108550822923468,0.00186181739671195
-0.0152712164286179,0.0235097279783095,-0.00548381099199533,0.00344823379844764
-0.0356270096496908,0.0241849039191351,0.00248327216246404,0.00433009271321855
-0.0479290931435754,0.0108341321564817,0.00486184135961405,0.00548498097830885
-0.0399454498794846,-0.00813030208548176,0.00335072472057466,0.00807266382168173
-0.0158287526742538,-0.0289390157522439,0.00251721847647096,0.0110066976690278
0.0081246010921216,-0.0366501059964049,0.00102352092819479,0.0113628232298178
0.0173886446722958,-0.0138159905300506,-0.00319977971450002,0.0073096551635535
0.00926519041525002,0.0295719517562369,-0.00731265547115859,0.000293757950806297
-0.00563987512550072,0.0571237513686379,-0.0102687593609307,-0.00621284590706832
-0.0176952935890312,0.0496052671016881,-0.0102711678752539,-0.0100098973342679
-0.0242949352746297,0.0360856006876231,-0.00453939038974394,-0.0110731019606735
-0.0277065218797389,0.0451240059102707,0.00326475739302528,-0.0098624275153341
-0.0322901833698356,0.0646069691853335,0.00922483231807694,-0.00654930307596774
-0.0385684615550644,0.0733679070315277,0.0121132141909887,-0.00242958451749192
-0.0368152350399207,0.0713561931866459,0.0108413958081335,0.000318248510362546
-0.0163508368083919,0.059823044432441,0.00770373731924412,0.00115227698605144
0.0117101910926507,0.043781058882599,0.00726301722008493,0.0017892497032905
0.0223705715795174,0.0351236329357047,0.00884342653194749,0.00394350492663417
0.0114989714206075,0.0240218974946299,0.00642570822894613,0.00728515553028836
0.00408536553193564,0.00187924326830877,-0.00194388761387857,0.0100217136493743
0.0134584827426651,-0.0157968966944772,-0.00859851803906474,0.0108060943850402
0.0131349012705606,-0.0165670109345987,-0.00727462976400607,0.00919588688361599
-0.0167083826434925,-0.00828778463799542,-0.00133391508878036,0.00504941690090012
-0.0475483197236426,-0.00231010746498891,0.00142952043897629,-0.000804076779458695
-0.0513657791579078,-0.0141553270742621,-0.000726619472960428,-0.00616569373809583
-0.0359876284660037,-0.0460068938930801,-0.00338577282246508,-0.00921988979463848
-0.0226005084498401,-0.0568383477482654,-0.00531567324472676,-0.00922613680862009
-0.0243545415350085,-0.0295675623404556,-0.00551743191307653,-0.00550084247077115
-0.035819001696964,0.00724442016123417,-0.00274545176525288,0.00101035781763755
-0.0395279992504658,0.0342311747880132,0.00010381246898546,0.00738057443636922
-0.0228346220217883,0.0429580933840346,0.00128303786302558,0.0116924570636414
-0.00554348824450957,0.0423355507568533,9.93686335230191e-05,0.0131487517808345
-0.0157944886374727,0.0470349921819624,-0.00331405236273976,0.0100344662080199
-0.0343379687030779,0.0518728327058033,-0.00266541265938772,0.000714340024307534
-0.0257200143984902,0.0509995769612915,0.00380310681279639,-0.0126344916516768
-0.00149459036057881,0.0317403527959173,0.00845756336031349,-0.0230166305582461
0.0102809626998805,-0.00783893775119265,0.00733940296098451,-0.0240137555343727
0.0172448387850864,-0.0414036979124541,0.00478836276314783,-0.0157119686006376
0.026946122659926,-0.0706216265663783,0.0045904349558363,-0.00207752293181028
0.0325363157517847,-0.100181174405636,0.00702900117849009,0.0132948280883639
0.0332230399955845,-0.0976142781086856,0.00935263019833221,0.0267222079681505
0.0201353572904698,-0.0591682524259917,0.00401794432990405,0.0363891657230336
-0.00840821566731888,-0.0235117762452449,-0.00491792126254967,0.0415359478450821
-0.033990453944954,-0.0109757347931726,-0.00596673391869228,0.0373496659762643
-0.0439549866904362,-0.00990896007192813,-0.00167662429894336,0.0198839341937278
-0.0412603328093862,-0.00523183106327491,0.0030197592860633,-0.0062193311627509
-0.0361191054609848,0.00357433139903924,0.00870856766290421,-0.0308291753187084
-0.0343687266187854,0.00958187967763228,0.0107139353296825,-0.0440718188403769
-0.0341500325492054,0.00878621196243519,0.00491907874290015,-0.0414302874592057
-0.0332221353458341,0.00848431897072916,-0.00161946182921151,-0.0268458307313216
-0.0293093574537134,0.0231617877042264,-0.00462137546189243,-0.00850002162341344
-0.0221015540911843,0.0443054361860127,-0.00585955665951616,0.00631751882759755
-0.0113130810233818,0.0492887822189374,-0.0013085163163476,0.0130767939417191
0.00802285591288088,0.0434700102100124,0.00624789517929828,0.0118345903545444
0.0339433739647197,0.0416331423736848,0.00830266192704567,0.00767179845887507
0.0555449657885936,0.0417717137783092,0.00695114854430088,0.0067360996462972
0.0629086238474373,0.0481076391058763,0.00436914726707057,0.00968864110959425
0.0550245295503273,0.0614969758808619,-9.64414383615235e-05,0.0115041866481872
0.0423272190862765,0.0604569583594668,-0.002882060168578,0.00949901161066338
0.038847116570677,0.042014621433589,-0.00182765722268062,0.005514259138204
0.0456328096134606,0.0361586068690438,0.00186072644959846,0.00123824402392034
0.0395692520587407,0.0516560801681425,0.00600539541181849,-0.00279349001014133
0.00203034861749743,0.066470191554271,0.00980937512882927,-0.00502822709278189
-0.0544206488134789,0.0548771928178196,0.012008006513524,-0.00321880258008747
-0.094598145205216,-0.00554268014348622,0.0121296344175046,0.00168197059987591
-0.0921069557443707,-0.0963746182914819,0.0122780100400361,0.00592432162440241
-0.0674833562784075,-0.147001030086834,0.0133799104880266,0.00810309367920651
-0.0568076515577295,-0.113443811684396,0.0134885235510279,0.00928902333613648
-0.0558174762152626,-0.0281998685116811,0.010959929763903,0.00968200298227327
-0.0401062378877116,0.0429620601891865,0.00677413163490643,0.0073493266217379
-0.0073716268851179,0.0779699851069885,0.00141604133628259,0.000143379323255215
0.0166967790969974,0.0839620137565804,-0.00258906349744252,-0.00976689683528434
0.0239654075720006,0.0375269935303955,-0.00187169746276768,-0.0173035192658501
0.0386730337594728,-0.0401508865314618,0.00189152771993132,-0.0210749065708275
0.0552583761654463,-0.0699392080112425,0.00600395255975496,-0.0224024104153726
0.0526179247044577,-0.037039762883168,0.00939363088971145,-0.0212709141321274
0.0370853662799647,0.00456245158698873,0.0100836867323628,-0.0171730374405893
0.0282145874442837,0.0243915058253859,0.00590305010220097,-0.00987685147156241
0.0364838075449017,0.0489051268427664,-0.00165580014954892,0.000904641771088205
0.0443827811481988,0.0939348301244245,-0.00716942191121821,0.0146529984725951
0.0400160093605535,0.133145739344038,-0.00711413608478281,0.0277664145562466
0.0282195393586316,0.139449472590239,-0.00290169564153124,0.0343936680295299
0.00664984967218507,0.0866633454647342,0.00157686142457576,0.0317334853405275
-0.0170947203140329,-0.0137524933200797,0.00284035519751599,0.0219196916803817
-0.0263213766235732,-0.0896140989947527,2.1463857014169e-05,0.00942632957856576
-0.0226281651518579,-0.101834379123306,-0.00369679691959158,-0.00165022665785794
-0.0176667565624599,-0.0883142598692732,-0.00428306431036665,-0.0092985612171353
-0.0199431646511972,-0.0794067511169121,-0.00224554663730295,-0.0138403621237548
-0.0382505495737724,-0.064154280324001,0.000278566619058682,-0.0160883352931934
-0.0584322204532989,-0.0397079238947241,0.00357191134748733,-0.0162502798283715
-0.0629465756260771,-0.0265323885177044,0.00490042807770744,-0.0151688936569234
-0.0557614223970802,-0.0604066827505225,0.00287807911706143,-0.0138057466247157
-0.0285181781429217,-0.133032958029324,0.00105730306182565,-0.0120332657289779
0.019272576014484,-0.167272439145342,-0.00126671810980992,-0.00937161063491443
0.0536217400026846,-0.130996015012318,-0.00401074096992963,-0.00573861278240128
0.0540730581585792,-0.0715354438122898,-0.00401606688984553,-0.00193985254110002
0.0381598109287666,-0.0317389594782071,-0.00302731182363638,0.000355902088415256
0.0240129513374162,-0.0176140489021907,-0.00409442307780961,-0.000239943545535373
0.0147738729399453,-0.0198855519581928,-0.00679084708425072,-0.00297705677524854
0.0101387761700533,-0.0322541565578656,-0.00884285401255624,-0.00508927379000831
0.00892373645942421,-0.0489001269527975,-0.00992978942338553,-0.00459565714584846
0.00996211686304764,-0.0598011054370195,-0.0101169684632139,-0.000787663690876581
0.0103806220625474,-0.0569754629568681,-0.00828962564391644,0.00608125239333413
0.00715801993654471,-0.0486296521215462,-0.0059202654777664,0.0128574982185833
0.002941026086018,-0.0482822360914087,-0.00623704835177396,0.0151099889374388
0.00119062638617743,-0.0524295519942471,-0.00872562146474109,0.0118880768272711
-0.000693214662211846,-0.0532950102178349,-0.011461550698817,0.00608894004252277
-0.00428564383593479,-0.0464298772526319,-0.0142131341370901,0.000726626823235823
-0.00685351594931519,-0.032397269312329,-0.0142660847016738,-0.003397924888027
-0.00795194527321135,-0.0133513580491056,-0.0102799087243284,-0.00639813921033601
-0.011687739120855,0.0123067558447129,-0.00239663120028197,-0.00793475748424807
-0.0200343887220345,0.0295387943729182,0.00508219375128471,-0.00793942446397064
-0.0298652514855393,0.0188203426075622,0.00437419608635121,-0.00652720737394221
-0.0392535781594627,-0.0141562504820274,-0.0010090702991687,-0.00384853924081407
-0.0476070379967437,-0.0440102986302902,-0.00355547041854095,-0.000903822166078383
-0.0532014052473643,-0.0526860767101599,-0.00577557823347025,0.000911330603314074
-0.0544547709763771,-0.0454352122203026,-0.0100778094916178,0.00100005216467522
-0.046753789672674,-0.0303142872785892,-0.0106726948975806,-4.84624157221798e-05
-0.0220139672389876,-0.00757926340559029,-0.00712496701338432,-0.000689288008593571
0.0143310240630085,0.013840614506244,-0.00542774916325526,0.000178142155066791
0.0434084175534814,0.0235393990172273,-0.00663514857943156,0.00156612578257154
0.0549709659428908,0.0172552324839365,-0.00725683007359386,0.00186208488032246
0.0507777728679146,0.00156730126201093,-0.00547162929288089,0.000869739381451176
0.0385886541022826,-0.00454013141699676,-0.00494296318515359,-0.000781284175917142
0.023722373346539,0.0068269394583973,-0.00632900680927282,-0.00227184073125443
0.00927251538811132,0.0333164963570442,-0.00724027943703455,-0.00281283293937859
-0.000889639062236963,0.057007623725887,-0.0072452019580412,-0.00221150740418061
-0.00493434022631417,0.0571370729707051,-0.00591784571397503,-0.000984425261564458
-0.00523610317032289,0.0463159258013052,-0.00427567293398742,0.000190000099912202
-0.00826737316414607,0.041255209580264,-0.00219160296100143,0.00103044392818288
-0.0126533706602469,0.0309785083766305,0.000601992359723651,0.00151520254173109
-0.0161049634341046,-0.0183905739879753,0.00450012233494414,0.00150210836578827
-0.0177521852804401,-0.100488251137599,0.0117866514095122,0.000595867193133497
-0.0107938161891009,-0.128841118331807,0.0181259189720578,-0.00109807569455335
0.0038664371139087,-0.0666685691159096,0.0163943792362104,-0.00204934073154514
0.0182709586613829,0.0105307410042296,0.0105201018166005,-0.000975598689593795
0.0234021904145039,0.0429162282013385,0.0069370540921659,0.00154973283554982
0.0156318266721109,0.0451646186880079,0.00300005262885471,0.00439342060069555
0.00269593417522777,0.0468478496146003,-0.00241559448514026,0.00640778307937629
-0.00216752287861543,0.0561326607319341,-0.00487435964873688,0.0065949722261777
0.00856079721901454,0.0674381079946773,-0.00416156938990628,0.00523362298775933
0.0250329567231945,0.0686834984026195,-0.00284165311927969,0.00338871384503286
0.031767573332236,0.0547795004918529,0.000240809395773168,0.00151111652136107
0.0270152014829949,0.0345352690270314,0.00356873281063889,-0.000582129267878427
0.0206064268006759,0.0202773082768786,0.00334954889545845,-0.00281385855857714
0.0211377992750504,0.0165742235690151,0.00333106527117847,-0.00454271728980683
0.0306402497192477,0.0129743680600031,0.00519379342565973,-0.00495687604481057
0.0430310701132573,0.00121514052053702,0.00579368354325515,-0.00373498255697828
0.045612400282522,-0.00767415410073196,0.0047256415580614,-0.00156582236492261
0.0368725716259551,-0.00484421697126538,0.00267976080562048,0.000297183349649594
0.0270580526385374,0.0028286826740428,0.000340981926340008,0.000975833714574528
0.0166852331869214,0.00899583792137379,-0.00444376926837265,0.000433448810850961
0.00664684878889857,0.0106509453949465,-0.0127621414423073,-0.0010572235328903
0.00411469885565442,0.00491570557978157,-0.0168722997222408,-0.003879558848066
0.00651331327738761,-0.0012402636228432,-0.0111993421650189,-0.00849130649645867
0.0108155234706007,-0.00195160970485514,-0.00374716137230159,-0.0134564821273808
0.0185882340905079,-0.0148667176598461,0.000188530966579,-0.0137142552384101
0.0248307887245171,-0.0452384481416563,0.00379310057076143,-0.00520686347224276
0.0250283458298891,-0.0557536951537647,0.0054137516977956,0.00781223321392789
0.0235007985012455,-0.026914407386888,0.00427533842447093,0.0170833498734766
0.0238543096162378,0.0137510075078225,0.00220971907557701,0.0191151124446897
0.0250166986646665,0.0377414949359943,-0.00197353769604782,0.0155368994505439
0.0251990798038625,0.0426669998978697,-0.00559377521141786,0.00953145324808883
0.0228794599371054,0.043010622678059,-0.00406955871161764,0.00396406432234634
0.0201447797893824,0.0379930408486403,0.000862152395837083,-3.0752788151775e-06
0.0193144648649284,0.0238323687426555,0.00267532475009707,-0.00285266656755408
0.0173956256404315,0.019490093659813,-0.00155209085014082,-0.00471737531208807
0.0103903379302835,0.0281637105934811,-0.00788151723619663,-0.00514968954196065
-0.00018432981903737,0.0324489403837787,-0.0098530200060215,-0.0042468177371639
-0.00864524165423891,0.0296486752654811,-0.00687423096071646,-0.00301430433785634
-0.0136603037737252,0.0298910798041387,-0.00532143690305119,-0.00237729658973061
-0.0162274567968106,0.0334377216962689,-0.00682326143092926,-0.00212806611812748
-0.0134291805664859,0.0240200423078077,-0.00745515091242855,-0.00191225849765514
-0.00437442248967317,0.00413123458018402,-0.00678786322457717,-0.00192848083499585
0.00341163776426615,0.00562080864714821,-0.00553500755948177,-0.00220819626721703
0.00139602904083086,0.0296170912598131,-0.00257371339607611,-0.00228192914767253
-0.00920212719046567,0.0280527303952285,0.00166239676293995,-0.00178040474567642
-0.0234346147695932,-0.0124913362388607,0.0061146342079043,-0.00203722364664734
-0.0381217200263802,-0.0387913062607527,0.00875405006612187,-0.00522455039762996
-0.0468920810243961,-0.0273988625330779,0.00630100801414248,-0.0104116507734314
-0.0442295024281127,-0.00597497749195844,-0.000247550352312267,-0.0132828194035279
-0.0314508135814147,0.00301482386294553,-0.00634590904976003,-0.0110471081093509
-0.0123962656599814,-0.0089725997303717,-0.00976227911015085,-0.00494508183971661
0.0102944264177558,-0.0307385746044627,-0.00938152948856459,0.00207913522936884
0.024309347544926,-0.0407228477717964,-0.00526049393666238,0.00778941207607576
0.0218392068722627,-0.0303288530131005,-0.000530127504883504,0.0110862761934129
0.0161492526067744,-0.00294275041633928,0.000481226178825791,0.0108811603795875
0.00776930502573667,0.0290225447271122,-0.00365938060224448,0.00673243995428268
-0.00985018873481549,0.049826922959698,-0.00655006657591613,0.00142813628355025
-0.0211177770540983,0.0578865330613378,-0.00142570539390627,-2.19512537021418e-06
-0.0176103507112292,0.0604094343207882,0.00907427201509345,0.00485102088701623
-0.00891993018112641,0.0601406833291524,0.0188159120828224,0.0122736522071057
0.0031215785450235,0.0521501741454122,0.0232243192506199,0.0148831293336285
0.0144321030622269,0.0288166435469539,0.0206668549179241,0.00948424900976228
0.0118009788721925,-0.00203293762266572,0.0150435880563394,6.06217785012915e-05
-0.00114236907745987,-0.0192241075996911,0.0124365667963304,-0.00828594565314931
-0.0117311682511173,-0.0250921554103373,0.0128221192694365,-0.0135366658369608
-0.0167856433847792,-0.0415050647870732,0.0110029844514035,-0.0150911690750132
-0.0172512032271922,-0.0595015029077213,0.00645510433126209,-0.0127575878081837
-0.0178684637323164,-0.0599849230998154,0.00396180073893305,-0.00810005484835545
-0.0173420238103695,-0.0512051013039448,0.00618579656516333,-0.00442838753406815
-0.00959605876920024,-0.0426701259567802,0.00869612002897682,-0.00354629069252668
-0.00532012372427156,-0.0314550233726268,0.00588426608833511,-0.00332315074791323
-0.0149487870856012,-0.0184267223947292,-0.000294487643286162,-0.00049645764020176
-0.0280848447457249,-0.0126177999205312,-0.00263861316979611,0.0048244574937786
-0.0304026438843951,-0.0149712084756408,0.00165701492582143,0.00959740548960631
-0.0161400995849912,-0.0158782520816001,0.00789627319932697,0.0125250803266738
0.00367053543584747,-0.0133603524784935,0.0100075329920445,0.0148566228508207
0.0075376815261186,-0.00820679490592694,0.00587223121982355,0.0164569906887502
-0.00116941348644104,0.00111062594219505,0.000915649699135208,0.0152710622535339
0.000553083258694497,0.00826467824889657,0.000475739669142214,0.0104526904785993
0.00497406885103844,0.00787335624124906,0.0026014429777667,0.00409100264342629
-0.00306254177896512,0.00161746194154407,0.00757288791395759,-0.00132820778515879
-0.00287363477593236,-0.00603497508131405,0.0145180605453405,-0.00513297171016849
0.0134737229450066,-0.00611120855803035,0.0183038294720399,-0.0045368412127685
0.0312265625860323,0.00914442211978907,0.0173272396400592,0.00333277641611008
0.0539804115926421,0.0365143288827251,0.0112821031842754,0.013431603748251
0.068551082997762,0.0655004052198246,0.00258440178612416,0.0168787509639166
0.0474421842856485,0.0889103976942053,-0.00307711159800385,0.0106044509752742
0.0134404384188507,0.10242650978147,-0.00545109919623523,-0.0022068271647088
-0.0126795854633816,0.107844914932684,-0.00817813744743897,-0.0155443958827455
-0.0444728633731777,0.103897016256572,-0.010424759435894,-0.0225403992467418
-0.0757169381635185,0.0921444592064526,-0.00830360480224967,-0.0189890670338762
-0.0962978780691567,0.0956558181227385,-0.00416079495593537,-0.00649413406341084
-0.0915745726486352,0.102750249606778,-0.00222023841622412,0.00836470087241704
-0.0417575032681051,0.0612717726094306,0.000458739998087989,0.0174767915898961
0.0215104389787907,-0.0365443746809769,0.00460209923657968,0.0161747572358528
0.0486570143907312,-0.130681558639155,0.00644171154414566,0.00762483647467448
0.043437862483979,-0.160366923268404,0.00527802806601224,-0.000781730088414496
0.0233216659718662,-0.140390977380008,0.00448814433980045,-0.00499671935392059
-0.00902655254966203,-0.115225041960901,0.00622820047341373,-0.00576047466251692
-0.0357297262235343,-0.0890215367722159,0.00907390516080309,-0.00556348041335759
-0.0408079779901979,-0.0540219132692535,0.00867040207668625,-0.00537933011382176
-0.0362612276393875,-0.00788433637457733,0.00218572161943744,-0.00570188099285376
-0.0399743102067654,0.0432894833001828,-0.00523383984791138,-0.00819700608829817
-0.045569396190252,0.0788739904661409,-0.00674503671301267,-0.0123401741684943
-0.0395724217749221,0.0867591862679204,-0.00230261157725151,-0.0148581244346815
-0.0240754640561006,0.0780506533890951,0.00324116060837045,-0.01270142142904
-0.0149180586087615,0.06944695280351,0.00475249990831329,-0.00414919625437439
-0.01954175179702,0.0642974503628547,0.00174449116691866,0.00882026282846935
-0.0195523077953277,0.0595844981402364,-0.00091511488254194,0.0192265246461017
-0.0039306383261526,0.053492943256229,-0.00179051441005729,0.0216266748899352
0.0135316561527967,0.0294626703571604,-0.000602973801682439,0.0176865999962469
0.0249722929794553,-0.0249578392435614,0.0025798967474123,0.0107273086363368
0.031438029042647,-0.0749849338814722,0.00383635167342344,0.000817151729175191
0.0224077262601676,-0.0865500002245787,0.00380126331772871,-0.0116832523315108
-0.00307148810339471,-0.0763789558982652,0.0055578086826815,-0.0233424446769267
-0.0253268374588443,-0.0670465097484677,0.00773117909239484,-0.0286139626183504
-0.0319047378216744,-0.0584474020893001,0.00833012426952674,-0.0235450703990722
-0.0285766858194212,-0.0510491675845713,0.0094926609062662,-0.00952209011565901
-0.0283378891433238,-0.0494434001540129,0.0128258561317155,0.00715549370819581
-0.0328294777824106,-0.0470047046131979,0.0150079482444502,0.0187001119201007
-0.0379462915842203,-0.0404177886754854,0.0151936803083166,0.0206965095084508
-0.0459707860985383,-0.0386224954357631,0.0149650849379171,0.0132280919059876
-0.0532230009089196,-0.0352438538097134,0.0106462629866868,-0.0019125737212186
-0.0553647709276123,-0.0227037596463207,0.00361719123040572,-0.0193721972356411
-0.0502649057382965,-0.0173012678264323,0.00374945315898008,-0.0297735503757907
-0.0296634604869509,-0.0250576473158891,0.0121041238233447,-0.028312636466565
-0.00255738867988067,-0.0318567240086673,0.0181401358171857,-0.0174557339842304
0.00822387233893181,-0.0319152187862318,0.011928754339437,-0.00139079882831881
0.0101473668146417,-0.0275068104070613,-0.00610840863195379,0.0148920238714957
0.0253608174410235,-0.0234751616613197,-0.0241098811279505,0.0261695846722521
0.0383396124460665,-0.0280795566235795,-0.030184608651438,0.0301295050583162
0.0223916938991153,-0.0446891155315594,-0.0250538067466578,0.027464428461653
-0.00950896329644729,-0.0655013526099234,-0.0155266130500491,0.020491935817606
-0.0307283719899781,-0.0690969683494821,-0.00693970449505304,0.0121021585789005
-0.0386022312997397,-0.0463999089325954,-0.00273445780096624,0.00496882574113601
-0.0424800202241721,-0.0174639946488596,-0.00120674034308221,0.000555160083453094
-0.0420329317345765,0.00372704469960797,-0.000165805099076873,-0.00204740202959661
-0.0302779560905825,0.0184358051578402,0.000313546830225071,-0.004151829031927
-0.0100031373826382,0.016267825186,0.000633111316082745,-0.0050359331019323
0.0173109790268948,-0.00391808028256489,0.000734089333536737,-0.00442934694713802
0.0498427046315157,-0.00541628424154777,-0.00400709240441216,-0.00448000522631052
0.057415845555265,0.028945699852697,-0.0145825470877552,-0.00627330327988416
0.0288461149357175,0.057735922982082,-0.023002026616273,-0.00908112214873138
0.000706898830700076,0.0531691748864398,-0.0236844641357689,-0.0124222968709693
-0.011044142538892,0.0331232757054636,-0.0169577075328447,-0.014872232249931
-0.0257401824382398,0.0142666009759415,-0.0094827130705609,-0.0132631717749959
-0.05227279225065,-0.000340040875613991,-0.00833028334393407,-0.00587333075538552
-0.0728708954501599,-0.00892630076535666,-0.0128685881360048,0.00405215168076751
-0.0691332554163486,-0.00413498275655473,-0.0189309288876034,0.0113620247656992
-0.0508725089758071,0.0172100183940598,-0.0212927903656843,0.0138295661040439
-0.0376800013198878,0.0382800177894955,-0.0173014296895373,0.0120250571486392
-0.0306636829449973,0.041802658610378,-0.0110447412621644,0.00773896548735463
-0.0211997362813976,0.0316115749039001,-0.00638121850376222,0.00288155082462714
-0.00523260717811288,0.0200294885514199,-0.00445360825394503,-0.00118136923191551
0.0183755781718042,0.0107600388596746,-0.00587744309783354,-0.00322971778495232
0.0434689670689252,-0.000775804468494661,-0.00643113669675045,-0.00254907378573295
0.0584963471816117,-0.016824385145479,-0.00486678494226948,-0.000208201327543399
0.0682568688238532,-0.0353703387355522,-0.00572013322313492,0.00147388822748245
0.0781881829802591,-0.0498132513759074,-0.00821303305200317,0.00101588120151637
0.0695858632821969,-0.0514433240737107,-0.00648748576065929,-0.00092734948560741
0.0395042500422238,-0.037665607206496,-0.000144360573497017,-0.00306531318812959
0.0116776378533487,-0.0119690491974269,0.00261918990703192,-0.0051421454484535
-0.00512202363911718,0.00979981672603773,-0.000412827998770012,-0.00724513737958925
-0.0149223419518653,0.0103181945231912,-0.00429495313362277,-0.00939932553182463
-0.0198894551192976,0.002883196776675,-0.00824589498765372,-0.0115856740775795
-0.0178505641349244,0.0148719196441592,-0.00993175897556056,-0.0129064850969654
-0.000216763751899187,0.0438292202607072,-0.00570925717453439,-0.0114833113875083
0.0282270157372733,0.0753721510922116,0.00042895942436162,-0.00672895071971857
0.0442198573124844,0.0952993603407912,0.00239518792202376,-0.000644335370182303
0.0339098959714152,0.0785970106733318,0.00247418532077342,0.00388540176694334
0.0163300805435774,0.03161197051656,0.00559634899602716,0.00506370759400451
0.0142077981901981,-0.00569620678624533,0.00871364066635133,0.00408032656203443
0.0172779518767052,-0.0125465024750545,0.00942617639636829,0.00364006822747373
0.00813809505434916,0.000241408219782333,0.0107415147613995,0.00390216510295681
-0.0105973599973211,0.0122331044388415,0.0118733593727197,0.00339227338052643
-0.027132590509669,0.0121532937351172,0.0116407880958834,0.00189362106240996
-0.0296894281039441,-0.0103968951280083,0.0119260783906257,0.000153331641082755
-0.00735449911443765,-0.0488596024899482,0.0119347514503159,-0.00146769561095244
0.0333758020148302,-0.062733747500948,0.0109252690138433,-0.00283673010580215
0.0728456615873348,-0.039988866933589,0.0101635570004078,-0.00372614442669455
0.0987786457361991,-0.0113101176854528,0.00981879321276368,-0.00458266113816333
0.103552120958381,0.000756061723486908,0.0113485985965645,-0.00531533617605165
0.0884592278879301,0.00411840575317486,0.0154667163539294,-0.00500788410251444
0.0717731863897946,0.0418088250140373,0.0165637476012123,-0.00355445529081642
0.0657232605956202,0.126009136829361,0.0121897819352197,-0.000603208848079274
0.0553912447045723,0.197600920826392,0.00604968997769387,0.0040090485790656
0.0197854147695625,0.210315257594698,0.000686318673528856,0.00816831615575444
-0.0444296569736009,0.184596214595029,-0.000238382553445866,0.0079347244770423
-0.109819226979775,0.162471063495785,0.00206108944351509,-0.00031320445702921
-0.136692951269035,0.146651417354859,0.0024424361676427,-0.0148696519461583
-0.120405023901186,0.1262365900303,0.00284145599046989,-0.0263965767279865
-0.0809755069004803,0.119680127284858,0.00476773126017274,-0.0269680065052244
-0.0360099618851039,0.134158059505291,0.00333582344543515,-0.0183423693651225
-0.00789176549353193,0.123660643161156,-0.00238885089551973,-0.00621443556210306
0.000448406667392515,0.0298142252220196,-0.00597932946906005,0.00644099049747641
0.0132372014810919,-0.128891627092416,-0.00327578552474705,0.0174985055354055
0.0466463344262664,-0.266649938087127,0.000484872266753091,0.0251814825830833
0.0871550381627488,-0.306526116744871,-0.00312265373545451,0.0302987226599723
0.113323549034813,-0.22781700069432,-0.012326009408113,0.0338192950387136
0.123869994018951,-0.0845624035831936,-0.0163388795010131,0.0335696824571432
0.104617257361913,0.0413606104022773,-0.0108836710119227,0.0268875644513255
0.0483576495733699,0.103465461922562,-0.00121871939427374,0.0152658789615147
-0.00982576827587175,0.108233284011989,0.00629653416400017,0.00319328619674635
-0.0480783967684505,0.0884288201080697,0.00863707137675937,-0.00618285918385279
-0.071932418823124,0.0733860837691961,0.00586740516167308,-0.0123260298340797
-0.0792288618888022,0.0641985104915465,0.000136401366163498,-0.016383929956025
-0.0590305940070412,0.0402104883593207,-0.00293618479936496,-0.0194150968005429
-0.0212850141946406,0.0163080025807214,6.77066130270695e-05,-0.0210834689090335
0.00206126020011332,0.0307887986942042,0.00444291842542374,-0.0203000543554964
0.00400272717193448,0.0695344135070712,0.00557661657621803,-0.0161390041345091
0.00464416311598629,0.0667985422747869,0.00551507130252528,-0.00781089936230484
0.0127611869009345,0.00709760120411287,0.00453214828207073,0.00305097385654137
0.0192643501269601,-0.0453998381424611,-0.000123002507268152,0.0117440073496623
0.0152457411680869,-0.0501867914301511,-0.00558798431586603,0.0158433745887583
0.0111036383523735,-0.0330785605378403,-0.00750534409054545,0.0170583495920382
0.0150823774342436,-0.0227475750885407,-0.00626546656187279,0.0176591534427658
0.0116385045137338,-0.0153607863797837,-0.00452238656964413,0.0177745513906817
-0.00901389163958049,-0.00549180867992713,-0.00373058711883838,0.0141836164444454
-0.038576616192979,-0.0202490094661643,-0.00200379106133343,0.00385390509363084
-0.0611251753335421,-0.074761105045075,0.000869220005693071,-0.0106670619311177
-0.0625105228128245,-0.111106670137225,0.000269437755789794,-0.0221335014555543
-0.0414949154040559,-0.0902033904779678,-0.000534037765083368,-0.0218874700077648
-0.00428160273557278,-0.05849088935086,0.00299266851347385,-0.00551420319022747
0.036631325440798,-0.0441423800521051,0.00463460042881895,0.0206919206622793
0.0543153410458325,-0.0298071269360001,0.00283368986320375,0.0437930313385514
0.0404438580423796,-0.0114961086191371,0.00137184415696088,0.0529001317067433
0.0326173496434899,0.004412943991337,-0.00262921164283017,0.0441152981913807
0.0573876620557325,0.002686155897853,-0.00834909088137551,0.0234559556574342
0.0952583702500958,-0.0317313270027844,-0.00678238864927724,0.00129674979256243
0.109202172115589,-0.0735757832643283,0.000653930383498093,-0.0175578562153362
0.0812419142101709,-0.0834430680262062,0.00495041483618311,-0.0328077217831795
0.041353213322871,-0.0754570970100545,0.00669669063897921,-0.0426504429918335
0.0144481458181768,-0.102564373094635,0.00988308420367389,-0.0442916767887693
-0.0201342672805775,-0.158970363314451,0.0102376237599162,-0.0371236784515841
-0.0620592441630929,-0.170795037250471,0.00681094543050234,-0.0238454999574232
-0.0766386359236056,-0.111838156407567,0.00430871468218975,-0.00870507228243691
-0.0565745872108086,-0.0307163152592135,0.00366837600028191,0.00476785784727744
-0.0296959115596763,0.0260507841506282,0.00603588538783802,0.0139495982871781
-0.0174299118296332,0.0399687897535115,0.0104182088683369,0.0172081580413083
-0.0158838415913386,0.0285925989307032,0.0140436624571993,0.0149901833300031
-0.0151694458703469,0.035455144343979,0.0142096869935797,0.00941732713983733
-0.0116368922619255,0.0643675573455732,0.0104861682980038,0.0028688446780449
-0.00475653131857233,0.0819105510015262,0.00554087994622534,-0.00330126225928311
0.00204644512296876,0.0753249921669494,0.00185524012969073,-0.00890386032186225
0.00178190274967495,0.0462714580412167,0.00276732449820501,-0.0131208177478091
-0.00535532571558004,0.00778729981318661,0.00534247291479979,-0.0151307002864962
-0.0110896206043512,-0.0101562242602458,0.00108275765912828,-0.0147090761737393
-0.0146277843429616,-0.010807104393318,-0.00628535459325196,-0.0108859879790447
-0.0179350245327712,-0.018377715643996,-0.00639357567970211,-0.00490875882866714
-0.0225892649541031,-0.0291868401515852,-0.00263479156668855,-0.00155215246184194
-0.0310129936630372,-0.0376711579531184,-0.00229926802129295,-0.00287180141866999
-0.0403181128729955,-0.0549854914462501,-0.00456774064853555,-0.00525149848301476
-0.0377454116128984,-0.0805163461559979,-0.00528376150836383,-0.00427673620403599
-0.0171912734340109,-0.0941531045212236,-0.00364182903027844,0.000357723114493358
-0.00238179812845572,-0.0810900293266785,-0.00227450513747761,0.00448270543775127
-0.00924156222203607,-0.0532572078979915,0.00232719147666954,0.00397538813526206
-0.00832242203609709,-0.038338229418808,0.0103857141907707,-0.00162114056192205
0.0284248553775916,-0.0383348703138064,0.0139904043259907,-0.0103616717387839
0.0762719815415302,-0.027302135412479,0.0121959932053053,-0.0192641269918129
0.0851371270557428,0.00454132145489196,0.00915269808010783,-0.0243033901899257
0.0615649656947603,0.0393348816286847,0.0070350484121238,-0.0220661158739445
0.0569173044072131,0.058057252541353,0.00483960442499092,-0.0134455259784893
0.0571343034361914,0.0628594055846715,0.00210628461617177,-0.0038832100355829
0.0201749918689107,0.0661771386187728,0.00318840313008487,0.00298071786630871
-0.0361263206485937,0.0448463505489633,0.0106596725575704,0.00830575497861645
-0.0817283019494771,-0.020803615116194,0.0178991769177571,0.0126091498894911
-0.105037320120302,-0.0704160103475266,0.0159701960147378,0.015383758178049
-0.0897110378751755,-0.054903945268738,0.00582965058102535,0.0199120377996521
-0.0393419233449385,-0.0289384083166269,-0.0049816216122575,0.0284528069229936
0.0271781574084793,-0.0365551882755737,-0.0133568796670767,0.0359562540953153
0.0816204637295089,-0.0370897673423267,-0.0227364901203714,0.0356885312523954
0.0755553910912327,-0.00679479194993676,-0.0319611981226145,0.0260305368704002
0.0300360307724194,0.0219224979141212,-0.0324291149305929,0.00959457657289219
0.00930051235831328,0.0321068274407753,-0.0234306591380317,-0.00928268784611132
0.00805402277222164,0.0430208049266813,-0.0125876861879882,-0.0251805590291058
0.00170794293512775,0.0617973735946792,-0.00341234462428453,-0.0314856097125771
-0.00054609724079243,0.0760169683690512,0.00318946651532827,-0.0248750479206858
0.00106513678980545,0.0789724517797492,0.00503952150934312,-0.0112741511000209
-0.00565514446520822,0.062139954314993,0.00428225251108248,-0.000676059631658541
-0.000759121752789972,0.00749057301337798,0.00577139824036725,0.00354377855484496
0.0299424011240136,-0.0646152575331649,0.0103544645016373,0.00431703821796661
0.0559137393697087,-0.0706848364855783,0.0151121970991274,0.00368672780596708
0.0538961901282962,0.00583440790291812,0.0174397818506615,0.00337980488172893
0.0371155755384861,0.0747223722255849,0.0153984744288541,0.00688872919426335
0.0290850605794026,0.0929390138201104,0.00954816205227732,0.0152499880802123
0.0295641470239489,0.0953665231589191,0.00523724484380344,0.0247325704595886
0.0194685525902313,0.110519030488638,0.00293262741695326,0.0300382126911532
0.00111389542164175,0.130950210686035,-0.00275599637797454,0.0297928466670406
-0.00796160670969383,0.128552689860249,-0.00959752413774264,0.026954368302309
-0.00743978717070341,0.0711889389147496,-0.0105039928683274,0.0232453184902897
-0.00558835083634051,-0.0314792169722479,-0.00640695532405339,0.0176004236402568
-0.00349726863106243,-0.110923534188035,-0.0031881395432452,0.00941541146499959
-0.000517443607563541,-0.135880010804182,-0.00393461033455337,0.000155310226417307
0.00587048515084423,-0.135679237287452,-0.00616618405198372,-0.00796936917116395
0.0213831214395905,-0.120436139002005,-0.00698283348804847,-0.0130795287704028
0.0333549010087454,-0.0797608143881487,-0.0056639185059384,-0.0139799301669259
0.0201623935615197,-0.0218626439868941,-0.00373062971842748,-0.0122531526427765
-0.010556358631831,0.0191210431318358,-0.00347908847868655,-0.0117159884317924
-0.036828821951626,0.0120056509057089,-0.00301847727519917,-0.0138034882971539
-0.0552000493784784,-0.0159381275038892,-0.00436563689840895,-0.0164141381567516
-0.0649034575582024,-0.0127358226963936,-0.0105940488177945,-0.0166204546573302
-0.0559490473933161,0.0139789026271721,-0.0170953557480266,-0.013370168629456
-0.0423237137477037,0.0230962587710797,-0.0187324331985044,-0.00836480082170835
-0.04206124107989,0.00719727656549761,-0.0151737219329376,-0.00318531171095031
-0.0314968504796568,-0.00760833989538146,-0.00989985458480095,0.00221455320429053
-0.00196907623047692,-0.0145932400526499,-0.00488281067352098,0.00497703765342969
0.0140340334602728,-0.012373402307403,-0.00150968484688191,-0.000684267132010046
0.0223838696104434,0.0234419765667928,-0.00172251717904073,-0.0128458069396351
0.0466101303153191,0.0684445003464028,0.000550551441563851,-0.0203794889159246
0.0525517732586109,0.0709845449129721,0.0084834852491897,-0.0173128149078368
0.0195681515497568,0.0478472760536965,0.0121125731720057,-0.00819521880938453
-0.00634352592408902,0.0549725191098851,0.00405417096647614,0.00144283742052867
-0.0035347600186167,0.0920104484130481,-0.00834530503747825,0.0101187563783371
0.00263763655110325,0.111263458743874,-0.012799727106158,0.0161921976533469
0.0193065934127418,0.101844827295418,-0.00771209156847489,0.0168134217196637
0.0508227096314047,0.0811126862828761,0.00167662483550558,0.0112643452801292
0.0505514079121794,0.0686277347514798,0.00706669671992382,0.00192051351485788
0.00605816209396685,0.0676060070525979,0.00243761210410663,-0.00674271472992443
-0.0388126423751479,0.0316650336188265,-0.00554897050194972,-0.011943278582212
-0.047536457533298,-0.053166007076128,-0.0123876640594304,-0.0150275548775655
-0.0205225004843578,-0.113588869674597,-0.0193780122633127,-0.0173233691639147
0.0128147673832643,-0.12047470389308,-0.0222086032105352,-0.017537312462259
0.0286939494420628,-0.142494718654573,-0.0200559085039499,-0.015153190613097
0.0286352511963095,-0.199308410139872,-0.0152356017780448,-0.0120539219298873
0.0218805084758485,-0.216353521541143,-0.0090513781885905,-0.00955586097208804
0.0149647849118446,-0.148139480557068,-0.00428538259055005,-0.00712848266043796
0.0118803955329564,-0.0383468887043423,-0.00138506277841016,-0.00412129612111329
0.0129341288361595,0.0399639358430254,-0.00172831641762856,-0.0009198566685772
0.0222149236131825,0.0602830641978412,-0.00349550771238802,0.00155367726142889
0.0434821841202224,0.0672178082016268,-0.000894958928314408,0.00352000944447484
0.0652185282895022,0.0992180822939327,0.00210975310205338,0.00626112280541185
0.0642092201474394,0.126725181495628,-0.000656709714751355,0.00962091030654533
0.0366395922820728,0.118927657339001,-0.00521207694126205,0.011651597197457
0.00745720281450979,0.0866467072877216,-0.00594453218478695,0.011032425183044
-0.00570777350544833,0.0557627064876739,-0.00303529880249843,0.00821333348882178
-0.00682199468039306,0.0396646530532206,-0.000486666570620874,0.00409475985917332
-0.0015850981049193,0.0313472404666274,0.000503606638737735,-0.000434232708330998
0.00760819670344353,0.0223132196122548,0.0031246022540558,-0.00334196384353416
0.0162369275864288,0.0128295813362207,0.00770517547833746,-0.00297497759131309
0.0177130659653227,0.00027608893775673,0.00888723499750128,-0.000240827631327491
0.0106412113319228,-0.0189037244040464,0.00302029772184195,0.00320098123539697
0.00144214442910714,-0.0378866687994958,-0.00368806172133008,0.0068533382077793
-0.000203869045861976,-0.0486830285389855,-0.00465060452483982,0.0104672454109241
0.00625367763180541,-0.0531997514783558,-0.000653311480310186,0.0137795315592458
0.00480185759760767,-0.0562117108249239,0.0058330556599646,0.0161484435121925
-0.00430166052095009,-0.0566913088464905,0.00849747757633755,0.0157518608157018
-0.00536139586107613,-0.0585340300075153,0.00477974379034436,0.0123020611045686
-0.00343210692191267,-0.0749921004187668,0.00148849096379316,0.0076699884594036
0.00461956897942931,-0.109543861040708,0.000154926373646427,0.00172300050121457
0.0267511441291647,-0.134259326797685,-0.000632224257941966,-0.00742142205923226
0.0377120185231755,-0.109628845344529,0.000377185632356656,-0.0183612049600436
0.0152524120475803,-0.0613081601932408,0.00173398484017188,-0.025719616919314
-0.0213610595855215,-0.0449911415498523,0.0032095065772174,-0.0261341949677567
-0.0161066353950889,-0.0444437558054974,0.00463876805757305,-0.0209998532356957
0.0503480309769413,-0.0243888317015476,0.00744764573782177,-0.0110578110797998
0.115895451711159,-0.000110863154525472,0.0145541463107737,0.00380361305704376
0.131952113403049,0.00713472230039581,0.0175634011426518,0.0188844669487645
0.105372263930653,0.0127013223857206,0.00829530156506412,0.028063143535831
0.0471871698296168,0.0437941369994932,-0.00483437269565501,0.0308936291641267
-0.0292582943307774,0.0882931265240436,-0.0120676633643724,0.0300646395604474
-0.109745411105721,0.0883559835167647,-0.0106176590282911,0.0247624007639391
-0.170475304073137,0.0174746378140371,-0.00251826224549678,0.012895979161467
-0.173466669887301,-0.0604209641080047,0.002664456628899,-0.00315519886993483
-0.120239088707002,-0.0715873493149156,-0.00196382675595306,-0.0187375265086259
-0.0598739233019445,-0.0306868158929841,-0.0126677344186585,-0.0306503864720346
-0.034891133611285,-0.00448636837750313,-0.0192163623753838,-0.0357648368022076
-0.0295094740834801,-0.0290094859386516,-0.0179191707431589,-0.0316619115466826
-0.0137119012273431,-0.0594792323468658,-0.0148147077794621,-0.0200521332137902
0.00166052428958585,-0.019702075158462,-0.0119076271146595,-0.00553776612355855
0.0104339409288828,0.0823602540275202,-0.0106936535955848,0.00788552445972968
0.020773585906315,0.16832801680224,-0.0154682652107697,0.0173962519383832
0.0222950580558717,0.196696529858795,-0.021470049375906,0.020561881495479
-0.00315108889152151,0.184403372405913,-0.0196110348734011,0.0159733246508133
-0.0486631434662634,0.14613671036949,-0.0117838393412414,0.00520687996657538
-0.0709399194838237,0.0831489476939601,-0.00405208986423302,-0.00478549821027664
-0.0358221041413492,0.00358584436951501,0.00656648480064381,-0.00591267058863572
0.0331782591540228,-0.063112627324764,0.0198391359422625,0.0010941449051113
0.0896968483722958,-0.0745795529149798,0.0278413290348066,0.00790889353735832
0.101388871691135,-0.0577304371587298,0.0247256410075825,0.00919619997704192
0.0673450391199464,-0.0688788867212412,0.0117379546453949,0.00643511070517014
0.0303229272042726,-0.0953779715821532,0.000948463109388939,0.0032996421907544
0.0167760042732873,-0.0959773211106078,0.00110336708732908,0.000358541362988449
0.00931181943787285,-0.0459715673559337,0.00436026683298817,-0.00496957765631501
0.00135908133101649,0.0306201912610146,0.00133383626472166,-0.0129526959313375
0.00501502978740073,0.0711945248718393,-0.00396263726397606,-0.0189685720206353
0.00285948143219189,0.0603815150335286,-0.0050066064848317,-0.0191050343364013
-0.0309180692522365,0.0353244040205984,-0.00399147914196768,-0.0141570379191428
-0.0689248359696143,0.0206875855809204,-0.00274533133210493,-0.00694518811800471
-0.0728036520322312,0.0202433530063665,0.00489196450068987,0.000304525897865143
-0.0631450650757492,0.0309366783318925,0.0182272776544688,0.00661929870868308
-0.0709916769428241,0.0441955482960849,0.0241358982613581,0.0119350874341699
-0.0826236492217145,0.0515422624241115,0.0199880758915323,0.0151783120884016
-0.071229122705975,0.0480160471284351,0.0164223208637834,0.0128143279496208
-0.0298162799884373,0.0384848095676105,0.0151469627220912,0.00102721201173251
0.0152061921086434,0.0312121833175512,0.0137275358280109,-0.0179053504740342
0.0250955223295678,0.0266446135025535,0.0160157828159579,-0.0324450594600232
-0.000475954944601065,0.021721198690225,0.0193944565089963,-0.031493396369201
-0.0265802319228889,0.0142414153108158,0.018777055385979,-0.0156996853450905
-0.0327497094453014,0.00473926092413829,0.0152664213816457,0.00599965201376345
-0.0256277120388752,-0.00274707094550235,0.0120836579609804,0.0249247759269153
-0.0170167077781601,-0.00415868353266235,0.0105802473131641,0.0360006513650162
-0.0130134474589668,-0.0217063674049807,0.00942718930952286,0.037993528526223
-0.0142237289161706,-0.0754894328420641,0.00822765066112811,0.0316224184039983
-0.0151017253933162,-0.118615985396334,0.00534651554315767,0.0191418596918022
-0.00871134498318209,-0.107187882198167,0.00142849885669951,0.00532957129694914
0.000961694660040327,-0.0790758247670302,0.000268181147513402,-0.00573740503869101
0.0104068196782238,-0.0782808625151042,-0.000233607391798299,-0.013588512782616
0.0176141516724456,-0.0798648491642958,-0.0016461322222394,-0.0179896862007293
0.0153497641395755,-0.0411092680057739,-0.00116806502058607,-0.018050392857008
0.00879494072768683,0.025845568873024,0.000240632751050861,-0.0151724032958371
0.00293455916599283,0.0675140165298936,0.00158355364834656,-0.0118158621912801
0.00640402217149279,0.0581492006486171,0.00188097679017692,-0.0085248486656961
0.0321055745614521,0.0280145650952909,0.00201508794557011,-0.00446271811288128
0.0591297393241357,0.00536108095197305,0.00687206004591752,-0.000411160445221054
0.0541782478730471,-0.0212228619257507,0.0109156831484423,0.00121139762218631
0.0214578840383136,-0.0450594823982774,0.00802532004279109,-0.000277894586439423
-0.00400406776441301,-0.0393562035091307,0.00518831251889572,-0.00267402575943479
-0.00937040675910315,-0.0172758716662121,0.00629874242869221,-0.00370629801004794
-0.00643766134254219,-0.007265277541369,0.00679937489485111,-0.00376225096038932
-0.00136173837660915,-0.0123465144189915,0.00339124009512664,-0.0040616214866338
8.80531856858671e-05,-0.02027389815963,-0.00172482509577034,-0.00285226816787229
-0.00691929095126671,-0.0190359296071011,-0.00245666380803308,0.00246884319308547
-0.0192909484001898,-0.00115296714397326,0.0026275694731082,0.00942535279843379
-0.0258053509189431,0.0252857889422986,0.0101256686816753,0.0127404099241219
-0.0198695784766433,0.0442489728065069,0.0161847875349276,0.0121978760507029
-0.00958557892867572,0.0574438585720375,0.0137991126316122,0.0113091313759056
-0.00816085315251751,0.0739626233566469,0.00271985200597407,0.0108238388801093
-0.0235454940532509,0.0887941310439724,-0.00858293733937765,0.00926284222111659
-0.0446227877681545,0.0864218933033738,-0.0153524419988984,0.00560216446907583
-0.0509505458141056,0.0666065982305167,-0.0172986249601304,0.000820096523118879
-0.0441533350357044,0.036596073531349,-0.0151522585338162,-0.000379068682415917
-0.0314797412223922,-0.000537048447886504,-0.0100826765554134,0.00420437449509664
-0.0133872392955799,-0.0259175470926582,-0.00275896170554583,0.00949407300899789
0.0067918311046546,-0.0371380843135806,0.00290665377714049,0.0113046008997297
0.0370514819178605,-0.041952465092832,0.000325131634511989,0.0102918095873444
0.0623059282278605,-0.0226884156883163,-0.0100858732607367,0.00798665652537693
0.0489183022035111,0.0173287356772248,-0.0218357043612841,0.00511765668425637
0.0154993154777117,0.0479022324686328,-0.0286659031090564,0.001457775620676
0.00298797165795452,0.0567822633316564,-0.0280094353528062,-0.00359631143143625
0.0187371384536823,0.0610375481350279,-0.0232356772131539,-0.00976905963547435
0.034723272137454,0.0736786791871532,-0.0175347754223883,-0.0155540961782051
0.0218528054052229,0.065676853217991,-0.00933216005617162,-0.0196102092157155
-0.00379637061032916,0.0124893861425124,0.00310837661127501,-0.0211474400376874
-0.0166580393949292,-0.0629514463599034,0.0169451825180928,-0.0193800107987623
-0.024583637787721,-0.120905129950586,0.0242196799384301,-0.0142642763682306
-0.0369247212083174,-0.120962446560128,0.0201639638316566,-0.00668581835085609
-0.0439008647074054,-0.0594964739892032,0.00936309097191787,0.0019191485222042
-0.0435590056291014,0.0129424486234563,0.00133753316284811,0.00931273276312038
-0.0468364280529807,0.0591169951020335,0.000673265257153272,0.0137070261774531
-0.0550109211465716,0.0771698050985138,0.00118468948184439,0.0149799040764642
-0.0573342287056644,0.0728545767002724,-0.00163912803478619,0.0137905796524894
-0.0457166063804095,0.0592022844395613,-0.00410246077412104,0.0117907176202645
-0.0198807839892812,0.0474159750959034,-0.00339561425173617,0.0108138640037889
0.0104863395789671,0.0326709564602524,-0.0011616818040926,0.0100721463842762
0.020605568399673,0.00882593713046175,-0.00274080041729484,0.00735362748278559
0.00529342735246649,-0.0229079457593847,-0.0072262651711885,0.00325776203144946
-0.0107656687345256,-0.0534310228551515,-0.00817941164817692,0.00059382196284492
-0.0123391167678626,-0.067890918490929,-0.00935670001835467,-0.000203280116905281
-0.00830744577032433,-0.0585127012625159,-0.0133221837848594,-0.00172401356861898
-0.0109478087111817,-0.0318666400492512,-0.0142660683341014,-0.00515910706897244
-0.0176442676544778,-0.00364819718369153,-0.011963975047446,-0.00830176858879688
-0.0193371051655778,0.0154256773443935,-0.00883751095024358,-0.00900083850653173
-0.0139891079056296,0.018757975977343,-0.00472695611369497,-0.00742191121152912
-0.0125928139722398,0.00299249403283021,-0.00142828298256965,-0.00532750361286018
-0.0235552556339167,-0.0204281479101139,-0.00294006917604453,-0.00508697694603943
-0.0369705231039256,-0.0357007473423424,-0.00947454740133897,-0.00757799245271654
-0.0387555155925242,-0.0411746273128328,-0.0164393063700371,-0.0105909227631308
-0.0283162511819419,-0.0422895295117368,-0.0189202633314795,-0.0110008970735774
-0.0121807605543956,-0.0406880983015937,-0.0148150615755372,-0.00810962043191952
0.00398658344125914,-0.0380063582080751,-0.00717266221585481,-0.00369290249307925
0.0128500951174549,-0.0355545358633991,-0.00279265777656036,0.000278519359104508
0.0137139595430183,-0.032750828317033,-0.00388874963344936,0.00274222088826199
0.0133847572772598,-0.0311733836193975,-0.00508436843032813,0.00315939930191241
0.0134437420985097,-0.0261975747317773,-0.00330012261061019,0.00165267564051204
0.00952805637067075,-0.00877475001373371,-0.00237233172817757,-8.54941717788681e-05
0.000180932451333615,0.0135318587762784,-0.00616159472437802,0.000573091764821338
-0.00984233729404774,0.0228173188593819,-0.00875326312303805,0.00439860143055766
-0.0126245824234386,0.00925862159521946,-0.00289010303026599,0.00846419476411592
-0.00884573424352118,-0.0139516026269342,0.00697239213593544,0.00926905881721722
-0.0079696262437786,-0.0131613341276877,0.0125453993272186,0.00681450916792361
-0.00950885256744717,0.0163005990451999,0.0107938754421519,0.00301492173260626
0.00102394536691418,0.0365253255922633,0.0080342466623619,-0.000870889304888055
0.0327309810116934,0.0290287016268552,0.00986893189481577,-0.00372203213655034
0.0714753262078772,0.0140728327620984,0.0104360621445078,-0.00456147761735015
0.0888445756456685,-0.00227981980319161,0.00396819685563235,-0.0038319688004963
0.0736012730770308,-0.0275244057638142,-0.00581548165041096,-0.00315093155981831
0.0449083644544332,-0.048743002671148,-0.012066598146096,-0.00267280329073658
0.0263085475894579,-0.0489176007309582,-0.0113834091496883,0.000228542716040153
0.0119832295667079,-0.0236316316658087,-0.00537187000136276,0.00663848938643566
-0.0205511946827699,0.0213151471268151,0.00271447761630079,0.0116674303843621
-0.060698175277695,0.0728762002067027,0.00797980801087873,0.00930986634780566
-0.0906487586512198,0.111179278622305,0.00570810593554544,-0.000742467793376779
-0.11000212863355,0.124762754132992,0.000399028407303351,-0.0138206036255466
-0.102818215457174,0.125709988550445,-0.000795105101591892,-0.02283966399588
-0.0641702209017268,0.127197631392891,0.00237582464114977,-0.022119436108892
-0.0189731874340635,0.134255507012335,0.00616711719208996,-0.0125933947453841
0.00620927037825025,0.148337151408579,0.00835478610045521,-0.000185472592821246
0.0110035945680826,0.158470116298269,0.0087555622603529,0.00934581629796885
0.0129002187900834,0.162689735827198,0.0074009128405638,0.0126109697825504
0.0222953780042508,0.149963961790093,0.00477376879646217,0.0102479415872981
0.0429119296040996,0.0616206181360947,0.00321128202034274,0.0062694451217875
0.0679003259542337,-0.1040258422957,0.00515049016579962,0.0036875104432077
0.0782156776105193,-0.257278495304772,0.00810191954971057,0.00236487367240478
0.0625683469558805,-0.34037668176525,0.0067041416414019,0.00149770159482397
0.0285003025128802,-0.318451295162665,-0.000195739184658613,0.00127212744726454
0.00250793817484334,-0.190984039979889,-0.008817050008265,0.00171033339747555
0.0146919771919131,-0.0487324345361076,-0.0148707859551618,0.00194276317524097
0.0499395496877391,0.0406801756796943,-0.0170979652013664,0.0013475508660461
0.0544536919057287,0.0851378197544294,-0.0165591504628816,0.000213343463046534
0.0155348075315905,0.0981018289534502,-0.0122859372509816,-0.00140332256299035
-0.0189996591632865,0.0911202896533572,-0.00467177070001364,-0.00359906850421061
-0.0150193545135373,0.080159622688818,0.00195798293194182,-0.00610274405416471
0.0156126936156964,0.0717739131306454,0.00348848929037816,-0.00809974159866346
0.0382269776269336,0.0696240350075534,-0.000171824073870768,-0.0082447014324771
0.0257333096020634,0.0727464036887255,-0.00439704588647291,-0.00569115286738468
-0.0205025040548013,0.0743964982239113,-0.00695857330492729,-0.00132908724255873
-0.0727772648465595,0.05814204701868,-0.00467610723484499,0.00177127065042297
-0.0824510782317763,0.0225772388306403,0.00529671790866914,0.000513696165226649
-0.0370553249301418,0.00790062192405944,0.0123249073530141,-0.00563251184515754
0.0160098957546679,0.0253009156957612,0.0099058393638793,-0.0141438820349781
0.0386032884121799,0.0261803342465376,0.0101285582959916,-0.0198344304018971
0.03036927256579,-0.0271084905295823,0.0194107879555182,-0.0178443358362485
0.0141241002379302,-0.120648099182669,0.0251062497763925,-0.00959038252281132
0.022024273966201,-0.189279094194793,0.0159173321724745,-0.00127156594578492
0.0548856524742886,-0.178109315396876,0.000611104334516419,0.00552061930464729
0.0788542359249777,-0.115391266754953,-0.00747647909887546,0.0133042131522816
0.0749063224081961,-0.0627709253686176,-0.0127636680989096,0.0196674999361034
0.051984360315868,-0.0482848990418353,-0.0208412697063924,0.0187779314464
0.0276751418371544,-0.056262966608178,-0.0196491648324363,0.010593007189826
0.0153331822052657,-0.0528550534399385,-0.00605155694553045,0.00132220875444878
0.0101178933373117,-0.0264118890850738,0.00426476968581147,-0.00329983785273053
-0.00119139646405472,0.0123306130058373,0.00671128047901131,-0.00237836650354805
-0.0169203850186789,0.0310671082148362,0.00645403811013587,0.000772171347557124
-0.031260616323766,-0.00461899909638052,0.00349940742161708,0.00272516145193766
-0.0446220944430034,-0.0642613806253897,-0.00146924914004209,0.00262710334584573
-0.055937612187091,-0.0747107295864324,-0.00706713833515913,0.00152065736941403
-0.057884139546643,-0.031486680115261,-0.0119438514766259,0.000831717041407484
-0.0438896677346904,0.0107333134099405,-0.014150750685628,0.0016878471492648
-0.0198289540784796,0.0293254035919987,-0.0115434930130305,0.0034497427039217
0.00935947132262491,0.0342432723059565,-0.00306245190004627,0.00329268935637926
0.0425818816803773,0.0252855725348294,0.00626785883691478,0.000685960318973864
0.0742260634843465,-0.000469266156554536,0.013878084876967,-0.00188241541701416
0.0877654632294264,-0.0292428768385017,0.0240858685794163,-0.00495489912915623
0.0584014748194851,-0.0393762035971382,0.033615201178345,-0.0102383404129195
0.00193225584981117,-0.0326542397692247,0.0334207337774389,-0.0143780504781329
-0.0351835725161937,-0.0320691857344649,0.0253762887882942,-0.0121653525478684
-0.0469006945732507,-0.0391613848717339,0.0157576910774044,-0.00279765157710522
-0.0530031177810532,-0.0388194013494767,0.00858525205120101,0.00938707306374338
-0.0512369462822038,-0.0296637381716343,0.00948808422453406,0.0191855467889643
-0.0315248297359228,-0.0212225127919941,0.0147264035848641,0.0230761531035054
-0.00970100363072197,-0.0209639555720381,0.0115851599586957,0.0192599941495249
-0.0149575988348795,-0.0214338148359275,-0.00106659227857623,0.0107218869459228
-0.0396475780987451,-0.00997693587984631,-0.00974576830699722,0.00296456090870579
-0.0434776349412437,-0.007287965952117,-0.00945315285030278,-0.00356600594941858
-0.0128788206481723,-0.0284104284959006,-0.0134560042899309,-0.00994306411706658
0.0236620117642105,-0.0368742814506097,-0.0303027346960554,-0.0115421272815446
0.0472395857432612,-0.0150947321924811,-0.0463641246070425,-0.00338074057623179
0.0678647264715185,0.00792190123551013,-0.0445111313055089,0.012080115215218
0.075291383145898,0.0228436976723122,-0.0255444127500546,0.0264580713687033
0.0504860204984237,0.0251224016927819,0.000251230549332279,0.0317244836334074
0.0199089680938178,0.00620517827183421,0.0173327631485547,0.0260127874774436
0.00706689253455586,-0.000638975746698849,0.0168502731672393,0.0164296299834836
-0.00925190559968578,0.0172480508695129,0.0153399214296934,0.0108701689437734
-0.0429228135985901,0.0341094000284422,0.0242332731578556,0.00686971285278621
-0.0752577299120766,0.0332635075827953,0.0303852890629904,-0.00422805604523448
-0.0697240211914381,0.0113202568693445,0.0242510461400953,-0.025745163947008
-0.0227336884596129,0.00283512714231393,0.0131069193748886,-0.0500981790364503
0.0211059843871676,0.0396127965534133,0.0044294134929721,-0.0626795488891933
0.0453290817920242,0.0880030184470481,-0.00178619950328538,-0.0529211339697583
0.0650966336788351,0.100241820338271,-0.00327826944485737,-0.0234184179888818
0.0662025572195126,0.073864005385271,-0.000320023082722476,0.0096651969199162
0.0381036182579896,0.0368111507497226,-0.00101196535873216,0.0288047411594773
0.0174196787745678,0.0189597402399387,-0.00609449646813513,0.029280729263813
0.0228981436537474,0.0332956121321771,-0.00918522153047414,0.0191978897432952
0.029449893702451,0.0576375504918024,-0.00986256807200077,0.00909795185255926
0.0218287100007249,0.0417438685337279,-0.0096542990967763,0.00367215524991508
0.0085768083370444,-0.0244240392824289,-0.00671672144606715,0.000755103677440647
0.00789762053355491,-0.0851527190823745,-0.000841102956319652,-0.00315771137407036
0.0202411304447567,-0.0908390133444962,0.00588634861188815,-0.00619401992673731
0.0290655115144738,-0.0512694217594445,0.0120424654247854,-0.00397408888302331
0.0275460606819359,-0.00522888089594019,0.0119243312917372,0.00164705376007565
0.0184232410299503,0.0380623440669499,0.00344166829116583,0.00543729923973685
0.0127295981664698,0.0651592679294687,-0.00272858614888292,0.00652707919079512
0.0154304878761858,0.0503325332139415,-0.00200802398306907,0.00573738556835723
0.0187394478646969,0.0323120644250676,-0.00224794396615798,0.00176591710074277
0.0236869106638337,0.0491122099726627,-0.00378364131483466,-0.00510324104166792
0.0277778256458771,0.0622190909587088,-0.00129580398253374,-0.0116845096120942
0.0211791846958201,0.0633355093559248,0.00152887922136041,-0.0161575014171248
0.013085206246865,0.0734239754704662,0.00229287380725622,-0.0176260688802259
0.0105260224085587,0.0632601361514356,0.00556162889720542,-0.013017586490685
0.0039792936434512,0.0263048422183556,0.0127402292768849,-0.00197935091967043
-0.0100690059576847,-0.0110590382563808,0.0215088473951357,0.00865807364856018
-0.0194765827010293,-0.0461440975842203,0.026186295136028,0.0116279635654467
-0.0172929053268256,-0.0550404531795774,0.0226640288725362,0.00704232271587105
-0.016991438737314,-0.0141730504485226,0.0143342126546723,0.00143600185232822
-0.0237135362628592,0.0234967518263397,0.00909210821302159,0.000513535388673337
-0.027541555672752,0.0133992547423152,0.00930693529692231,0.00430517665486944
-0.0181397696807151,-0.0115670648853065,0.01171939495822,0.00941643734500781
0.00296466229594406,-0.0269914385680078,0.0194043264454735,0.0125134902400216
0.0177690738410486,-0.0461764820758485,0.0335314852948628,0.0116581021051135
0.0298634701141514,-0.0576062926247416,0.0422957345201572,0.00705327889267329
0.0710974745447297,-0.0398842898559886,0.0352236483003797,0.00151492248604945
0.107624509940579,-0.00941771124685264,0.0167938995378515,-0.00186360854583435
0.079810449288572,0.00391299298044637,-0.00414488512232633,-0.00351572427370392
0.0272684123395606,-0.00747103651263384,-0.018668709709654,-0.00534288873918116
-0.00293356468698557,-0.0263797371356255,-0.0204485797387912,-0.0050657089214952
-0.0180510799317648,-0.0343852179830933,-0.014873387702802,0.0026715373061445
-0.0214570603196912,-0.0324123274174774,-0.0113748177816632,0.0177389311982056
-0.0214734013797103,-0.0292951240201186,-0.015013773371603,0.0320761346585016
-0.0320579995474525,-0.0278492775730245,-0.0235789418966345,0.0370047588923918
-0.0481298320964927,-0.0317739083324032,-0.0270110956006967,0.0290019990115544
-0.0624011486237446,-0.0329931816271563,-0.0197515220469965,0.0105076487750798
-0.0733583909656041,-0.00825963934047134,-0.00800617120367213,-0.0115021979594535
-0.077207513200333,0.0412604569613879,0.000355584125309581,-0.0288930321724948
-0.0692287815615955,0.0794715820591855,0.00354563922892815,-0.037111290850741
-0.0398741874572265,0.079220422257714,0.00395178156345175,-0.0364401640589378
0.0101356120189917,0.0427665110191755,0.0018921618434851,-0.0281004926470672
0.0634269733416876,-0.01404549354239,-0.002098790039634,-0.0133325465845079
0.0963505626781817,-0.053014093200633,-0.00628499342142096,0.00357199992287007
0.101215464221291,-0.0501150002608297,-0.0125358230813455,0.0163340075898192
0.0959248695455516,-0.0499917907810311,-0.0205011392134381,0.0211654128617952
0.0782239222619072,-0.0761458691218339,-0.0267861182123278,0.0197046695205601
0.0355375595168878,-0.0705907704692721,-0.0295581694345446,0.0169764939881564
-0.0028202647400174,-0.00845244985645743,-0.0286587055469718,0.0160481370129927
-0.00879042496997505,0.0610243318147187,-0.0255989374043551,0.0166441397449912
-0.00292826720736156,0.0970433040684912,-0.0220602806163798,0.0162677995959178
-0.00738528929660739,0.102316709492338,-0.0193985680216924,0.0096327043973767
-0.0155305590377833,0.0953454370907433,-0.0171806270330416,-0.00597459236257346
-0.0260952850782994,0.0871942414597286,-0.0154467513335963,-0.0235973801871181
-0.0414759585487679,0.0891894149139739,-0.0139942211735091,-0.0338344439028226
-0.0458660720047883,0.105379730855734,-0.0122482782451864,-0.0360667370696228
-0.0327695336880926,0.117712802351513,-0.0134542638318626,-0.0361148291154147
-0.0220921429263661,0.110935692524899,-0.0193223327714234,-0.0354211951493977
-0.0292164208952001,0.0860441395049156,-0.0256461007503803,-0.029200182584895
-0.044076928813553,0.0305455999058302,-0.0282069389643163,-0.0167525651353495
-0.0486396099598577,-0.0488892210691471,-0.0265334864763571,-0.00416417428267649
-0.0212342532422404,-0.0933326183085246,-0.023007658929223,0.00359844184608589
0.0338094406857102,-0.0719755952017708,-0.0214896259616321,0.00760470568801694
0.0670386001220316,-0.012039433445265,-0.0209600083983951,0.0125472061065619
0.0561986073456589,0.0289650687691797,-0.0193496558992257,0.0191866717245591
0.0297870579860477,-0.00406066916246087,-0.0207492531993373,0.0238441205868359
0.0145528453597031,-0.0747707581427226,-0.027968153562331,0.0244274622624426
0.0143076473241665,-0.0859680898629277,-0.0354774573675693,0.0196251784227971
0.0235513317541193,-0.0187377817950654,-0.0357593071520656,0.00851188874756138
0.0287055072406495,0.0705649272867417,-0.0295816135477011,-0.00624577500081597
0.0132146138471496,0.129808217069812,-0.0213021064662748,-0.020357780767756
-0.0242702121941387,0.138918742644043,-0.0128541024976569,-0.0295824120112238
-0.0707181768544582,0.114577229152356,-0.00838724344376561,-0.0303935243285204
-0.106423414557336,0.0871476089467879,-0.0104751208768959,-0.023138342231664
-0.111215783264299,0.0561170836884508,-0.0121922800790662,-0.0115009922325917
-0.0810899080805394,0.00752786615212406,-0.00453813392594774,0.000367287235112687
-0.024825486528447,-0.0416725523661254,0.00852460171557439,0.00903798223538679
0.0351103341191652,-0.0710882835821197,0.0163497598084005,0.0130249202847806
0.05934329742504,-0.100862946629015,0.0151773903798234,0.0130092774507111
0.0342499816154826,-0.135859151502209,0.00833547417862845,0.0110748446131306
-0.00763480727335669,-0.120707981571352,0.00356177155133091,0.00938189282405125
-0.0303624878710544,-0.0457531938383137,0.00381775978673518,0.00799751544284896
-0.0337645538247677,0.0292725657549895,0.00693154918222049,0.00616163366061156
-0.0357122705162,0.0601251103998559,0.0130691939781345,0.00459618702657774
-0.0389321125517655,0.0526059539164957,0.0182434946825718,0.00354349762442941
-0.0380458935746599,0.0440187095024533,0.017648107420389,0.00247301917114453
-0.0300152674705945,0.025297313712719,0.0126644205387188,0.00198075899161846
-0.0181303367601758,-0.0394817619373052,0.00289460279610757,0.00219221462546189
-0.0190544856866855,-0.105250950673155,-0.0109703576878216,0.00188239357903226
-0.03246014034122,-0.110695882725034,-0.0207492860564167,0.000911740055272172
-0.0407475653529732,-0.0807403258645784,-0.0225542780419089,0.00086752526244765
-0.0353020512866639,-0.0717252623486734,-0.0221282092572912,0.00226603127893128
-0.0216189301946844,-0.0836781175182125,-0.0177302868010217,0.00295074266499083
-0.0135028237026131,-0.0694095622760654,-0.00662885826089171,0.00126544609484549
-0.00822390782014356,-0.0242360298844207,0.00397571271170301,-0.00183633074752843
-0.002137525532931,0.0116964557629315,0.009523392350343,-0.00508981760253021
-0.00495326255342059,0.0253088258698484,0.00853390619030666,-0.00776247966676027
-0.011627950038682,0.0315234817867896,0.00398869258061858,-0.00892106993243186
-0.013883745886015,0.0344123660670325,0.00480161347502216,-0.00773860322441699
-0.0184081595535502,0.0169477007079169,0.0140826495672107,-0.00382915689907528
-0.0270828129631665,-0.0386867986818756,0.0268516914033606,0.00140435942855205
-0.0313899481171624,-0.10960959414626,0.03406401877373,0.00472718737913366
-0.0259646772949763,-0.134599046292287,0.0225492873341212,0.00548107416329006
-0.0151503759893163,-0.0923972212834436,-0.00468338878034857,0.00775715489263297
-0.0114687273091674,-0.0442491318287077,-0.0195639383731422,0.0151271508168081
-0.0196611088591281,-0.0452443327023085,-0.00793607092239337,0.0238863839354144
-0.0281240572564052,-0.0669204810059472,0.0111594014246966,0.0252820510589505
-0.0294775342276487,-0.0533485982114649,0.0207868653129556,0.0156468777522501
-0.0295264511334154,-0.00644766414009554,0.0241202050941677,-0.000285779108494734
-0.0315118037274462,0.0236427209551989,0.0230562082986672,-0.0138769831231544
-0.0260106733847617,0.0202591715008838,0.0181289071911017,-0.0178294540860064
-0.00978318367296827,0.0101850899619757,0.0152535458908974,-0.0124144286974235
0.00247761361059406,0.0129993924616248,0.0134702422859976,-0.00488864065646909
0.00115563286556251,0.0235517821720945,0.0129902150382033,-0.00162393167979353
-0.00839831376548202,0.0325993002692493,0.0171984000200765,-0.00417931916840431
-0.0147584589708789,0.0398924303301699,0.0180752973742051,-0.0100171223997635
-0.017570813175032,0.0388690307669446,0.0096058266787516,-0.0145495177598103
-0.0252078512894283,0.0173673497018391,-0.00145136676779832,-0.0147865645136299
-0.0412050252966895,-0.00942576556678333,-0.011645051676036,-0.011465141797982
-0.0614647521381181,-0.0145722826168115,-0.0202405706089703,-0.00588786454606904
-0.0720449244157178,-0.00991050534322627,-0.019740349294351,0.00223590188497907
-0.0702813342376591,-0.0206653817252907,-0.00963241995966925,0.0113984818411827
-0.0689996217521895,-0.0328803292329149,-0.00135107363475321,0.0171019808832726
-0.0656475903907573,-0.0182452605873128,0.000496147586420607,0.0164233337934958
-0.033443478116116,0.00626406557157805,-0.00160544683391776,0.0110387274417048
0.0260781029586428,0.00621313691253507,-0.00918927074246632,0.00451689001453717
0.0830749127700771,-0.0239048520904401,-0.0146070511570393,-0.000218786864917053
0.120706632715221,-0.0680580366673257,-0.00815819000438635,-0.000709967430301331
0.107679109077792,-0.0863368686682166,0.00228095925118976,0.00303310640694502
0.0402292395350989,-0.0589495874002049,0.00523696636160929,0.0071330214239211
-0.0219121080520099,-0.0177423386372972,-0.00157552407253274,0.00797248877573566
-0.0536149650834261,0.0178758674513114,-0.0114784434581061,0.00607770088656156
-0.0784759333634186,0.034804621677614,-0.0166937019943927,0.00458511998154247
-0.0868443807432032,0.00736700561419444,-0.0152475853806128,0.00492906547622023
-0.0623846439409287,-0.0419735359240278,-0.0107211527334183,0.00480415783634882
-0.0217066539236801,-0.0778004098352376,-0.0100793464046157,0.00174711305185516
0.0146431973118939,-0.0933312517348962,-0.0126422207783801,-0.00201130806424669
0.0337192431596834,-0.0692298301472725,-0.0118921827947665,-0.00239476633919134
0.0302449464989442,0.000630998929453203,-0.00759181179674954,-0.000112772309316481
0.00861710673800674,0.081116254236636,-0.000471272445132724,0.00057323265079635
-0.0178440286040298,0.131235424731645,0.0100986922524034,-0.00302404037680596
-0.0427854305464745,0.132791482062847,0.0140910468629187,-0.0108755211679309
-0.0679968521755117,0.104474838276698,0.00747315755260745,-0.0195864889672967
-0.0764878923171113,0.0638162910891697,0.00429529346301519,-0.0227164522447211
-0.0336385865860632,0.00300101923699565,0.0125019501687953,-0.0165636350227106
0.0535607194133604,-0.0435342487528615,0.0236650422427036,-0.00531841159578737
0.117618662026177,-0.0343944489917934,0.0206585858513914,0.00355360588106336
0.130245728326099,-0.0138671783238698,-0.000339785222010322,0.00781208692882085
0.118129499197559,-0.0235029776233824,-0.0199710640013244,0.010166820220875
0.096779701836991,-0.036680312358084,-0.023036133734223,0.012560266794199
0.0891661138728347,-0.0425665896842554,-0.0142584093985119,0.0139687621876834
0.0876962559913664,-0.0582866188745911,-0.00470134832575048,0.0123007547400899
0.0455539020551796,-0.0731357834626946,0.000510713898201735,0.00750822284645215
-0.0183376837381188,-0.0692748655387277,0.00258972066498381,0.00140684924579158
-0.0574261025126929,-0.0537462249441715,0.00406338838689637,-0.00396906201749848
-0.0753322510726049,-0.0347486039848657,0.00585375636228668,-0.00693270384196394
-0.0730311468802773,-0.00904926924102196,0.0041195674095163,-0.00758373365477434
-0.0439560242121024,0.0207501166069753,-0.00308165452974216,-0.00799199977685893
-0.00459990015222668,0.0446773017224153,-0.00675406467859264,-0.00922959414882483
0.0301403073052778,0.05714383194873,-0.000206303157379171,-0.00907121459996169
0.0524779044600384,0.0568134351163658,0.0123474201088532,-0.0047141810675012
0.0557874947872465,0.0475062023247413,0.0244978227121928,0.00277062406785706
0.0470968781916959,0.0377711638885147,0.0299856911932469,0.00856147006551731
0.0419026762423407,0.0320755924185975,0.0270835916780797,0.0081721707217914
0.0410216938271148,0.0311362813838263,0.0220899522720396,0.000604170472890474
0.0332512198508155,0.0514596575198965,0.0187765311692905,-0.0111164761651367
0.0171578878420199,0.09828841719075,0.0160915111613963,-0.0218354719427758
0.00252511789522477,0.135332292494807,0.0134045637868225,-0.0281153972048537
-0.0038625612918943,0.147732026978945,0.00893667564357718,-0.0288148160484929
-0.005969235236698,0.155120673344859,0.00255045728246632,-0.0218055481845797
-0.0130397050902734,0.166400632250918,-0.0015608696119377,-0.00683766974645175
-0.0234381584986655,0.183208324129193,-0.00300983468640191,0.0102030346548851
-0.022163211612161,0.199183186122101,-0.00402506148875384,0.0228243737055171
0.00118997130560292,0.201656725840203,-0.00199820325537255,0.0290971280736058
0.0422239332018287,0.179010733403858,0.0076588107431639,0.0297155518023561
0.0700604865164585,0.0813034976836667,0.0213016538326178,0.0257740348923278
0.0548257111555142,-0.132409814081955,0.0265766685881587,0.0187972191085736
0.0200053693037178,-0.323931825711849,0.0210726948662028,0.0107871084568083
0.00659754839261272,-0.323625490523382,0.0154103358168056,0.00304169377255468
0.022150565711073,-0.204101195495091,0.0134258401154182,-0.00425340552695065
0.0409147499897576,-0.0906260876477575,0.0116395018898121,-0.0102634422098359
0.0342231285000647,0.0120850633666936,0.00873964952405296,-0.012784919144301
0.0122823536385913,0.0796441980502792,0.00181908794501088,-0.0113628792127499
-0.0109882907359548,0.0602653597968995,-0.00732278004791924,-0.00910084628242939
-0.0445765871313164,0.00072844896151171,-0.010500190036116,-0.00992105648772457
-0.064968642821096,-0.00393084691705969,-0.00573975925340573,-0.014204346251717
-0.0576813879036064,0.0456019440688232,0.00308520607737209,-0.0187615993599812
-0.0624050385200616,0.085498281926091,0.0126676343840031,-0.021518472491232
-0.0875847291947457,0.105350293703939,0.0181770474374781,-0.022342778222388
-0.10198616222712,0.12685812133529,0.0165246587803536,-0.0211975803578188
-0.0877760932376531,0.135279001506385,0.010840119975571,-0.0172876631452305
-0.0369467043419249,0.12789664993884,0.00619961781608626,-0.00976428310425655
0.0350801413913568,0.121018841661241,0.00682458283092537,0.00115079906079893
0.0848625101253558,0.0970852883120414,0.0102115184053066,0.0145385019673209
0.0885610966989407,0.0763081387781115,0.0101535907700209,0.0290221419267849
0.0668870977402369,0.0877311204273078,0.00864490055233059,0.0429856784424297
0.0522102791449311,0.0791661209316974,0.00886728229297825,0.0528771162085637
0.0670688650386186,0.0435162599734212,0.00665718013018616,0.0530118890910487
0.100438240857143,0.0196928252567339,0.0012183778900983,0.0418676381268239
0.0865924287057397,-0.0493033045357048,-0.00015487386379295,0.0239119941037678
0.0170336714935139,-0.173108693584737,0.00117326313376497,0.00352942831348101
-0.036258857857864,-0.248149483343879,-0.00223881586352908,-0.0151927234088354
-0.0669881243581849,-0.24294136114451,-0.00385326877753295,-0.0274065484614631
-0.104517609923532,-0.192318612951236,0.00490740320906973,-0.032107974192106
-0.117189730696376,-0.143815332817424,0.0181032814899473,-0.0320711759259439
-0.0706168315523985,-0.158442485967663,0.0246841214404135,-0.0290672614937004
0.0152828444427355,-0.217258101930268,0.0205878558142056,-0.022675428971726
0.0895269543411264,-0.231790764979013,0.00876020135430719,-0.0124843389519636
0.116172395261038,-0.175617654053274,-0.0055189706633373,-2.50896795908513e-05
0.0978190370380612,-0.0962854073543001,-0.0184539322363454,0.0109011009518681
0.0584330624752846,-0.0434976336325864,-0.0253494926621446,0.0156021915340246
0.0259243369326472,-0.0020526470871067,-0.0250956514905411,0.0120386577162135
0.017217119321488,0.0645288014716312,-0.0235348263509849,0.00536571501158364
0.0227176391040354,0.104818037823606,-0.0166210458964198,0.00433110560311418
0.024251450099819,0.0724919498161929,0.000444520835355899,0.00980285904362826
0.0179653344785463,0.0253956365981394,0.01254583873075,0.014192993903424
0.0136755709917769,0.0230849277195431,0.00918747969447283,0.0131850814136924
0.0163688859133538,0.0398049310120357,0.00447817258042225,0.00995183937039743
0.0149789218058003,0.0239780066809345,0.0112643762246279,0.00754484194040576
0.0103050147183951,-0.0151112805885257,0.0209458678121521,0.00538083392165297
0.0142133619149031,-0.0378334712303193,0.0186432817383423,0.00421029035224878
0.0192823374994713,-0.0478191625425832,0.0050483979905263,0.00519010306931079
0.0182062747142648,-0.0615641197803726,-0.00775475399836883,0.00570781271518261
0.0172120263470293,-0.0701687429659359,-0.0152309479914991,0.00382147363783085
0.0184923047009989,-0.0708875913323659,-0.0187302363838222,0.00221717357269228
0.0230748222045138,-0.0703350053943756,-0.0191284250897746,0.00432450687478741
0.0310270858821303,-0.0696176584313362,-0.0186869779310995,0.00972141716223598
0.0378887381421943,-0.0708212928586312,-0.0191109699821632,0.0140831526948206
0.046092076885585,-0.0733074190392533,-0.0214910284780543,0.0138857379917012
0.0551224044444544,-0.0758322013501531,-0.0213688539067338,0.0100846190361409
0.0532117208700707,-0.0789792337563855,-0.0118171440269032,0.00519245045937163
0.0347981786196008,-0.0717819873580468,-4.04598698868809e-05,-0.00043455714509533
0.0121360254397597,-0.0483990717333951,0.00289800451031794,-0.00713877099921581
0.00207967016111583,-0.034077554756569,0.00248178168669114,-0.0136195591744494
0.00655571086096335,-0.0398745706489677,0.0069583623345915,-0.0178086332480216
0.0211481609567604,-0.03858206947094,0.0139637517522218,-0.0181999151337503
0.0333439825384048,-0.0208568633659753,0.0175345772450444,-0.0147132263232149
0.0306601798169075,-0.000906383794535639,0.0142067195630152,-0.00922308823544158
0.025324450178394,0.0164841139761423,0.0053864862517542,-0.00349692305944026
0.0164500181049392,0.030415238586292,-0.00376119565390681,0.0014243627581453
-0.00812148913043714,0.0299745407286493,-0.0096984580050526,0.00317609395190365
-0.0286905108548418,0.00977164551419701,-0.0136487823373533,0.000476601834762259
-0.0301924087087175,-0.0176672784464158,-0.0154801973223355,-0.00320237954272849
-0.0257429937820762,-0.0375549320411031,-0.0125165058755944,-0.00409091726626885
-0.0196929027587768,-0.043666166661802,-0.00815705761031191,-0.00482578216010296
-0.00486693122700662,-0.0365530394441244,-0.00683282150661543,-0.00997266727847283
0.00763410185422014,-0.0243664310556063,-0.00454401224407763,-0.0165285906273787
0.0010113774516318,-0.0202134210861942,0.00323372234824014,-0.0166702695674331
-0.0178828285635916,-0.0205469406995432,0.010033463760014,-0.00931689338188013
-0.0273336055869445,-0.00520239653521402,0.00864330609947542,-0.00129031088200462
-0.0178251674199426,0.0253675595859731,0.00377391385841299,0.00225693362439754
0.0068683277172981,0.0483897799336904,0.00313368478191935,0.0010861303989834
0.0346672193404176,0.0544999054685049,0.00976257558222077,-0.00285394975183332
0.0430539022740031,0.0458388891654163,0.0257186085582503,-0.00665425825300031
0.0263471458737769,0.0263189255179528,0.0453719975879651,-0.00916153820692673
0.00824659302064484,0.0197419318016225,0.0468622681096245,-0.0125974772272736
0.00840578927351596,0.0358180067374551,0.0233680656725156,-0.0171355181567195
0.0131996667496972,0.0543278949238106,-0.00706791152629655,-0.01771647417057
-0.00254201304104431,0.0658042429669437,-0.0285873780832537,-0.0109992407279262
-0.0326434693858444,0.0583123185720265,-0.0326906192926171,-0.000757747443706352
-0.0511079413665369,0.0237760685868944,-0.0242438433484931,0.00649152821793048
-0.0511753792042232,-0.00631637256664927,-0.017294539326625,0.00761026043725908
-0.0440093056651606,-0.00660633110911035,-0.0154513930666402,0.00329177211987666
-0.0352833087135323,0.00530529439038691,-0.0126922988895929,-0.00298585010663367
-0.0217033280966067,0.0130617235342761,-0.00568801656559276,-0.00635420672919489
-0.00547869821144903,0.0168369161039377,0.00156466452200023,-0.00491183519842566
0.00471307625491637,0.0159827926380475,0.00555853001907826,-0.000632752133987145
0.000322924599238637,0.0127385754219433,0.00702343583504057,0.00445360614741302
-0.00676883089454666,0.0107235692923202,0.00695611434741549,0.00836137685060085
0.0075316496415801,0.0088375321035361,0.00951597360262637,0.00811272332058868
0.0290713276356603,0.00762849524802827,0.0151658598495272,0.00333101253739567
0.0305940832970779,0.00757235471099015,0.0138918328497741,-0.00394041740402011
0.0169383545849079,0.0122323252801378,0.00114682641896304,-0.0130299760830695
0.00270541248790083,0.02439890812034,-0.0137630394680702,-0.0215979618514641
-0.00441515683542956,0.0361859843330435,-0.0215422552444672,-0.0246025373775335
-0.010763836176507,0.0460754333653807,-0.0186230400572206,-0.0204782324516624
-0.0335266076741631,0.0576351838274317,-0.00972201145241068,-0.0111821675448911
-0.0656239663956075,0.0723722047101738,-0.00308228847078913,0.00177511248190286
-0.0909686313683748,0.0844612767100218,0.001728097506904,0.0151759267247712
-0.109909052698864,0.0775569850911358,0.0049252337798106,0.0224259049748646
-0.104907318805974,0.048238282482597,0.004960696347043,0.0195645710583215
-0.0517473818545775,0.0177003032451513,-0.000486783409395617,0.0109767427973037
0.0333432551692954,0.00822405230768626,-0.0157613753322827,0.00794910256038928
0.0986669175939292,0.013852450050457,-0.0303904948669991,0.0192286979105735
0.0992563841184661,0.00965701000081037,-0.032560923735329,0.0375944342421154
0.0462635108708509,-5.88623197263077e-05,-0.027435691972663,0.0444458320727756
-0.0083717677590245,0.011318275550255,-0.0158713558636908,0.0340181819451444
-0.0379688710806992,0.0379932651070456,0.00292513624382806,0.0174760629379945
-0.0515132547985935,0.0520275484689081,0.0173300923355374,0.00401755598758103
-0.0575799058880599,0.041475846514785,0.0196610478363758,-0.00565048761426329
-0.0561091067512162,0.017316340878865,0.0132276370488107,-0.013440852812526
-0.0585719006981618,-0.00041299710814199,0.00491778822768723,-0.0203055089519467
-0.0785909204992309,0.00859989446426168,-0.00224551977036861,-0.0256752881458382
-0.111880521240664,0.0528261722619943,-0.0094153774340151,-0.0278326890137188
-0.121506947086452,0.0967394318147024,-0.0118653022185359,-0.0252002189879157
-0.0784478088420298,0.0754403966350801,-0.00332622452334537,-0.0205464179726836
-0.0208470595669118,-0.0242284309128394,0.00683097426111376,-0.0171898003715215
0.00638792171549585,-0.113364083332196,0.00293876078051204,-0.0105413340154644
0.00559854066605501,-0.0969742621892762,-0.0143898301198142,0.00375359951708856
0.00419021857051321,-0.00310270131922095,-0.0317240710752385,0.0209681300534465
0.0146005915190304,0.062915877385034,-0.0392514157700946,0.0344178865686686
0.0162275261140578,0.0635457663850379,-0.0390908872739311,0.0396238297870764
4.39843335552775e-06,0.0472030984151885,-0.0357691154870375,0.0336390391993123
-0.0176185216798311,0.0418695851833701,-0.0304111152135054,0.0188698966206211
-0.0245932149537374,0.0381382183760534,-0.0256066036909414,0.00318729049656164
-0.0249817737539326,0.0255109243359522,-0.0201761458524685,-0.00508106123122076
-0.0322877781531897,-0.00795860313802461,-0.011099002052589,-0.0028337381365527
-0.0475395294046976,-0.0553597291702377,-0.00278681559863606,0.00437652151799644
-0.0451541696578189,-0.0836783902041881,-0.0020141017422008,0.00738835049652068
-0.0181546331429848,-0.0722827963024101,-0.00303250610159703,0.00200756802867709
-0.0048999086519357,-0.0432228330774248,0.00386145347288463,-0.00882262704736064
-0.0269603006559245,-0.0261506260652184,0.0147399884568258,-0.01882022924884
