-0.000968295961600977,0.010246125671521,-0.00471627164881707,0.000474197745553516
-0.0135026757163563,0.000995562170168357,-0.0018641021843787,0.000447070949190719
-0.0150859100260754,-0.0445818182898689,-0.000447990048046683,0.000150587234161861
-0.00651565551070312,-0.0923655749234588,-0.000818444326481971,-2.16790280701987e-06
0.0066943516905754,-0.104192838461972,-0.000163606387851113,0.000140663784606613
0.0292020380289567,-0.0951726899392367,0.00192760451706345,0.000224992035961143
0.0537164650224917,-0.0814812483898802,0.00207742744394026,7.07605654169009e-05
0.0632133922004054,-0.0722598780257999,0.00387777631845305,-0.000307234543576136
0.0627181860895583,-0.0998801721806724,0.00982700426519419,-0.000834383531429923
0.0673947971174691,-0.134140455991534,0.0112477725562788,-0.000985653311016585
0.0694158141390971,-0.0954784302733578,0.00510381270857017,-0.000663145622310818
0.0436610374432513,-0.00440684178406101,-1.19910009745202e-05,-0.000521738229042455
-0.00550528291886108,0.0563279686242145,0.00209960522817063,-0.000639676337075005
-0.0498303370843412,0.0638022826994969,0.00419362226835628,-0.000627535495798217
-0.0825263500078827,0.0379806168663542,-0.00141887494160966,-0.000486675389415188
-0.0921718618431955,0.000829403995024222,-0.00852831415953543,-0.000296448963436927
-0.062425880093404,-0.0212348863156585,-0.0102056533621739,-6.7056228616976e-05
-0.024681910645924,-0.0220693506887075,-0.00826907566778832,-0.000121218009457466
-0.010459360683889,-0.0209770697924667,-0.00693218433494937,-0.000573407393378299
-0.0121410745525626,-0.0262923606210085,-0.00628220980452206,-0.00121931953438107
-0.00930046210445707,-0.0308552781178244,-0.00510914055332304,-0.00191625690633918
0.0153473654499381,-0.034277813658829,-0.00397366177074652,-0.00235298613978067
0.052796230042125,-0.0434857960087374,-0.00159374905377486,-0.00251390524646665
0.0733628011836139,-0.0406638820215088,0.00304493423729086,-0.0029134255912815
0.0602114735410591,-0.00289736657512575,0.00852680288684932,-0.00328467111588516
0.0343850507942162,0.0462921297350498,0.014102060840831,-0.00257794342231309
0.0227067880439573,0.0695175645152291,0.0156974799644233,-0.000775686161566207
0.0204319870626604,0.0610250030216481,0.00936763779061372,0.00101232805454528
0.0166246564732365,0.0370856814047737,0.000703129704573445,0.00193042161804366
0.00964210856111793,0.0105771172708857,-0.000465196258098124,0.00195666671928818
-0.0022782014978246,-0.016247541996746,0.0071016736424244,0.00172284493608061
-0.014631410392724,-0.0416526549960394,0.0125422447991015,0.00180471050289175
-0.0192997025495909,-0.0634348825546838,0.00700513254819336,0.00199811399306136
-0.0177324376821483,-0.0778170597367783,-0.00303707948963093,0.00155056383530806
-0.00136761712046018,-0.0808400345874347,-0.00533890762665348,0.000443514715136338
0.0342998680593947,-0.0732467737039648,-0.00127051646360702,-0.000502075718463912
0.0575049542755641,-0.0591428698936608,-0.000389803731318044,-0.000955259384946033
0.0514488581310758,-0.041936355454794,-0.00262379822076616,-0.00111606555592242
0.0348547783870454,-0.0218844406522636,-0.00310525393601331,-0.00117677922489534
0.0194878346975684,0.00551816318882662,-0.000467893615177025,-0.0012190628495759
0.00531890826174285,0.03636139802308,0.00535533879379919,-0.00106268650481651
-0.00922704475028348,0.0498612930137897,0.011527108756106,-0.000490130701086227
-0.0302587412679923,0.0369081375706441,0.0144059680495319,0.000472907865116532
-0.0682705532870563,0.0103724266189541,0.01245935092717,0.00138424843134938
-0.104240791963288,-0.0104903337521421,0.0081746969269206,0.00158484103212403
-0.0951875998617045,-0.0142590649788004,0.00739545135942271,0.00109190696817152
-0.0495058343650304,-0.00821014782867253,0.00959249554377553,0.000381455990261085
-0.00956410964680819,-0.00465625258785681,0.0103942768820888,-0.000328947107323346
0.0137779467268609,-0.000602109131819191,0.00708420282381769,-0.000775171631851708
0.0274545838396945,0.0144867162745098,-3.83705801182592e-05,-0.000708938107219576
0.0318251403314732,0.0325360112662948,-0.00604840319254799,-0.000267728337043396
0.0280232272981481,0.0381620981646379,-0.00770181456634039,0.000181950891373396
0.0238399306245309,0.0340969040857653,-0.00614816026777123,0.000394145271999018
0.0217521674825623,0.0284847793315456,-0.00393328328947144,0.00045456565421353
0.0170266536819437,0.0261087402390463,-0.00260234563619278,0.00050825530661615
0.00773977493854514,0.0277185996609194,-0.00234394368080665,0.000545712264573773
-0.000629136241545571,0.0264712439607466,-0.000370375792337587,0.000547465951329732
-0.00188912657900881,0.0137524452604966,0.00595691124076845,0.000602582452427338
0.000192699008183216,-0.00726016442753844,0.0105573347562192,0.000870168434829876
-0.00182598749731069,-0.0202562709664528,0.00643861061071562,0.0010558952277586
-0.00900823088845725,-0.0150311557793056,0.00019575601672113,0.000654975430803352
-0.0157614509249261,0.00533660838209459,0.00045411278782423,-2.33050563501766e-05
-0.0191355813295734,0.0250663422642467,0.00406836177211575,-0.000266317454098555
-0.0205121678949739,0.028264081118896,0.00639376225915051,-1.59218699580081e-05
-0.0201200888336201,0.0162247334126608,0.00680782297544444,0.000205305723308423
-0.0225952784754843,0.001047476610079,0.00235788643257116,5.33933639531573e-05
-0.0293576462026746,-0.00547962020003186,-0.00972834486507867,-0.000249985363210769
-0.0305197330318224,0.00062767556827573,-0.0231584978179026,-0.000289359207490907
-0.0238578194075444,0.0166409430248649,-0.0283996580428724,-0.000133669921167894
-0.0225622736168427,0.043511166273976,-0.0257459922852334,-0.000290289524898303
-0.0345660257660101,0.0706634515102619,-0.0231040771109285,-0.000865205620665397
-0.048748088321985,0.080865959395272,-0.0229643918508907,-0.00129595177869473
-0.0469630870152688,0.0846004586196836,-0.0203477941935207,-0.00116889246800001
-0.0311076308728668,0.102230733976864,-0.0109765114515785,-0.000662152114839792
-0.0145684857630845,0.131531994791052,0.00465184273559466,2.53413925796844e-06
-0.00303782941139853,0.147226869544478,0.0191627982869415,0.000648834876789117
-0.00657204986946544,0.121512878186674,0.0251045999338888,0.00114424145605021
-0.0176471835197226,0.0428114397265441,0.0218619944655677,0.00154321741675741
-0.0101195860336081,-0.0739033657243528,0.0154232189366187,0.0016450871953456
0.0113833694104778,-0.182691461415429,0.0138569079288304,0.00117388534534404
0.0252418993855247,-0.208037639433996,0.0151449720819686,0.000352236378366024
0.0243080522681262,-0.121995058668473,0.0115672393824414,-0.000206629870456804
0.0100654155169123,-0.0143448364202483,0.0028452544006606,-0.000399534390438711
-0.0107945748723641,0.0373620979042326,-0.00720099090745715,-0.000790956708937942
-0.0275959084799404,0.0528914724895414,-0.0138511212480836,-0.00153854232148672
-0.0244807560971699,0.0605794381977855,-0.0159570457891267,-0.00225472509817395
-0.00187548075627812,0.0577406178693457,-0.0162301118505554,-0.00242696071428998
0.0132199086291994,0.0462922048472231,-0.0133711745050322,-0.001801923858
0.00851972128361086,0.0376569491426887,-0.00880068852720805,-0.000612762927273525
0.00119158511942605,0.0341063527853883,-0.00743511598246921,0.000812314070186323
0.00194197673211012,0.0333028414323168,-0.00859524773572146,0.00195100225901434
0.00531780541788017,0.0297022006003678,-0.00885303686327181,0.00214968048861967
0.00475723808984486,0.02064029235076,-0.00674048035300301,0.00156692888562056
-0.00274445814940413,0.0074664374963743,-0.00258874818165769,0.000949791302788703
-0.0161498284013747,-0.0121563201226502,0.00389895977160133,0.000719270958941777
-0.0302754868043635,-0.0269677500387876,0.0103014634400973,0.00120168904884388
-0.034307489099148,-0.0172773348484488,0.0114924681045412,0.00229266678644935
-0.0241916801438425,0.0163457504147385,0.00720834709869794,0.00300779901921799
-0.00933036470575788,0.0564855401436462,0.0013095403743631,0.00259275442942533
0.00182042615698615,0.0811072358384605,-0.00301124914846996,0.00131277734796145
0.00977738067585098,0.0851115699141375,-0.00716127131475231,-0.000293933773521792
0.0117770272437848,0.097792335818739,-0.0128156707115421,-0.0019349140382059
-0.00155036338052566,0.135968470876312,-0.0179818284901097,-0.00301641126750842
-0.0235831362217095,0.173933404484922,-0.0217461125852921,-0.0030231332425519
-0.0395547799862792,0.191289628101702,-0.0240252203731223,-0.00208313882979421
-0.0439330160537873,0.18547402940615,-0.0245507712945612,-0.000801598564345708
-0.037845625568484,0.146518226204912,-0.0225778656558285,8.53684155124133e-05
-0.0293839443664866,0.0530196696773675,-0.0161229810057506,0.000299050823634876
-0.0160297201696353,-0.0991480301411277,-0.0056574643873923,0.000389177611633793
0.00730045204970284,-0.24355780240907,0.00510346593021021,0.00117030039015969
0.0398703691703455,-0.288501113164638,0.0149433502202886,0.00228837628019125
0.0755563515365151,-0.210416920050018,0.0247805409360906,0.00289801129789483
0.0843148946407058,-0.0800240311590377,0.0306008932455215,0.00329524026031698
0.0492903306678406,-0.0118078124692789,0.0264755293672956,0.00390742664845854
-0.00462287700897587,-0.0360354826470463,0.0138049394850241,0.00426643815957738
-0.0423650583349956,-0.0667234245276462,0.00133695381427104,0.00395317412489465
-0.0477622881386701,-0.0288520889375924,-0.00647323367421986,0.00300702038950932
-0.0359535087806487,0.052448041421217,-0.0121013808328558,0.00138336202660736
-0.0319684861503319,0.109456603000097,-0.0161983228758064,-0.000778963019498803
-0.0360852101189145,0.116017284399919,-0.0183756679831561,-0.00261909211346171
-0.0316635949526225,0.0865497588515566,-0.0183472201634844,-0.00345765839206714
-0.016979972828219,0.0335411050893912,-0.0150826347538033,-0.00368476053089458
-0.0043215280532412,-0.0258423626954652,-0.010771560491716,-0.00387232618572857
-0.000686086386651017,-0.0604322825520918,-0.00837081749029065,-0.00400954303220988
-0.00525700862638728,-0.0661715903685332,-0.0067091221508467,-0.00355520691589149
-0.0100136774455675,-0.0567903558076042,-0.00469494346952206,-0.00214213470574412
-0.00800936382976892,-0.0384691043853544,-0.00220432514039752,-0.000291762290632794
-0.00349118135559363,-0.0282357884909776,0.00183253799269556,0.00133392372121962
-0.000214653342697725,-0.0398900275818891,0.00492306500430583,0.00249607983065247
0.00550365902907723,-0.0551944820156861,0.00499569530069702,0.002879000755406
0.0144966644244716,-0.05199932866764,0.00476811592781272,0.00250122880092972
0.0221346891376041,-0.0392419250051913,0.00438269648739033,0.00222349907238017
0.0280908715337106,-0.0294324897964846,0.00155918404403,0.0024720720737153
0.0323083444739565,-0.0193511957453644,-0.00327121549125734,0.00288434157841265
0.0309720555580142,-0.0232901527940701,-0.00655278689793022,0.00320863431464414
0.0274485519226167,-0.0676322742667217,-0.00548243400263689,0.00344155302933601
0.024877631098964,-0.130344970978034,-0.00377135907854802,0.00365484709873521
0.0213082608004823,-0.146586029010996,-0.00612666287498195,0.00338185617482411
0.0192253090089694,-0.107832816482027,-0.0101810329698788,0.00172863370150807
0.0208143951939466,-0.069166179992839,-0.00998635177443261,-0.00155194621855644
0.0229140719405597,-0.0525355633049808,-0.00182261100331664,-0.00543708502440123
0.0213822086249451,-0.0383057011840667,0.0129672644694118,-0.00802213696404712
0.0125484054782629,-0.020790027729636,0.0253863391656458,-0.00810787322925337
0.000403294930688906,-0.0160627115522679,0.0284966204529957,-0.00611803141096108
-0.00564799794486372,-0.0302615040496354,0.0252174549519764,-0.00316669042659937
-0.0083598684068907,-0.0460787467600305,0.0176016934405849,-0.000101620930925542
-0.0175108869849056,-0.0445522192311306,0.00817661374456445,0.00234500846125881
-0.0316833330396651,-0.0295351438333324,0.00303796885894174,0.00356077635561063
-0.0382773804934324,-0.0165622509646175,0.00218145181178713,0.0034615894557755
-0.0253512100225287,-0.0107283215045941,0.00201689177018566,0.00223324322942778
0.00424573097300399,-0.0146505678852541,0.001219062334205,0.00037231847073091
0.0335604170946092,-0.0307046417000577,-0.000553245327861237,-0.00101324253035168
0.0480238094283379,-0.0310798490195466,-0.00150681700021803,-0.00138989026496208
0.0406430410288159,0.0129886067094311,0.000282356329060617,-0.00109278641734174
0.0212550113218419,0.0629698380892651,0.00170303584537609,-9.2172828193489e-05
0.00894781543157717,0.0751698423801197,-0.00205535125007808,0.0012781021248055
0.00193522030089432,0.0812328987394703,-0.0113344421835954,0.00170489031319733
-0.00777562698392287,0.110564909989258,-0.0220369951208185,0.000404404348155911
-0.0176220714901979,0.12869766793727,-0.02927427189913,-0.00186666516963136
-0.025450623252027,0.106594436753424,-0.0282045880976057,-0.00379368072550956
-0.02854181928923,0.0617819884354732,-0.0180312328226108,-0.00444576224139953
-0.0292503213560271,0.0265386743939009,-0.00602536935292589,-0.00341723944094381
-0.0284052917385313,0.0056682632357779,0.00215592085078321,-0.00141253440312552
-0.0133658053694557,-0.00485576621434906,0.00877135845931766,0.000469983738346595
0.0169663598790015,0.00140478191727467,0.0147810098127005,0.00174359777483847
0.0423251174694934,-0.00620111855833692,0.0207333802224592,0.00209718157572712
0.0492362174676252,-0.0521005504996897,0.0271191632897751,0.00153217180748505
0.0415976451210501,-0.102645298206776,0.0292614207010392,0.000775437257472659
0.0271489209445399,-0.109312881502609,0.0255805028064625,0.000389137717262627
0.0114873037326403,-0.0613694259886513,0.0184413541024669,0.000305759321161921
-0.00119468902646463,-0.000833618875694858,0.0107334498399,0.000227934601151301
-0.00953002458539001,0.0357056150908013,0.00454664535341284,-0.000330401840487683
-0.0149917704526734,0.0487448698144325,0.00160175331949269,-0.00157116651089177
-0.0191634488826875,0.0579000647802109,0.00557068024081749,-0.0030505924592857
-0.0192806705950216,0.0709626550896924,0.0149045734150326,-0.00378188792750452
-0.0156407058027045,0.067092407493441,0.0187380552471473,-0.00305266796088692
-0.0188938834500239,0.0372898492822657,0.0127452226483228,-0.00152707235234369
-0.0292120987873222,0.00192673170466072,0.00554914210619059,-0.000151276328784736
-0.0305400586991168,-0.0203329970061484,-0.00221492629347328,0.000832252986541174
-0.0170740349664576,-0.0258254540685002,-0.011651302586831,0.00104779350725835
0.0033884217010668,-0.0207163259583438,-0.0125911284749257,0.000339081917063346
0.022627171647937,-0.0152036178764975,-0.0057384163674876,-0.000489510412179054
0.0337149344493263,-0.0132638946287645,-0.00148039816200077,-0.000711702273395308
0.0345225645022452,-0.0115871027782347,-0.00354507998310326,-0.000539680314142082
0.0291733519418754,-0.00439715884489946,-0.010641983460528,-0.000325583843511093
0.0211730450281228,0.00757390750236584,-0.014583174680651,2.28125792141687e-05
0.0113712212133084,0.0122278259128855,-0.00725158429834419,0.000777203749813606
0.00560911338691215,0.00233188515716049,0.00754813297284844,0.00185356759331658
0.00719612248086885,-0.0123107065309777,0.0183994039832899,0.00257704817255745
-0.000629646635696283,-0.0205145793371354,0.0202597607473618,0.00260550767152627
-0.0245520208777602,-0.0216341827419201,0.0184260836387948,0.00225265872160065
-0.038864818307886,-0.019985754039961,0.0160147081501837,0.00174409324261284
-0.0312179337709731,-0.0184800577417982,0.0109797520600412,0.00100087012297619
-0.0172327543682988,-0.0121180618066168,0.00421891131367671,-3.86719475068561e-05
-0.00716848340364096,0.00229681576569678,-0.00133567091205871,-0.00105548934592878
-0.000429843752767604,0.0140010767193346,-0.00534135385059265,-0.0016245995630365
0.00346699745137212,0.0131151784812697,-0.0092188352506505,-0.00186988318612065
0.00168492639988724,0.00723647314597894,-0.013072593058221,-0.00217215272806222
-0.0043287738717162,0.0103072273780328,-0.0150726732653849,-0.00252399579699268
-0.00024394916639537,0.0175976008071136,-0.0142191933879904,-0.00270965864460927
0.0225421248977966,0.0155439020984462,-0.0125572492102762,-0.0027704416066772
0.0521648248500979,0.00316346962029387,-0.0103095400341523,-0.00269573087523206
0.0661607190976696,-0.00668200531062631,-0.00880026736656895,-0.00211090352752646
0.0482521773351621,-0.00335634480369187,-0.0110167344410086,-0.00103822231202836
0.00947938437561738,-0.00112557129270834,-0.0113739603074779,0.000361422457869357
-0.0187388338951253,-0.00534489856955888,-0.00603153426298456,0.0023436450208584
-0.0249995003339141,0.0211949153712893,-0.00259575047360648,0.00466061513901623
-0.0275023780336962,0.0918583473104426,-0.00635749357599548,0.00630914072023336
-0.0374280638475548,0.157828478888072,-0.0135467232861281,0.00645911809949098
-0.0442375762586035,0.181839189508944,-0.0179161078824991,0.00497338673478474
-0.0405254300497409,0.171214137530859,-0.0179666241848229,0.00231489673935303
-0.0302836882804617,0.141419206223927,-0.0178349925245258,-0.000571146958771083
-0.0148982342340599,0.0857966179795758,-0.0174766028628995,-0.0028390187316404
0.00197452194437295,-0.0210728210630145,-0.0111777480414967,-0.00430050078296109
0.0169968197044924,-0.170904036906788,0.00219734585807554,-0.00490232607087079
0.0337806431826598,-0.271240455047125,0.0131269277371032,-0.00443914516924158
0.0463591728548895,-0.232462829495862,0.0130948918277459,-0.00322010200100112
0.0474154463041514,-0.104394045075049,0.00724561315436093,-0.00202474195356158
0.0387595304403213,-0.00222310697972056,0.00122044760636176,-0.00141907949190741
0.014873479723572,0.0376958760734158,-0.00599078462771927,-0.00120780202097163
-0.012345674302722,0.0390169610496287,-0.0109799148433655,-0.000500521958047334
-0.00846684804954744,0.0299709095671493,-0.00995813046148496,0.00108816682962663
0.00779113530356508,0.0427052071173423,-0.00741534476850895,0.00293844618324901
-0.00468798538630282,0.0726962384922586,-0.00670838903343592,0.00418991975322956
-0.0290287514809528,0.0778230132653393,-0.00597349138066212,0.0041294574354391
-0.039248380750941,0.0521506874337883,-0.00389240845616301,0.00247362382095825
-0.0309563248814514,0.0213612667365475,-0.000335363001984204,0.000218107274646149
-0.00931671294773789,-0.00187631905638809,0.00271216779869291,-0.000878295525470254
0.00398214602793082,-0.013696402278416,0.000646998070430739,-0.000550090481873034
-0.000791778820894706,-0.0157657175157584,-0.00763045160973065,-0.000217499343382612
-0.00592083328772965,-0.0233972648348949,-0.0131905341132675,-0.000862604408784366
-0.000809888475300936,-0.0397178548406976,-0.0112879089292387,-0.00179421113874724
0.00879008100792221,-0.0409673412757038,-0.00746756019350123,-0.00189803236491497
0.0184868398439102,-0.018383564741289,-0.00278823558394905,-0.00140826179502998
0.0208426044146851,0.0083877899606854,0.0030932697890216,-0.000942680297403105
0.00938296165746506,0.0271518378197696,0.00576910352213849,-0.000325235893476861
-0.0126584984921772,0.0383907288066467,0.00285108066518311,0.000418881405047937
-0.0339312107023184,0.0442127742507297,-0.00207111122534539,0.000578441585921407
-0.0423940393451825,0.0485066783972437,-0.00514929949245453,-7.96204920322854e-05
-0.0369325418600435,0.0433944000935877,-0.00364287097305463,-0.00105536775102807
-0.019979194118965,0.010016557970445,0.00564762667708087,-0.00182969532547911
0.00197815717625156,-0.0498629840334393,0.0191635925103338,-0.00192687801435655
0.0215245121568192,-0.113621947326834,0.0265908884880017,-0.00113420148984572
0.0487320209675366,-0.169887746525377,0.0251943097357866,0.000143265363267643
0.0786701475102853,-0.19514292288704,0.0229334684095575,0.00127268947341767
0.0710123631996292,-0.143931272488058,0.0164471708705895,0.00224006566545175
0.0173842743482212,-0.0434077267709733,-0.000136113047030244,0.00308955346950056
-0.0404822288810956,0.0225333678876691,-0.0128003337935625,0.00320101318975626
-0.0681091910729857,0.0312970449612525,-0.0130590897699073,0.0024616487011292
-0.0612789653063402,0.0201929395564563,-0.00893837382964629,0.00138423309966566
-0.0396377268152562,0.0315357921781147,-0.00530683815765655,0.000162349660879714
-0.0241443168954395,0.0611682793494557,-0.00249384622477391,-0.000904245259255737
-0.0194493029913101,0.0699983956136063,-0.00272030518934351,-0.00128452256927348
-0.0175339300391945,0.0600834188395345,-0.00600989092608848,-0.0011385831235544
-0.012969824897618,0.0610010923250118,-0.00794457008043522,-0.00114435800371839
-0.00849584508771636,0.0704644067441759,-0.0085181158567826,-0.00152024220818529
-0.00206604572130982,0.0714860846274985,-0.0100527417880939,-0.00211027555327216
0.0066679436666224,0.0620195485948335,-0.0123024591936661,-0.00268142279545627
0.0121939282445487,0.0443686844532084,-0.0152407380541658,-0.00293547845436409
0.0186204986297213,0.0199289456402878,-0.0138144837875077,-0.00264367560871466
0.0277778321553747,-0.00299945468847068,-0.00632401833077557,-0.00171654374753564
0.0332499730142796,-0.0148621210039272,-0.00213166046864535,-0.000403698670238877
0.0340873001982223,-0.0259023865439161,-0.00531825497067959,0.000942746091576687
0.0271965265367806,-0.0459453935618025,-0.0111832158006515,0.00200765885564032
0.0148249035746683,-0.0562811096210001,-0.0154496249492643,0.0025590065137111
0.00881740836822836,-0.0493565671486102,-0.0125835983873315,0.0026588490521135
0.00843019447097952,-0.0376554583205969,-0.000580107964039855,0.00252225839725586
0.00579307881778371,-0.0270362170830728,0.0132099067670884,0.00261536198549575
0.00809979845098594,-0.0419329667496614,0.0205085368123621,0.00289006648002216
0.0195389169207588,-0.0980650896937387,0.019122874758731,0.00268346349726508
0.018605129690616,-0.121823768653796,0.0117353036172579,0.00192762094130836
-0.00445316396218504,-0.0445818366630342,0.00668062626864293,0.0010819895151643
-0.0220814687595601,0.0600158084307008,0.0092265613468334,0.000526119983332147
-0.0161028674607546,0.0908599807979141,0.0106473597370127,0.000238219963783554
-0.00131992153446514,0.0550609658501099,0.00442891721756189,-0.000213287900090839
0.00497338034579345,0.00170351698963016,-0.00294750624505334,-0.0010519489552107
-0.000175658473099534,-0.048060703501586,-0.00540709476050189,-0.00165883074650923
-0.00842611678414724,-0.0740870845040522,-0.00586309831212747,-0.00138088566981702
-0.00977063716313084,-0.0590519506833263,-0.00746701072314698,-0.000635045180977155
-0.00435894837168793,-0.0154787399653097,-0.00600988196418008,-0.000122365105348517
0.00158418992889879,0.0289193740513922,-0.000826716536888665,-9.81141176059946e-05
0.00811329105858649,0.0514714139514954,0.00409096770786516,-0.000466999586298894
0.0172576571609753,0.0454780938476913,0.00713163532212759,-0.000794996476721768
0.0231317701574758,0.0202446600268626,0.00691950907980584,-0.000690910817311575
0.0213557185274593,-0.00506849833140512,0.00456143937988492,-5.3708521335614e-05
0.0181495781748545,-0.0142920948790778,0.00156145679777139,0.00078626563520898
0.0194610956709795,-0.01607911965828,0.00140342131270813,0.00143012023909974
0.0219299012435733,-0.0291718680548438,0.00680012470336874,0.0017017554179042
0.0180411028432383,-0.0472759801359727,0.0109347055929173,0.00172531961655827
0.00788356159619751,-0.0477365498053496,0.0100449180693912,0.00182668439097409
0.00119406325153533,-0.0316477924763632,0.00854951127098398,0.00198740945668489
0.00104888154185079,-0.017314815902207,0.00817461439373621,0.00207349866673585
-0.00347867338861912,-0.00674686334161505,0.00668842656437464,0.00186035639070621
-0.0205785797770708,0.00467264118820434,0.00273032039430843,0.0013459537367591
-0.0397885677618251,0.0162610052102561,-0.00281121386291689,0.000876076098306435
-0.0411089363089679,0.0235376724539846,-0.00444898230597901,0.00037849022490773
-0.0247440425327809,0.0195640632989289,0.000644236933014337,-0.000104522331246404
-0.00989485300687318,0.00449919893358778,0.00646570648288793,-0.000231990989806718
-0.00409718189459882,-0.011953924290597,0.0104513988463391,1.47773967577061e-05
-0.00417835813130891,-0.0139836677334724,0.0128251422224999,0.000351356173403187
-0.00505194071907865,-0.00395266280347846,0.0127275566801855,0.000257688879872112
0.00108881286035535,-0.00413333754019759,0.0138156933157402,-0.000402291846116226
0.00977027710270795,-0.0133862709844058,0.016467575208214,-0.0011197326440295
0.00862684049999304,-0.0143124683795575,0.0128823279237127,-0.00144070870774125
7.13558514720825e-05,-0.00414648513193795,0.00292523485387399,-0.00125984376135778
-0.00361813172375725,0.0133965434192378,-0.000808610312542013,-0.000824414670284317
0.00248888507365386,0.0303732991321062,0.00607623052701823,-0.000376558540600373
0.0112136156284562,0.0345281822039062,0.0119290345948341,0.000185973005053162
0.0146051656217817,0.0302355232681831,0.00807902332278125,0.000628468215962208
0.0140491456705529,0.0319259752552974,0.000100637719805053,0.000541217959777733
0.0103971911828481,0.0352235036015794,-0.00376239227583967,0.00013146438962236
0.00150981668180135,0.0265242520802367,-0.00442356832144224,-0.000226015381844595
-0.00985104708689638,0.00698118513230586,-0.00648302724350541,-0.00047693659115999
-0.0161696470671015,-0.0111533239800672,-0.00950803229985772,-0.000529633326450141
-0.0141337501766327,-0.0208326122980435,-0.010033267736226,-0.000182281062642506
-0.0103612222231599,-0.0249868800084199,-0.00706211064508833,0.000561145914047763
-0.00906775807024516,-0.0257392449162099,-0.00415878092560787,0.00159452949484183
-0.00781749834977122,-0.0169101806362156,-0.00520171672255043,0.00261512255323192
-0.00709255448661933,0.00593047757250798,-0.00807504214535327,0.00289955766850891
-0.00757263290590931,0.0407858156447107,-0.00954363095550007,0.0018849989865106
-0.00594380751264986,0.0759281635611661,-0.00897894999823419,-0.000159045677716687
-0.00119166172064056,0.0951169803790294,-0.00472112861426554,-0.00219614635037752
0.00392220870055208,0.0955156191090495,0.00119837194842639,-0.00324809679451143
0.00372385084926798,0.08318684797425,0.00362100361755659,-0.00330187148476712
-0.00144919872621052,0.059590837071048,0.0022106988298617,-0.00286490776277139
-0.00243808420347297,0.0255387970763026,0.000497861369426306,-0.00214443540693877
0.000318538192572746,-0.0180097661133803,0.00100193583740997,-0.00114280498382794
0.00411305554888185,-0.0557349439591514,0.00345035212295357,0.000266899102482569
0.0120185443819871,-0.044838864492183,0.00555852271938457,0.00191912812513913
0.016035258248337,0.00392849738250184,0.00665393378014663,0.00316715578903511
0.00802969884979026,0.027412451815347,0.00588174527799241,0.00377055263720671
-0.000466065323249856,0.0289837274991206,0.00273419695791871,0.00378636914330928
-0.00121810372634307,0.0456903631078231,-0.000537225691723551,0.00313346922631019
-0.00437431061206578,0.0721575659149365,-0.00381803141086712,0.0019478440575467
-0.0118678620981337,0.084469446024079,-0.00740291942873988,0.000446022247962787
-0.0121580260654321,0.0532328301902472,-0.00780759402137258,-0.00131209503324025
-0.00257836885046083,-0.0454668235492506,-0.00166457324711416,-0.00280833868078402
0.00690553454444268,-0.162202190564504,0.00736483300436554,-0.00326919384526823
0.0104966293967315,-0.187694308053893,0.0115624610613153,-0.00287492548782399
0.0115443323286156,-0.101409793447427,0.0102125985816138,-0.00249548950377847
0.0128442197611998,0.00429758570556499,0.00739333899393298,-0.00238882497554424
0.0122191681233489,0.0548139744242754,0.00520422919283147,-0.00207225290027432
0.00908374831168121,0.0554571550795004,0.00327640762855073,-0.0011401932057154
0.00797993034660796,0.0443736537914157,0.00134909834172587,0.000135850310129194
0.0101751831546287,0.0384892884814421,0.00127644515495518,0.00104029657530488
0.0143705046581915,0.0357422068285058,0.00220682150768343,0.00133176033921336
0.018591865111079,0.0346321384147786,0.00117928965632043,0.00130799760809951
0.0170028185047681,0.0354023856269857,-0.00206606244181295,0.00116037430717326
0.00718287315801493,0.0359528456254626,-0.00384003447556833,0.000883138836597472
-0.00611107133609098,0.0322555746774637,-0.00333955470349352,0.000564171121997536
-0.0150997689169115,0.0218616555770055,-0.00237900482354756,0.000305158206600152
-0.018525310438559,0.00919263386534219,0.000946547096053474,0.000174417106271998
-0.0254735627575538,-0.000517300149963786,0.00603081375708065,0.000223231139223245
-0.0299596049187166,-0.0153688458579841,0.00900316334592527,0.000496493367669262
-0.0159357061997647,-0.0445746438675173,0.00866776623769335,0.000868361887427668
0.00739047061530823,-0.0753095939783355,0.00601575993621048,0.000905856491663479
0.0233285097142964,-0.0817235098680717,0.00104351217907053,0.000440434181154482
0.0280483073562936,-0.0574623140403488,-0.00667519481021297,-0.000530034688729157
0.0248196503012765,-0.0300096747650854,-0.0135105861341263,-0.00195969722729726
0.0169950328518806,-0.0249420785388105,-0.0143321531366934,-0.00350942158142852
0.00145283800141522,-0.0346353488751245,-0.0110587256822523,-0.00466374353682023
-0.0156674016891366,-0.0371456991418264,-0.011074060693832,-0.00480469420955476
-0.0173552457287436,-0.0237297221050674,-0.0166820074140509,-0.00379039126335652
-0.00432890069173998,0.0024232259032294,-0.022653731225453,-0.0021937188526197
0.00689203825781424,0.0221006973245143,-0.0225007931969011,-0.000837366641783482
0.0242057190316495,-0.00248396084412628,-0.0143398388743426,-0.000202299524862579
0.0536232549489292,-0.0665856919108881,-0.00229200391937264,3.15414680779036e-05
0.0615054830552307,-0.106618098695638,0.00927681071398404,0.000429278766856451
0.0307223586553748,-0.0619651438029191,0.0169280343359135,0.0013423005935774
-0.00852060789024792,0.0545787942121172,0.0175987470733271,0.002687601855819
-0.0203817430609403,0.145444381699108,0.0130115940316666,0.0038462366481495
-0.0115594468078808,0.152891682165037,0.00622380249773921,0.00420719633284312
-0.0108847021152385,0.114760186367339,-0.00135485557071507,0.0033600111816885
-0.0199389763983046,0.0809112390869493,-0.00785981320256288,0.0015553341429328
-0.0314721130008045,0.0535120162113237,-0.0128810820651101,-0.00027787514833769
-0.0408529332519388,0.0124992233854145,-0.0177043857629073,-0.00147174738322645
-0.0374462542895185,-0.00946787396778141,-0.0231565099408103,-0.00217448411260457
-0.0213581846435952,0.0244121937917454,-0.0241861439703663,-0.00282716808405996
0.00204743683990554,0.0652118720776554,-0.0150115849952241,-0.00351911260374597
0.0286385834931485,0.0452624882408047,-0.00157084776305776,-0.0040294054525206
0.049799120750609,-0.0382463864244076,0.00673604395459771,-0.00373393424830971
0.0605137936278954,-0.114770377112152,0.00763140356087364,-0.00232999325334131
0.05676556573454,-0.115170308276874,-0.000809447476954099,-0.000707310000821307
0.0380163887959006,-0.0681714633230251,-0.01768962769354,0.000185896962155966
0.0154500973827424,-0.0318947638570564,-0.0315342346816183,0.000497819914638942
-0.00187990730278304,-0.013248212351996,-0.0321838461407837,0.000802898479727169
-0.0154692395528998,0.00260091217812188,-0.022820881625381,0.00142319983598147
-0.0220228521747396,0.028341093389192,-0.0131257580529959,0.00222499425206785
-0.0141277663882468,0.0523885993932158,-0.00548385526650839,0.00255272000270531
-0.00316527403893329,0.0583650517595139,0.00147969431058696,0.00209582360789952
-0.00428930679467035,0.055908385934158,0.00510179186003981,0.00126514213889388
-0.00924500922942711,0.0568744894841736,0.00540509282641224,0.00060938065242254
-0.00459090598620042,0.0646104745613355,0.00563075960215821,0.00038768592690374
0.0102441817253187,0.075653622933033,0.00557191863779599,0.000286401215229606
0.0310070264793572,0.0769005656721994,0.0041008978225993,7.57672003906582e-05
0.0507619122297291,0.0470790980984455,0.00545297210639041,-1.84458497827556e-05
0.0552533013560528,-0.019926183883855,0.00980047849693816,0.000185512343468837
0.0361161803511407,-0.074769144490252,0.00803923272150959,0.000684739154928298
0.00287820261395436,-0.0622043453584333,-0.00151227333473483,0.000821883996942562
-0.0231964772167646,-0.00504694981221179,-0.00907619523089185,-8.82313437503785e-05
-0.0265468608058665,0.0363763079471987,-0.00859393353383413,-0.00119266468141081
-0.020684353165981,0.0507691505029293,-0.00343485106512061,-0.00134802041767104
-0.0278060902475975,0.066523772769763,0.0012275235550365,-0.000832045238601296
-0.0383711223658388,0.0841071216373493,0.00277109822130599,-0.000281124621593668
-0.0352519234615975,0.0724081947460975,0.00237876466800518,0.000230861383712042
-0.0232504702733484,0.0318833975354738,0.00116869611178179,0.000795187185642408
-0.0079395594440461,-0.00300633002450398,-0.00230356478758171,0.00100187326129671
0.0103345139795815,-0.0298029058319397,-0.002053769241884,0.000239096342390756
0.0236729800735153,-0.0891222227661536,0.00772013581529814,-0.00101667793822526
0.026069227691626,-0.175023250859129,0.0181592692095037,-0.00150236827043517
0.0218597611013999,-0.199789219227099,0.0200273932407614,-0.000746324799144639
0.0154451157683618,-0.139752627194765,0.0150506060900147,0.000591934142287473
0.00687151880400286,-0.0685387088251981,0.00902416973960868,0.00157046329897102
-0.00280675933992485,-0.020864949709455,0.00508030153825113,0.00183354915905196
-0.0148910891274784,0.0138144240824849,0.0034250639697873,0.00164808783633187
-0.0278007497564046,0.0369383966947998,0.00318631830820579,0.00108422905807094
-0.0316025271563152,0.0452077004427849,0.00132441786150986,2.29184389616286e-05
-0.0263016611186379,0.0410036922486947,-0.00215324424344619,-0.00111806456580627
-0.0212036401334402,0.0362268205117055,-0.00316644545226594,-0.00179865915076225
-0.0200332320335598,0.0398274347146371,-0.000483499555283418,-0.00198908645998021
-0.0227345546372055,0.0365344924176343,0.00490069021696121,-0.00170112946466989
-0.0273223303437046,0.0128178318710386,0.00883864882295768,-0.000956593349204454
-0.0248166580683577,-0.0118875441669841,0.00822831255395369,-0.00017746582031085
-0.0109420224605084,-0.0135587467224846,0.00582148669135524,4.21473250588995e-05
-0.00159476028822437,0.00659939486011443,0.00222177472273787,-0.000475198561308948
-0.00725268815746263,0.0206979567633926,-0.000607290842252551,-0.00117779348116558
-0.00910449189976428,-0.0052177341945498,-0.00074506370808753,-0.00149561816124736
0.0102021433518204,-0.077608931163064,0.00216730847565459,-0.00132044870327717
0.029827382870937,-0.144975737377116,0.0100171566906504,-0.000664215714250866
0.022281915241911,-0.138601028945618,0.0160748242277656,0.000608000777143075
-0.00130867789659821,-0.0728934414703649,0.0122629387735519,0.00213616904224208
-0.0200022280091951,-0.0150912407050259,0.00305167646493751,0.00277915643145281
-0.0315761274236527,0.0140506176913474,-0.00124683056311573,0.00208128858972381
-0.0345465234981161,0.0393553658744114,0.00275587735953015,0.00087669475996362
-0.0273564513903916,0.0845950378188564,0.00862400856215452,2.26174623645923e-05
-0.0115683885623299,0.137600363040227,0.00966886928037913,-0.000387071752296311
0.00857484246050209,0.157024245357407,0.00798186707809142,-0.000797995560171687
0.0211148033457135,0.127399547207509,0.00669756084176583,-0.0014791588622536
0.0242591532466757,0.0566236988505262,0.00785822004251583,-0.00199442172569433
0.0245734945820734,-0.0284817813866521,0.00899384272223458,-0.00191884253380154
0.0173945669660195,-0.0704600523125675,0.00347001242792284,-0.00142426506273961
-0.00639305077672034,-0.0747771986482069,-0.00426644116845274,-0.000912272759831678
-0.0383231872349417,-0.116106810970688,-0.00481069320591896,-0.000463568139186854
-0.0545092222665722,-0.17704085973854,0.000161156585575091,6.40767331983273e-05
-0.0477984432003788,-0.149141731261218,0.00128919683468542,0.000419525106027132
-0.031430060414312,-0.0228841659496617,-0.00350151238027852,0.000195332151486708
-0.0172345108285865,0.0984824734137379,-0.00883152494443856,-0.000555273447564232
0.00145109687784931,0.144499008633542,-0.0104642504484425,-0.00126150365769943
0.0341638867366108,0.132042782684321,-0.00765830324781043,-0.00151587898904951
0.062998903281002,0.104835584039555,-0.00189631878837751,-0.00123494432001453
0.0769693823042892,0.0647239608802732,0.00434245414917787,-0.000256911284397157
0.0858318580072638,0.00438296240230411,0.0104304068975052,0.001187480857798
0.0767463482995881,-0.0575307215591066,0.0164086501934106,0.00256461548307876
0.0391018979880049,-0.101662378888253,0.0186477254186045,0.0036609426739101
-0.00783344495085474,-0.122085586241701,0.0156059326363469,0.00444476410925406
-0.0430020413255921,-0.125208982512934,0.0102498855385665,0.00477345257392396
-0.055705338355696,-0.103692438143947,0.00545569493357867,0.00442516010146797
-0.0481284861796618,-0.0562271772314268,0.00246775035575004,0.00315506463791011
-0.0317791502350343,-0.00654374383769249,-0.000226830910962919,0.000940125248391503
-0.0146436472041386,0.0289352428109908,-0.00371427820047916,-0.00149473700243108
-6.37409085884229e-05,0.0451068526865383,-0.00536744862144359,-0.00333765664666052
0.0094420591385091,0.044423811373384,-0.0044371204025731,-0.00421327602398885
0.0139711384250358,0.0359233992403483,-0.00264141645418204,-0.00401808520918409
0.0170555404451067,0.0247133229582035,-0.00018983860816962,-0.00319521542698342
0.0203996113920259,0.00939619540570769,0.00232536561611331,-0.00216367602435022
0.0205927473493676,-0.00978498569291216,0.00469759419144036,-0.000935570507550997
0.015509628025333,-0.0265150251501848,0.00634312400881653,0.000408882976895067
0.00921297224933126,-0.0365542280376358,0.00624374204824103,0.00166799375401673
0.00430312760105421,-0.0459207951058685,0.00559707592343774,0.0025277812484999
-0.00258356273404548,-0.0551729760248483,0.00508883849209019,0.00275595328401976
-0.0116038875567533,-0.0556479542407163,0.00518725639114056,0.00259938671600762
-0.0164773147902817,-0.0522486881699625,0.00600893635390184,0.00242685033726387
-0.0130280304203493,-0.0568189767697504,0.00512859757781464,0.00239028906829362
-0.00513262149214062,-0.0619330443084233,0.00229431893587824,0.00250716254033762
-0.00150768782214976,-0.0496811910532043,0.0007634046024983,0.00257305112745531
-0.00609776783413766,-0.0244404612942066,-5.41889017819991e-06,0.00227253360996079
-0.0142637811995471,-0.0118036139687998,-0.00204748851854061,0.00146222835157535
-0.0169618880874232,-0.0219862180299936,-0.00265170737759986,0.00029259464885828
-0.00875711703049062,-0.0405265192235653,5.67059454682651e-05,-0.000969868342398049
0.00423154695107652,-0.0490859361810591,0.00401507571591473,-0.00223538130730566
0.00735690573233586,-0.0335887121655226,0.00560837072683661,-0.00329466744387586
-0.000877525206119369,-0.000412629247030857,0.00549064788069078,-0.00362822951861763
-0.00463216633395473,0.0153839101785859,0.00864587497476436,-0.00299490946661876
-0.000556220993733675,-0.00237571716645141,0.0122174449083266,-0.00158387282153605
0.00153596703377496,-0.0226001213768108,0.0105296263502096,0.000234213448221509
0.00286142346494613,-0.021444285951848,0.00547448398914372,0.00189295389908429
0.00923704710174528,-0.0122342429908489,0.000921691343806584,0.00263502054014373
0.013095641772616,-0.00357580580298755,-0.0011289663580684,0.00188027870678075
0.00338560113533655,0.00565534144590952,-0.00310851973495176,0.00010124937689095
-0.013354559301715,0.000806742922374055,-0.00668638939167793,-0.00133134017723995
-0.0226670704356552,-0.0240482325701046,-0.0066624502355789,-0.00160507901757231
-0.0218765104589625,-0.046343316797124,-0.00385584219776318,-0.000952632763095824
-0.0206732392643681,-0.0485509565728786,-0.00705802361471969,0.000157406916323425
-0.0265418163763119,-0.0392950437633549,-0.0146843935309319,0.00124441304896189
-0.0283593729629743,-0.0330568206508938,-0.0197624304805701,0.00162954082970237
-0.0145826503985407,-0.029725714114986,-0.0200719668159107,0.000930012409601996
0.00601762639780589,-0.0225118016489039,-0.0151605956113431,-0.000466836743360142
0.0230519505374099,-0.00804295125578781,-0.0101097919448908,-0.00161346648024376
0.0329533872468067,0.025155578221381,-0.00645098961638673,-0.00200789293478976
0.0203084902264184,0.0809808387989401,0.00164465402721721,-0.00183506266066126
-0.0133162302257158,0.124681753252482,0.0116322836856505,-0.00103943886326938
-0.0296411779613964,0.122205490814259,0.0154465954479377,0.000281621582805172
-0.0163340530333716,0.0936816709403133,0.0141462067677835,0.00119230860377052
0.000125390277048939,0.078858816498783,0.0142574600913144,0.00110401260960268
0.00507663636786297,0.0746031575395783,0.0144930849315211,0.000496037993028345
0.000573691580624999,0.0552731653596604,0.00863351562777348,-0.00018083167741665
-0.0134902630446496,0.0330985857707168,-0.00276586333728327,-0.000963749369472104
-0.0324397744238281,0.032477695558626,-0.0146030563070963,-0.00156701928747416
-0.0427510696193014,0.0382108707553905,-0.0220854016569516,-0.00168467803254522
-0.0354975927055167,0.0400939504082261,-0.0245185749933918,-0.00152892799222781
-0.0187139490942262,0.0581248461967847,-0.0249042376712968,-0.00137247163750963
-0.0093715413553259,0.0905730151961865,-0.0242266973729597,-0.00128128392359072
-0.0120524590271991,0.119209155290981,-0.0234457098289988,-0.00104783380648996
-0.0160613400235471,0.133910934729683,-0.0246929260192905,-0.000608124882885246
-0.0034321574747839,0.0889228328780121,-0.02217931243189,-0.000198837329869296
0.0368678844207575,-0.0469026860725374,-0.00436786952633763,0.000494726891814589
0.0827672080693445,-0.179964013361306,0.0220767534446236,0.00219681394818676
0.0837597711759542,-0.183399713954452,0.0356491161112387,0.00452480009619708
0.0298719394219518,-0.068798619936934,0.0309581724056408,0.00601949340843128
-0.026037343318101,0.0265455570391453,0.0206677062224498,0.00572222402366242
-0.043569642151975,0.0213703074853069,0.0157636168108943,0.0040194917551335
-0.0315063913719716,-0.018403668989945,0.0131901605929391,0.0018476900739776
-0.0191569927110057,-0.00964359847073417,0.00701805480877769,-0.000383044429850419
-0.0198079235078045,0.0348487733284204,0.000437141517684696,-0.00260801997984982
-0.0196947376287719,0.0668141837898115,-0.00366908699278243,-0.00455606643173706
-0.0103003231229654,0.0750673276071743,-0.00604748640100758,-0.00563647506044805
-0.00205631589058785,0.0761851382745081,-0.008212104079184,-0.00548599226324127
0.00178087876974481,0.0898315020155097,-0.0102564229479676,-0.00419976751428962
0.00571496744485394,0.118164193071114,-0.0110617855165514,-0.00224817589516133
0.00775941657725644,0.138480140348393,-0.00958602798060595,-0.00036334321672799
0.00823727931397663,0.131545426059766,-0.00550629072739559,0.00124522321654568
0.012929000904383,0.103518695624641,-0.00169202971134465,0.00279756332284816
0.0196873308121945,0.0744081982988867,0.000300170042820296,0.00400751506446288
0.0183283977762957,0.0536216460578641,0.0021003932566048,0.00441328933344222
0.00698195904613606,0.0329143012845234,0.00198670323659934,0.00412773926115183
-0.00692205618132163,0.00326204740912216,-0.00123085239437335,0.0035345076952175
-0.016703403644493,-0.0408791692213288,0.000517221403680101,0.00278844544739693
-0.0166551047507727,-0.106121770365043,0.0086753121889414,0.00188674930814908
-0.00649115566027124,-0.160634475847781,0.0116675878029302,0.000935317864523665
0.00414069620283371,-0.144071275509354,0.00830719161550455,4.18460945740161e-05
0.0114118228931652,-0.0670154035040202,0.00523188984700032,-0.000644490478846666
0.017464685133848,0.00644486443201228,0.00497836815643411,-0.00100690228773975
0.0185621583810503,0.0459554456314494,0.00802532681081292,-0.00104413158168843
0.0179972287666632,0.0587160287355067,0.0103682875439103,-0.000674923228748707
0.0203026299512414,0.0669273201255098,0.00862719872833375,-0.000308632119520897
0.0163597520004406,0.0772894524406657,0.00460276164486106,-0.00054675291194424
0.00456820752527226,0.0791687321815644,-0.00133846174256579,-0.00115278256281404
-0.00272584401563935,0.0713454982832593,-0.00764005820841344,-0.0015569202035427
-0.00169474565250021,0.0496228393675836,-0.0107751342144416,-0.00173974791823349
0.00158302396101437,0.0053152451394997,-0.0105788163214378,-0.00183270497091323
0.00296091344286245,-0.0444931226949453,-0.00788777948339955,-0.0014585077226875
-0.000581272573173031,-0.0693901244149345,-0.00555403563876894,-0.000441388039936192
-0.00466985830315835,-0.0605866816890785,-0.00529380676020231,0.000544957195184092
-0.00032574272941404,-0.0560735450572763,-0.00512597858315948,0.00104739197920648
0.00809065367505699,-0.0878088637936662,-0.00833976208542476,0.00124288545232215
0.0103706989110882,-0.0947630687074383,-0.0198996940372619,0.00126430947869991
0.00496902035072593,-0.0331491403931041,-0.0302324914819645,0.000884010025712023
-0.00423972969441245,0.0353588505860463,-0.0283695285088627,-0.000165973745720412
-0.0126768268925196,0.0608875123778771,-0.0191050180208146,-0.00131339780729314
-0.0155417970065176,0.0532649264846031,-0.00811154218608363,-0.0016597310240801
-0.0141704769502354,0.0341611359713635,0.00647082343604724,-0.000841443318683712
-0.0159303454753284,0.0200689687603741,0.0181607282163989,0.000795910927129007
-0.0196589029268457,0.0126109206625818,0.0167050839933892,0.00204694732540545
-0.0135530446103743,-0.00358686969223135,0.00982289794645877,0.00185731214477132
0.00499971049203143,-0.0248712802200686,0.00645448915071616,0.000329544688208846
0.0239613682289706,-0.0320017545572698,0.00503225273059326,-0.00170232003302191
0.0341757989735784,-0.0345199525598536,0.00495007289549547,-0.00305765516040003
0.0363431440488693,-0.0482947034786069,0.00428339635705121,-0.00272228784027234
0.0342450035448442,-0.0552266658718548,0.00186681893171243,-0.00108778067354598
0.0284998542485342,-0.0342133326496142,-0.00131946079828059,0.000527255733319369
0.0212190288766287,-0.0004301302812212,-0.00487813917374689,0.00131911455012013
0.0183586197816639,0.0199217703015499,-0.00908112106008455,0.00112049918427245
0.0179457859497261,0.0192300374074443,-0.0135353771990121,0.000237491311991143
0.0118465720335337,-0.00577196318350649,-0.0162805745901698,-0.000831174964255192
-0.0017057030551616,-0.0447067261842998,-0.0162270464153159,-0.00141943446949506
-0.0189229966055524,-0.0616862864062556,-0.0125256280245849,-0.000770979800274166
-0.0354284817886751,-0.047242647198386,-0.00758751480162544,0.000797075326876033
-0.043219130568279,-0.0302289527504414,-0.00718747781129741,0.00208329649725525
-0.0254966477608423,-0.0245161033492733,-0.00838511928931462,0.00233302242426341
0.0143857949744214,-0.0250955654476575,-0.00405671524258983,0.00132794254931787
0.0331198837894359,-0.0247509368295183,0.00114871262345075,-0.000579822977543217
0.0162468005805034,-0.0149643992670662,0.00116641098382243,-0.00243030697222036
-0.00468656777780939,0.0124898549512173,0.000150324060120894,-0.00360148548806958
-0.017797639398713,0.0585680408704901,0.00113601417859119,-0.00402396468791335
-0.0224240620534216,0.0940950437805217,0.00303322222950752,-0.0034517750358425
-0.0122358193693084,0.0967636163350497,0.00435801545409743,-0.00177046133591889
0.00451152341200944,0.0803713680634806,0.00220964505908377,0.000427224646610763
0.0164189958835704,0.0498300066732714,-0.0026062699858517,0.00225674089295539
0.0202820650030386,0.00232914855623664,-0.00674907163515832,0.00302408460653282
0.0156554600442283,-0.0497733936619942,-0.00987482175821274,0.00255389275596003
0.00621389158489929,-0.105998192022136,-0.0109338830308473,0.00143682372675124
-0.00411298141292365,-0.165678038201811,-0.00806545395665282,0.000344897858144949
-0.0164411789807473,-0.17494182801945,-0.00632648673087006,-0.000453031815370534
-0.0290083161483523,-0.0986632198977764,-0.00927692884473345,-0.000766905980279112
-0.0350358027354605,0.00158990707863643,-0.0125909303035693,-0.000801669602700737
-0.0317474865574631,0.0717129704306337,-0.0135860563432237,-0.00097098966552226
-0.0208803065942351,0.137138894381928,-0.00972000628259367,-0.00123099589694941
-0.00494507000119207,0.201301709948522,0.00259877084042452,-0.00117630427815688
0.0164161834519021,0.178066341942949,0.0205054244302189,-0.00053625766619977
0.0473561731297014,0.031952293236535,0.0328661377068522,0.000359498851772198
0.0721529580305028,-0.1211651100937,0.0276842537872869,0.000920779367235149
0.0574680085076694,-0.180940416222744,0.00880496922264742,0.000753100997126369
0.00700939324124886,-0.161008690915371,-0.00393159535432373,-8.80109788899701e-05
-0.0322144367927019,-0.0883051553806941,-0.0010604407453655,-0.00108020111283909
-0.0345261347565413,0.0046103875815475,0.00764444761068323,-0.00169128555257177
-0.0194803534232812,0.0592701163828493,0.0106983763301781,-0.0017262742087814
-0.0102744622391388,0.0641928367555525,0.00810446917996794,-0.0014523344804119
-0.011875643651731,0.0482102585609047,0.00478334330547552,-0.0012155750868965
-0.0171479385722609,0.0257382244316561,-0.000176728415069848,-0.000903373852862994
-0.0137464212973237,0.00679058578607722,-0.0084863735583866,-0.00048194797146655
-0.0023386689247673,-0.00487164731902322,-0.0147604798007471,-0.000400740791617907
0.00295080348396054,-0.0158991349779417,-0.0149589844502809,-0.000694976783399474
0.00149566887559916,-0.0241319028338862,-0.0110214177486281,-0.000901063800456756
0.00184198620656575,-0.0256361454469937,-0.00427022829347168,-0.000608466833803997
0.00461864790233826,-0.024060091918684,0.00148788485351218,0.000194374148773576
0.00706859296179971,-0.0279965097705492,0.00270880766015123,0.00102152610838634
0.00513602026335643,-0.0360526133560269,0.00216541087163667,0.00160830956702198
-0.000720163962612694,-0.0377617122271054,0.00208534283577925,0.00190393122135733
-0.00350940362502028,-0.0364591906948372,0.00179383114472036,0.00159880017872175
0.000693694893238916,-0.0417944781341551,0.00279707046070763,0.000653239329742206
0.00737086334387251,-0.0520561243496105,0.00687401963582641,-0.000428175390948287
0.0108622649006196,-0.0536735530282683,0.0115564396895686,-0.00118250654803971
0.0108291030419984,-0.0399866753723461,0.0137301965934459,-0.00148395744037319
0.00872305768425459,-0.015585701952458,0.0164198068721985,-0.00148505226957338
0.00837313953637089,0.0138843953935988,0.0239943175990717,-0.00127154935107947
0.0168569703743422,0.0337866107035342,0.0330093973482065,-0.000544584344930926
0.0309394287931946,0.0293564658234159,0.0357149037217931,0.00069184215377999
0.0354660538417954,0.00907950621226445,0.0304246595250547,0.00179839410995942
0.0253841649828052,-0.00581282054667355,0.0218443230466802,0.00228849526633729
0.0103713548293396,-0.00696466062066483,0.0131658177321344,0.00203348798122229
-1.71921048986411e-05,0.00246064773408419,0.00499962162550816,0.00116712280487668
-0.00580708218073247,0.0188228414828985,-0.00188849036059275,1.52186189390519e-07
-0.0113394006257785,0.0309596982596615,-0.00629939842849495,-0.00108748946647749
-0.0158692514167668,0.0278536824210572,-0.00788678627661199,-0.00148906452216507
-0.0167502515759449,0.0201709011770806,-0.00886466228848655,-0.00105168124274136
-0.0154944629139993,0.0200454638601803,-0.00983950988932399,-0.000438782834079046
-0.0131444098803927,0.0221846759029566,-0.00983313572021401,-6.20867856327887e-05
-0.00828626000357644,0.0213290683008182,-0.0107080785043505,0.000281892938461198
0.00245176185737348,0.0101295728111094,-0.010422302122883,0.000412702226843977
0.0197150349540006,-0.0169383520432008,-0.00369751795628695,5.92740343067344e-06
0.0348573917884034,-0.0589413426431018,0.00907560373278727,-0.000245739376344519
0.0392188033838311,-0.0973413801892749,0.020745716301759,0.000429690794396281
0.0305859321903262,-0.0795592710502547,0.021945936407065,0.00169097442968796
0.0136439888460066,-0.00238613412991741,0.0121483895428211,0.00264762084600379
-0.00182612607590084,0.0661792037372973,-0.000355896386376994,0.00264749014893778
-0.00709793941087668,0.0853142978689282,-0.00760869888502825,0.00174672210510575
0.00224186934348916,0.0608233842399006,-0.0067964275657634,0.000470972894819048
0.0190771217341814,0.0253682549992873,-0.00357391889242662,-0.000763008830449145
0.0204966306630001,0.0175490915105164,-0.000544594500053792,-0.00161132216987224
0.00197778347853647,0.0221277723323439,0.00665872932616658,-0.00170621294460753
-0.0108368436193325,0.0103787688893516,0.0141960071225388,-0.000990614383757789
-0.00867599730968184,0.00557879651724737,0.0136635063782951,7.48928199159624e-05
-0.00267907213716487,0.0227657523189362,0.00706684694512151,0.000739502299680548
-0.000175906239599083,0.0368703623910448,0.000920553793276166,0.000630872012746216
-0.00470501275525929,0.0273621251293271,-0.00335588254638077,0.00016040348087218
-0.01291254033686,0.00117618751674958,-0.00297240386053963,-0.000124613302988203
-0.0172047028193264,-0.0254459798679549,0.00383418302608234,-0.00021963408470344
-0.0180918826604403,-0.0345952030948414,0.00931019529887071,-0.000238883910967576
-0.0164399947189157,-0.0156616282742469,0.00635119403923255,4.50545411764354e-05
-0.0114030931474344,0.0100487791734899,-0.00363381621673557,0.000349991991604463
-0.0051534920348031,0.00813297871278203,-0.010422739571951,0.00013964591340762
0.00835586250648541,-0.0197835258936975,-0.00553836218642199,-0.000131677872001954
0.0298528373456657,-0.0429673398969038,0.00478639687228284,0.000130918567941152
0.0395398070260345,-0.044786438134786,0.0105137004127874,0.000612709368704094
0.0286776515206361,-0.0259118304503811,0.00934116849029499,0.00085015626254157
0.0130492412930635,-0.00467542366148755,0.00586000780382911,0.000760677836783755
0.0045812220013983,-0.000749429245571948,0.00287082483432778,0.000310979779417699
-0.00118123572562715,-0.00612419073825634,-0.000952395540589655,-0.000250698563798488
-0.0127059726694386,-0.00544948514203477,-0.00564895972351121,-0.000478416786363828
-0.023311627853302,-0.00190541860773913,-0.0118676618680725,-0.00029539688695217
-0.024108451534894,-0.0016063550607027,-0.0177270672918121,-8.28450127196695e-06
-0.0200008080875613,0.000300098841481305,-0.0178833259409171,-6.8879125036946e-05
-0.0139526326690987,0.00172853750588988,-0.0124951775768997,-0.000462334078480995
-0.00664955568854373,-0.0032354622743848,-0.00604030524034506,-0.000568655489959712
-0.00285415559736997,-0.00921965040307703,-0.000302712734444616,-0.000102490000775253
-0.00369999681567149,-0.0121136889573197,0.0042478705880853,0.000577320571627529
-0.00626827117949169,-0.0141444190682224,0.00617967894774917,0.00104770253199895
-0.0072809158791185,-0.0178782876847862,0.00530266513390524,0.0011419144666652
-0.00572459644581626,-0.020990771631198,0.00141522772767064,0.000990137923203824
-0.00507509450729198,-0.0256303212700282,-0.00441608428996829,0.000752358801635114
-0.00825602014039279,-0.0452860598266549,-0.00924370554655589,0.000270121924597954
-0.0126914305569618,-0.0743080742110602,-0.0119782421478275,-0.000516283634169748
-0.0132729808552624,-0.0837317519813197,-0.0163412667998427,-0.00119821842364482
-0.0101284798781474,-0.05409974622861,-0.0284119219144654,-0.00144970367321749
-0.00739930226547739,0.00405305906453531,-0.0450205141646636,-0.00140820221180071
-0.00876294186632804,0.0569591975828369,-0.0577113126962784,-0.00118785399020767
-0.0170734762450157,0.0912831316615849,-0.0672025470161412,-0.000732329226226318
-0.0264692911380795,0.130574793630663,-0.0740739306695677,-0.000322091334421396
-0.0294032916145069,0.186321017078213,-0.0716110680341458,-0.000297490990034714
-0.0315132083068051,0.244631466830478,-0.0599762046421601,-0.000474257250862359
-0.0358494924368177,0.272150202529993,-0.0402880551567457,-0.000350844288067688
-0.0356263122461954,0.236671226615321,-0.013267183857273,0.000493644234703
-0.0292478834118144,0.138393497994959,0.00532306521093701,0.00210567057936581
-0.0247751180079256,-0.018043807029914,0.00207921291660625,0.00387025756881192
-0.0322388655128872,-0.192315855078202,-0.0170403042465717,0.00483970404612161
-0.0427176617813722,-0.285451125510801,-0.0378609336928839,0.00426006927073068
-0.0398373223511648,-0.215036605853167,-0.0476537822746012,0.00207418929571157
-0.036696598981879,-0.00873044544470666,-0.0392352057466568,-0.000541157370485432
-0.0519947977341706,0.18801284496648,-0.0147709252963827,-0.00180548636602628
-0.0630410929372036,0.260429873479162,0.0153306308923475,-0.00110859362363983
-0.0350762700045478,0.216841323096029,0.0338333900730847,-5.47104733058375e-05
0.0238060077156772,0.126165048715226,0.0298903013974259,-0.000737744421268677
0.0708951101589969,0.0669188045091872,0.0163317805119664,-0.00298420322102406
0.0784659036369147,0.0581662756568317,0.0093460783089907,-0.00455307261873894
0.0648346177068902,0.000128883059961504,0.0105288259926667,-0.00423735034447579
0.0537193289088441,-0.172489332839944,0.0179099707850655,-0.0026261971896673
0.0368231636054068,-0.340799976088729,0.0237174200491948,0.000145357845034364
0.014415006567978,-0.325410398360427,0.0212584493241011,0.00374937573050383
-0.00485994266521755,-0.127707459203335,0.0142513440475571,0.00662978417619198
-0.0281737900067288,0.0498185971162113,0.00578983747752923,0.00770205751136192
-0.0481628412738578,0.0791745957238143,-0.000666162730529676,0.00703270825902713
-0.0514309729859557,0.0399983579343984,-0.00140737967360673,0.00538772289905416
-0.0443886094910574,0.0363807160186582,0.00462534188507571,0.00348810411255329
-0.03929554249935,0.0633461797059059,0.0145018011937332,0.00156403486474636
-0.0352060635008328,0.0754877079076351,0.0206771088107547,-0.000213871135307487
-0.0208106784517764,0.0619776241444905,0.0206131980247153,-0.00156666307724378
0.00165689659421141,0.0354489224669123,0.0178197599979108,-0.00243124180770248
0.0172446633597192,0.00656909574005744,0.0168665694208353,-0.00295071549216844
0.0234151777590172,-0.0200391001705647,0.0208291487517004,-0.00297592739032421
0.0284888070805045,-0.0394397429045339,0.0284519467107404,-0.00235324075489856
0.038663571133775,-0.0494814714509154,0.0360282761212039,-0.0014125043459263
0.0483466270743321,-0.0570802655008486,0.0415545004370795,-0.000351236430030998
0.0437001808618991,-0.066262550048944,0.0439357562159998,0.000911485097746273
0.0317166306266651,-0.0745263782605188,0.041951335949788,0.00227070280337973
0.0271243788009503,-0.082197672829521,0.0338681327927679,0.00319280981675425
0.0272983827268209,-0.0902989414528857,0.0218478450856047,0.00294104698072167
0.0260464099401338,-0.0964794020222244,0.0142243639893957,0.00180320615580622
0.0205921521862399,-0.0990626187736984,0.0157720989402496,0.000810596980364915
0.00750334977710023,-0.0995819968957896,0.0254182713640027,0.000422535998342599
-0.00969554010586456,-0.0922981654717032,0.0383192235955779,0.00063826815332353
-0.0197007635652178,-0.0749405446724884,0.0486506771911956,0.000950347528075367
-0.0185684892793989,-0.0585087355739898,0.0546873477971743,0.000755313593842641
-0.00940447159106782,-0.047746658739486,0.0531669534941327,4.77971570589096e-05
0.00268574711085363,-0.039476371243055,0.0378694672823059,-0.000981009031407981
0.0136622043248903,-0.0336079431633418,0.0130636773665205,-0.00209393530260974
0.0285063254555497,-0.0374457248931852,-0.00380717746802588,-0.00280130194562763
0.046069369457256,-0.0483811246497991,-0.00338392149560016,-0.00262944743274553
0.0441900528804559,-0.0386611362691215,0.00428949948732463,-0.00148229540126001
0.0161024185103753,-0.00627606366341204,0.00858184492739015,0.000134441500983553
-0.0107305787243645,0.00651596011542738,0.0100094944048159,0.00111490652254736
-0.0143795250635681,-0.0140073818591094,0.00892139953338987,0.000888304248595117
-0.00289249984718683,-0.030474028866277,0.00213001016079113,-7.8947937620672e-05
0.00334851131591977,-0.0136955960788387,-0.00923520720765286,-0.00129148695555464
0.00160547431412755,0.0211743622327835,-0.0222579656698846,-0.00241680668512144
7.18611843026299e-05,0.0495280140893871,-0.0342105243940222,-0.0031992930298313
-0.000709831501334418,0.0662932143522602,-0.0402594073028323,-0.00374430152412008
0.00135356005945946,0.0713688926474338,-0.0404990866820558,-0.00389420593179648
0.0112929484383557,0.0660505286945752,-0.0383653839722043,-0.00330195995914096
0.0225269217248175,0.0569167765049238,-0.0380121376695245,-0.00245955826079043
0.0268010471369616,0.0489040143426451,-0.040863120904485,-0.00197774908161975
0.0245163580262957,0.0428707646290974,-0.0398542790701719,-0.00173749316370601
0.0115831169687905,0.0370518584453233,-0.0337925785690079,-0.00152018585742547
-0.00838448600774539,0.0245964014362878,-0.0295760129018827,-0.00116702789666361
-0.0202542147302785,0.00132898088530355,-0.0265650092441967,-0.000564257520800423
-0.0210389560335626,-0.017073381890201,-0.0194887133338386,-2.11191493242461e-05
-0.0175304156242666,-0.0158145161592698,-0.00977902459858999,0.000209713863631277
-0.0138675575807018,-0.00476676826553356,-0.0018736837060646,0.000234977751272427
-0.0152853263741495,0.0076685989715746,0.00369549715635013,6.23794362876814e-05
-0.0259995568981171,0.0232328473767205,0.004786807799955,-0.000437669427650957
-0.0391356441587129,0.0398546027671902,0.000497092282821424,-0.00136003173482926
-0.0401464908473048,0.0516749160542849,-0.00314008830661956,-0.0025166357366231
-0.0247760666272501,0.0524481020999178,-0.00263709110344209,-0.00334661291158485
-0.00772248909823466,0.0451314811327324,0.0015244404467507,-0.00343285777379309
-0.00584585183646856,0.0442838741420523,0.0118200615766032,-0.00299352854396613
-0.0136966463919155,0.0496018111842796,0.0269613120203844,-0.00261502660747339
-0.00907304881958274,0.0381059146238835,0.0359678216573548,-0.00228041386550022
0.00822585862681276,0.00867880905580697,0.0325821260715928,-0.00124978684829318
0.0129048907592732,-0.00358558284129226,0.0239691297306507,0.000516597208168064
-0.000558835863447092,0.0189887889228269,0.0179831496850562,0.00202823309167526
-0.0154593230734486,0.0344855396981901,0.0120472165481893,0.00280876331091929
-0.0210109168283973,0.00484617933992638,0.00208040314081248,0.00313423370006226
-0.013535187600897,-0.0342017465200779,-0.00897391166147167,0.00293360782164887
0.00219283578114574,-0.0421781978711022,-0.0154398073234282,0.00178855446244217
0.0135999209910153,-0.0326513576693894,-0.0153787164940511,-0.000270389118066947
0.0115026870708706,-0.0269740638091123,-0.0127050135945442,-0.00233967430013843
0.000176009170655893,-0.0233811076200282,-0.00967004990966653,-0.00332762854989611
-0.00242225049991274,-0.0248903489175955,-0.00254756758490696,-0.00289289438556506
0.0125256914385475,-0.0341548708300042,0.00733229849539324,-0.0013898872902522
0.0441410277644479,-0.025135599433559,0.00938647171329715,0.000406523086981159
0.084966078505763,0.00801316286512447,0.00369279426716997,0.00138767072286324
0.10295328479725,0.0419792799318007,8.43180246222078e-05,0.00079813929750301
0.0803276541272446,0.0717665856061508,-0.00123180590718796,-0.00084198080615932
0.0389033292923905,0.0918648116811292,-0.00200487945569495,-0.00206038898631388
0.00564043270295456,0.0863176477248114,0.000961933745523603,-0.00191077604986343
-0.0201233425581594,0.0599426173456806,0.00903898264913944,-0.000687853118620413
-0.0508001583871319,0.0243200149765759,0.020218895584636,0.00108112599862975
-0.06369276695954,-0.0202859314907717,0.0288304547039727,0.00289878906576324
-0.0464501490308811,-0.0581950664534991,0.0291033313165099,0.0038306283848539
-0.0384346007169504,-0.0700575359141902,0.024431996235412,0.00344249540845089
-0.0491085202164067,-0.0674133822628359,0.0227089743069872,0.00220566902349068
-0.0463648793463331,-0.0680735953393686,0.0224096808470427,0.00103058354731691
-0.0300659593493093,-0.0577851153758652,0.0186171382194321,0.000696170853899093
-0.0158988178622193,-0.0317208411095005,0.0132204991772135,0.00102185907376513
-3.99665540257443e-05,-0.0160037119443104,0.00776759088819002,0.00119460194073701
0.0176655377792339,-0.0146743016724923,0.00193945071188652,0.000923344802493058
0.028472074521342,-0.0154377692695245,-0.00216381933489242,0.000406733337909986
0.0323514934565587,-0.0110269537812961,-0.00614197927697528,-0.000256641198209743
0.0367264869950315,0.00180130465546151,-0.0130692703768371,-0.000980129242014207
0.0472826452983157,0.00670456081364675,-0.0209401023452063,-0.00168269338360885
0.059278033112324,-0.00564754805719264,-0.0257603839803593,-0.00230078301231014
0.0604761009447335,-0.013078414375183,-0.0264908760903153,-0.00245833790370977
0.0436069640338466,-0.00502442711875885,-0.0239229010554065,-0.00184390696003321
0.0156461962956049,0.0019323256193557,-0.0178500889957002,-0.000582701200408053
-0.00586832161397687,0.000499951388921845,-0.0108526547567747,0.000812064975241524
-0.0119538194023323,-0.00174967953481056,-0.00710604719593935,0.00157198641396252
-0.00818409854781888,-0.000662127750620519,-0.00738659523576057,0.00154143107410224
-0.00279792991057634,0.00112623793260166,-0.00992544266788522,0.00106385337158553
0.000218933360910025,0.000401788324635889,-0.0111609443229837,0.000509257736908539
0.00112241873434198,-0.00265720460397338,-0.00960446824413527,0.000269461600296429
-0.000351304212048361,-0.00633099697634834,-0.00847736557546835,0.000328032086586718
-0.00609240923783401,-0.00910859431824251,-0.00980493264094348,0.000573846199676569
-0.0140732711201548,-0.0104249001205038,-0.0107385884819737,0.000808772590397341
-0.0191373237000499,-0.0124649507530324,-0.00909888261412353,0.000556780949950114
-0.0209957241794204,-0.0200673685345936,-0.00729320063411993,-6.85159727611665e-05
-0.0229902544883484,-0.0312599917895634,-0.00688657402831598,-0.000345172495678287
-0.0243817926275384,-0.037190447953432,-0.00673446892675285,-5.84429571188442e-06
-0.0240463619131219,-0.0354044545285349,-0.00628305050004957,0.000489414959234876
-0.0221654940007891,-0.0258743108043518,-0.00598156476571223,0.000567943628314176
-0.0172731055593175,-0.00947692419355595,-0.0044961152622315,3.39886329744184e-05
-0.00886575981380464,0.003652735563227,1.66145697638835e-05,-0.000832809350068297
-0.000489934438730576,0.0059048951093746,0.00495075818701023,-0.00152051533193023
0.00331037081043487,-0.000523415424665441,0.00588462106871554,-0.00159863663592627
0.00272412490696785,-0.01022835521244,0.00395328501235123,-0.00108683200666167
0.000655091841816197,-0.0122217470740252,0.00140006223487214,-0.000413894532530278
-0.00484533357278049,0.00529995569526257,-0.00393069701416176,0.000291600538837883
-0.0130984960505016,0.0341587915101079,-0.0122675523210267,0.000749122601984618
-0.013465759575091,0.0455361733626472,-0.018949454920704,0.00052406060249423
-0.000860547226602187,0.0293699517404162,-0.0249781831693541,2.38488333545541e-05
0.0106503820674011,0.00331795930423565,-0.0363181145210085,-0.000376212964396281
0.00900850067698027,-0.0134053344759469,-0.046316088050687,-0.000741806926263466
0.00577317652368954,-0.00717995287018413,-0.0461180179548848,-0.00121721715691254
0.00730137124505826,0.0128262162864801,-0.0456170737978604,-0.00210529625258528
0.00141358079867018,0.00965927003908435,-0.0546340636055636,-0.00307121750366211
-0.0167361533996879,-0.0415940266533099,-0.0583100037846556,-0.00315093603590955
-0.0387765246155639,-0.106018868191463,-0.0428330113577475,-0.00172590609849973
-0.054743000784027,-0.0995223494556071,-0.0217836040334709,0.00086322800099278
-0.0629470283426507,0.00412739594174256,-0.00693822351062895,0.00338317487763769
-0.0664931089428325,0.144411730581896,0.00946895653523608,0.00463174777918388
-0.0588437506441234,0.267733056189876,0.0293347000195216,0.00443477676875711
-0.0410788215563724,0.348368893609234,0.0395953080500751,0.0035048354217121
-0.0290828384499754,0.367953452220009,0.032939461329365,0.00205189573648297
-0.0217178378734125,0.343994373093471,0.0165960762732027,-0.000143189135405244
-0.00578416327133335,0.304893622054182,0.0010894381597796,-0.00262831256602931
0.0265239998395664,0.208209721337176,-0.00391885914958613,-0.00463879569244324
0.060115506087325,0.0218872476720811,0.00125924879244901,-0.00516403707430608
0.0723368088505487,-0.167211615284309,0.00427097862606546,-0.00327357585849255
0.0693757680197294,-0.294241405103318,0.00392484635825309,0.000344734432374464
0.0524153523381143,-0.391167228924453,0.00587785298353766,0.00387303437592541
0.0135924932940155,-0.4312366699904,0.00277297229085417,0.00605454339571404
-0.0337337087894395,-0.334011762650471,-0.0110534899262639,0.00631290779701384
-0.0582386979435768,-0.143464017725664,-0.0250913955562444,0.00487194527310015
-0.0320547586120923,0.0125028005529365,-0.0285025472864245,0.00266300687559458
0.0130414450926175,0.0931737864731888,-0.0255144648142426,0.00025889281915939
0.0245301372759753,0.124094221715193,-0.0230277166431221,-0.00199737362253105
0.0111387715912655,0.121731944428587,-0.0189871369507877,-0.00346686623856604
-0.00769977729294934,0.102868564812287,-0.0108732364926214,-0.00360436012356256
-0.0311949372673228,0.085240766747603,-0.000144963735605989,-0.00235268289590663
-0.0445346612058922,0.0737645130144235,0.00873588354061779,-0.00024518598627388
-0.0354499132812648,0.0638700776059513,0.0107967854698011,0.00184996115381461
-0.0150931848236106,0.0485074515029112,0.00960892043826074,0.00298569112126859
0.00252418224203481,0.0271955226360639,0.0130608479615413,0.00278046445806764
0.0159552384557192,0.01004629252343,0.0186303427220892,0.00186318027856971
0.0232072358846513,-0.00370559862536867,0.0199380005670062,0.000937985493975551
0.0209914333407867,-0.0229152291317696,0.0185717009206141,0.000511598937576666
0.0165716341451285,-0.0428454612112003,0.0188220993041262,0.000973791967663356
0.017116105521047,-0.0574457626696668,0.0211272370283768,0.00192391267811157
0.0185976711027928,-0.0723461029922099,0.0236318246891486,0.00254182222628911
0.0166367500700959,-0.0937497369065955,0.0246854169708913,0.0025165596770325
0.0127380965965502,-0.114266077267564,0.0221626059524091,0.00224938946832454
0.0103800748990234,-0.12257593311617,0.0171940070738625,0.00209523016162117
0.0111640926137009,-0.123643834719584,0.014549014174995,0.00190951769114168
0.01489282742215,-0.127847078766303,0.0145094320609593,0.00156802025951937
0.0190884782889841,-0.129971059790569,0.0139443554602884,0.00112418693736985
0.018439837751408,-0.117772950114697,0.0116970494755184,0.000704242792531846
0.0155798364792078,-0.0939672128212867,0.00763029626552165,0.000467029368334644
0.0181217955682854,-0.0662132609255252,0.00416891159993903,0.000283370274319483
0.0219567604412437,-0.0323480997635589,0.00581317534266683,3.4766471426722e-05
0.024303618440389,-0.00122358923289752,0.00882530806006433,-8.79959717461051e-05
0.0276976054842447,0.0112602644533352,0.00499038554726424,-0.000252884858682665
0.0254820863234845,0.00646392960884368,-0.0031337774736772,-0.000732569996621166
0.0152333311351826,-0.00689638876804707,-0.0107327274468449,-0.00137121811923773
0.00473120422485648,-0.0207894099594124,-0.0199276870738212,-0.00185331510062663
0.000250214244692577,-0.0317669563278053,-0.0274796507625803,-0.00214716112790588
0.000564654469678379,-0.0441462748053376,-0.0287601514145463,-0.00242386956070794
-0.00672641466253572,-0.0547592507819752,-0.0279265660821253,-0.0023777379754853
-0.0327533575698346,-0.0570386154646153,-0.0265776123173033,-0.00172031432796009
-0.0524813412373861,-0.0561838356735724,-0.0244223313607728,-0.000779221885822926
-0.0225600468761498,-0.0640758488101665,-0.0226738456859882,-7.70756207129283e-05
0.0346766291836797,-0.0607973266453413,-0.0176854816291834,0.000215696904152394
0.0447895000706206,-0.00502341327163257,-0.00893034210107975,0.000660077954245415
-0.00381560018605283,0.0795596156523751,0.00432578906302836,0.00184627127912777
-0.0499596130927301,0.116676183750988,0.0216097610747678,0.00341154399693784
-0.0605606309118268,0.0942302183045686,0.0286765279106847,0.00413489386394138
-0.0532650468563989,0.0747729408207732,0.0191410411709759,0.00274013308966318
-0.0452340781069179,0.0854979201983432,0.00559933758329415,-0.000609702096667836
-0.0360875700818144,0.10167952958079,-0.00688602154303555,-0.00384978452448024
-0.0186783093105527,0.106878387669238,-0.0226137851137359,-0.00531244974521439
-0.00403391086054351,0.0976664596582011,-0.0354392393344724,-0.00526152331265405
0.00073294058889057,0.0603184929958279,-0.0376950003321008,-0.00441025658904624
0.0151358073157864,0.0144686346807165,-0.0270190143980493,-0.00282920580348001
0.045805102620616,0.0186747242265245,-0.0032349423503635,-0.000574893868730188
0.0737934577239661,0.0529230389518959,0.0158011406428359,0.00189144367875728
0.0760986019580814,0.0425077458774077,0.0111990000285536,0.00369988580043271
0.0470920248116786,-0.000279951501006848,0.00109206396221258,0.00420481503946065
-0.00606423533171317,-0.00415681920155713,0.00738448402928971,0.00418902853895187
-0.06690710144938,0.013845557124857,0.0134935831020954,0.00478890579208668
-0.0981633290952718,-0.0103822530838274,0.00563391176220645,0.00508781043229681
-0.0796295665283151,-0.0474428744022291,0.0008262331377333,0.00325471045832899
-0.0256737528627454,-0.0436121416114264,0.00750443478080627,-0.000606981975589957
0.0384201089211446,-0.0161589442146211,0.0156466230521937,-0.00459365185693383
0.0730560791225998,0.00194176480630687,0.0213099924335008,-0.00716333799283423
0.0592248208115535,0.0107865824684198,0.027334526079003,-0.00768601236569283
0.0198324772948061,0.0229374238276719,0.0322271088745546,-0.00597139803946728
-0.0172929644318267,0.0395771828890209,0.0301763235463959,-0.00265906222438947
-0.033532719677789,0.0490023613593642,0.0228248290029461,0.00120074037861577
-0.0281096828525583,0.0498803886801241,0.0166648079160985,0.00430314525033001
-0.0191405355712533,0.0574012083546559,0.0133491439848828,0.00541610958498447
-0.0167223329301827,0.0678692819915443,0.0103094027392133,0.00466591467073005
-0.0120398621913708,0.0679313677067077,0.00757470011880618,0.00309509622410018
-0.000302591458106259,0.0612112540681844,0.00869138395091707,0.00154332566628847
0.0134054628213065,0.0504102073961115,0.011554582839964,0.000466512311696351
0.0290975359400252,0.0366531623184264,0.0117476387599227,-8.24394538866283e-05
0.0436504272989115,0.0254202857354359,0.00908357281437846,-0.000350153019676042
0.0516720182542541,0.0158532098651691,0.00698725005077346,-0.00048956994303892
0.0567400973985546,0.00278667147373844,0.0067375302641842,-0.000416196071961893
0.0547595223523749,-0.0162398669764061,0.00706973197955777,-0.000151170290584903
0.039334587345002,-0.0489863498289968,0.00925842434522968,8.7884300197637e-05
0.0196449350106863,-0.0906997606074676,0.0133075008333198,0.000628234749881879
0.000232101209254459,-0.104268747303466,0.0161389827409522,0.00177898906556946
-0.0234838145269531,-0.077711913220924,0.0161366753770264,0.00297539156960695
-0.0427317993066122,-0.042102104477632,0.0143191914838448,0.00349808182189273
-0.0410574327513779,-0.014467678348479,0.00984490438186617,0.00297490444928154
-0.0186167682941315,0.00590062606049693,0.00342981237276507,0.00155162568728521
0.00850995822920615,0.019249067281102,0.0017105108576653,-0.000442677822262216
0.0251461193901925,0.0291518561954153,0.00440710203559689,-0.00256909019915813
0.0241636333434218,0.0544739946006627,0.00246513243070852,-0.00392980810069539
0.0136215970117681,0.103226244426269,-0.00557458321255147,-0.00405837366157102
0.00828428373073292,0.136981944878136,-0.0155500891959991,-0.00348422069900579
0.0122507474857867,0.140142750064007,-0.0292194267952001,-0.00293264732960783
0.0205788566395964,0.15143413673621,-0.0444019789510243,-0.00293345130927778
0.0201432505356083,0.186066634876947,-0.0533336429952414,-0.00355022103496775
0.0093976119037289,0.202134908981102,-0.0562746291112393,-0.0039453830291453
0.0032003282912597,0.169948564528511,-0.0556482614462762,-0.00348469443326292
0.000266369381498884,0.128152103859031,-0.0494691181941056,-0.00269367768308016
-0.007541443225811,0.101190421583334,-0.0375847837445084,-0.00208011605447708
-0.0169868980332284,0.0549338590083741,-0.0248755632002325,-0.0013911612810734
-0.0237804850105185,0.00128867557200879,-0.0177306402892534,-0.000235466572281638
-0.0264316846778301,-0.0195573675644652,-0.0172813358596094,0.00119236794386674
-0.0213849281635708,-0.0680174465585086,-0.0162313001458925,0.00229484670661426
-0.00763730405449472,-0.160492021349452,-0.0113113276801623,0.00299741962453467
0.0017222892501703,-0.164509772564816,-0.00881334384390367,0.00348282540456075
-0.00328713762411539,-0.0482268907765454,-0.00504278282161238,0.00350767418667621
-0.00815145842564766,0.045799588698182,0.0103001782573205,0.0029938115691578
0.0106520420600117,-0.000735398110306179,0.0314961125679546,0.00227264989234238
0.0423473455770908,-0.157468203718429,0.0461677381751326,0.00143347621166974
0.0498648305066582,-0.257091229912993,0.0455091308202505,0.000396726333262295
0.0286435100959341,-0.183822740125397,0.0288505525947431,-0.000959394206342476
0.00722607890864321,-0.0297550670839325,0.00718008384073265,-0.002716881171361
-0.000355412493629151,0.0678841322093358,-0.0132607566604934,-0.00453286367257978
-0.00776840182214222,0.0965562175676114,-0.0287800725590225,-0.00588822398290027
-0.0216070701774941,0.0987428481136981,-0.0342027334328845,-0.00643065662765451
-0.0307750663386061,0.0926281545216693,-0.0319611608557965,-0.00599750274141806
-0.0287796659122827,0.0817353032756214,-0.0257703370280576,-0.00469169393855563
-0.0201515805013442,0.0639494868656525,-0.0169753096462124,-0.0028250393058464
-0.0110879124010084,0.0342016523713179,-0.00897857962112765,-0.00077877442688988
-0.00340120255532427,-0.000572549304135486,-0.00361304392290543,0.000927595346348962
0.00495900148150437,-0.0310807684141111,-0.0010246187656708,0.00197157344902618
0.0219716283599518,-0.0588522129428132,0.00186459218174873,0.00245529800367145
0.0414296428986524,-0.0854573423186755,0.00903373571720719,0.00261635500725179
0.0381198490934906,-0.106633787332104,0.0175255905641456,0.00284054495205264
0.0148475201168166,-0.114969952266624,0.0241609739682589,0.00342703207084246
0.00259666998481218,-0.113403178654012,0.0278920142217391,0.00418581279942477
0.00653817591916703,-0.114174392327234,0.0273516633070332,0.0043910963004144
0.00650695634438833,-0.116831619354639,0.0246047332905678,0.00351589123413689
-0.000305941613956745,-0.115125791796922,0.0233714979809003,0.00187581426414148
-0.00172275171315462,-0.11214290822247,0.0255673393419431,0.000293656116403826
0.00319287527019272,-0.108670459558572,0.030167672679827,-0.000678219712865151
0.00706010818996508,-0.0994202131134767,0.0326915930551031,-0.00100935432298264
0.00620633629257959,-0.0869923266265293,0.0309491697016995,-0.00082130756079987
0.0105366654380119,-0.0831543839604657,0.0272129166304634,-0.000555577375341866
0.0356001428234218,-0.0907375944573039,0.0228917112852958,-0.000556994209458498
0.0674793727590768,-0.0968090603072377,0.0180598375775754,-0.000645168001963554
0.0763943767541409,-0.0911895838143672,0.0130301284458941,-0.000837499825913702
0.0628631151752561,-0.0758787130316834,0.0085778704164892,-0.00122899377380617
0.0447675071220375,-0.0565956953992354,0.00538243875308053,-0.00162462221413746
0.0287359228273841,-0.0362447188941164,0.00243899182387146,-0.00201269136180433
0.0132253783665022,-0.0179247432847752,-0.000283264353523248,-0.00234959508181877
-0.00474849803316124,-0.00424934341247651,-0.00328360287865866,-0.00241002332556626
-0.035653687936624,0.0093308434432732,-0.00704049913940836,-0.00225833471025551
-0.0764706504297038,0.0280620380758671,-0.00810725239931327,-0.0018164347092324
-0.0867869625606378,0.046690075802852,-0.00590154024465914,-0.000728555720391127
-0.0491502329674154,0.0521149914929003,-0.00535792460874633,0.00079031690633514
0.000455354556235424,0.0402895975178485,-0.00544263521643716,0.00194170661387669
0.0276153053478771,0.0271655439401891,-0.00370207362143042,0.00231772953073844
0.0204711464808316,0.027898067123647,-0.00610196515417441,0.00234688738761775
-0.00355786420811998,0.035707025164265,-0.0134623797085033,0.00234727264013684
-0.0198720662173978,0.0357358312476866,-0.0186194544259278,0.00196309595100679
-0.0299321154511665,0.0301532245255718,-0.0196885224309836,0.000987264591215805
-0.0325377118144896,0.0266972754526802,-0.0209762230971874,-0.000319118112677391
-0.0216286420122918,0.0239063627687729,-0.0214553154761565,-0.00167445762890563
-0.0122366646092461,0.0195295714947364,-0.0157450813595585,-0.0027592267363922
-0.0154319515849734,0.00909966047265618,-0.00646638881329309,-0.00348787991892195
-0.0211962920043513,0.00216952776966916,-0.0012460835578108,-0.00405564264292534
-0.0132554268343247,0.00327835099389887,0.00110973136282978,-0.00435357247394335
0.0102525272343295,0.0124365138716784,0.00706590364157182,-0.00408509922798774
0.0307115594502224,0.0445855300024309,0.0142615307399517,-0.00305216746259245
0.0414060910068551,0.0799975112263072,0.0178386199743215,-0.00145350876854448
0.0473467835794033,0.0983476183314064,0.0182106268970368,-0.0001002912959139
0.0461207938692986,0.101864921933764,0.0191025874181423,0.00056185320147699
0.0308304895554335,0.088684525340444,0.0190062146679621,0.00117941552756121
-0.00149466994108638,0.0834564396343,0.0103393970170582,0.00217486490248637
-0.0307287063549113,0.0741869167078876,-0.00129490601067438,0.00282771562482366
-0.0322192173092515,-0.00530434928141978,-0.00303596511229358,0.00247837570797813
-0.0210596335779926,-0.127968491733615,0.00448599095745613,0.00158328601082612
-0.0360513702159761,-0.189893415289187,0.010691558703886,0.00102557887246895
-0.0789823290791224,-0.156161999215561,0.00688688361100179,0.00120290859235819
-0.108704622893715,-0.0771159064655941,-0.00687849320490471,0.00153755774979349
-0.0975788828485143,-0.0203227404799796,-0.0201015464555334,0.000947453359835379
-0.0575596495642606,0.000170383632733417,-0.0249827886186417,-0.00074154834622391
-0.0162362708092719,0.0241894879416027,-0.0246527919369258,-0.0025904022563948
0.00779142186735371,0.0911240939424977,-0.0193876386385682,-0.00337229750227642
0.0151894137131556,0.185006890286955,-0.00573206250389062,-0.00274925664498245
0.00998096466091196,0.241035087127891,0.0100338654973253,-0.00142352671790086
-0.0105362092473603,0.227460888155237,0.0165047567729185,-0.000111464458180489
-0.0356641343241845,0.161859359797641,0.0114576101477235,0.000842335489060545
-0.0511306608102671,0.09051998577945,0.0018593748403546,0.00134134725708099
-0.0496240776062867,0.0834109646232109,-0.00319281427799471,0.00134853166498519
-0.0301350408099947,0.161165936161086,-0.00196963949041567,0.000968062049047426
-0.00852416293855592,0.251874680514163,-0.000650454187811633,0.000527527057418786
0.00124567458723695,0.243328061106087,-0.000675213316710267,0.000277564260628098
0.00645775145077142,0.11155493370258,-3.57518754833808e-05,0.000139549997794325
0.0300346530230702,-0.0518036246184843,0.000848596932374303,5.12506078076543e-05
0.0674189268823463,-0.174437255812118,0.0056045095365934,0.000255958862803043
0.0769103623278384,-0.241687208760047,0.0204234179444673,0.00136633441371359
0.0453612727106379,-0.269966638602191,0.0375997252112893,0.00409003668391573
3.83180988891424e-05,-0.255653305436962,0.0395513716773266,0.00772102581919483
-0.0331591456451846,-0.169810067334991,0.0255222229811592,0.00975887357069997
-0.0411138029925948,-0.050953886477018,0.00962430673097084,0.00826981776082299
-0.0246453895835275,0.0491817549815542,-0.0030313091268091,0.00402852024484705
-0.000550785485625056,0.161970254791619,-0.0166656644331311,-0.000621495926850022
0.0103807933431093,0.293279594651766,-0.0312644240436529,-0.00398063891853065
-0.000483235399074158,0.362321213605246,-0.0396915124251432,-0.00543143209658592
-0.020768288811528,0.341109039702412,-0.039951073092792,-0.00533461381454088
-0.0318873379602603,0.300935510312427,-0.0388751286426592,-0.00452275451565727
-0.0251865981466317,0.270491247975827,-0.0356174797581021,-0.00362844453066496
0.000156269987229864,0.179194202386994,-0.0172064390636775,-0.00267897715735425
0.0331934121089185,-0.0231388031620132,0.0148300967909964,-0.000885343409620113
0.0420774005639255,-0.248636028809382,0.0351832525320795,0.00216531160925865
0.016921866412388,-0.338082549452017,0.0331438075705973,0.00512742768161582
0.00427856149694029,-0.271464688392815,0.0240820345169396,0.00635736331925109
0.0217498360844491,-0.141244063252961,0.0162147828553388,0.00585236199589542
0.0280855084096732,-0.0347126151287486,0.00509008371810874,0.00436556400269481
0.0154610410033813,-0.0367546053747629,-0.000524549351046486,0.0024587073808068
0.0129508400246562,-0.11687237223041,0.00743310258351676,0.000715156526270329
0.0211355789932483,-0.142466707083667,0.0153072629917017,-0.000290572168043422
0.022808213777606,-0.0747744336695779,0.0116468857578961,-0.000515848331306909
0.0140665474699437,0.00879560460867684,0.00319430077042421,-0.0006021271147915
2.13420391317609e-05,0.0428568659661677,0.000501520781985336,-0.000767393578754807
-0.0122028515452072,0.0335752377762379,0.00151807566362232,-0.000587214855600199
-0.0226500003516419,0.0140105132872481,0.00177551677825868,-8.75631958351792e-06
-0.0291962960226633,-0.00333041549220924,0.00324559250576116,0.000662075443209144
-0.0195824492446481,-0.0242237394516397,0.00582570701373439,0.00114110326452653
0.00322638135496653,-0.0459923130598579,0.00771295632805087,0.0011716428315362
0.0211098401043334,-0.0577637794616737,0.00967496309054373,0.000628896157305779
0.0285709066594625,-0.0631356487569362,0.0112603752212889,-0.000258589136777683
0.0295310839622038,-0.0768267228048369,0.0117932516486088,-0.00106997833719332
0.0247794350323902,-0.100723124397061,0.0130374150730058,-0.00151346984037711
0.0166713636213415,-0.120031954492763,0.013736246286023,-0.00130608412579616
0.0102347494526235,-0.123317477282789,0.013269510345867,-0.000449830012125229
0.00690531642145279,-0.114135305679249,0.0132353550034271,0.000554488841316776
0.000944349660040712,-0.10310154423918,0.0134238506205428,0.00133191455065684
-0.00820523537614643,-0.0957337489703179,0.0133837520322506,0.00174100746444129
-0.0121264198922234,-0.091166838499528,0.0121890717715275,0.00149650824923226
-0.00987292671106844,-0.0886973391451159,0.0102676127419471,0.000744025429354011
-0.00801740076045154,-0.0875550329899204,0.00889345888288792,0.00012674277612251
-0.00837862189899961,-0.0845058935185201,0.00662819827367512,-0.000213611939314375
-0.00939720743120463,-0.0774161037566988,0.00145737125473457,-0.000578492745319751
-0.0125223191293509,-0.0701533041183617,-0.00525014401591643,-0.00131771881903087
-0.0150577891743741,-0.0679235843804342,-0.00927060565264778,-0.00265301256636325
-0.0110026652357813,-0.0673951467667157,-0.00729151534430813,-0.00401714959662249
-0.00225267354168233,-0.0607112524963404,-0.00258467582066025,-0.00437900696696187
0.00528700706909119,-0.0456063908538433,-0.0033360818481,-0.00358602744193191
0.0103598917792726,-0.0261537285439602,-0.00811059889052688,-0.00242956132973009
0.0114638001695662,-0.00966984878739408,-0.00779244380363976,-0.0013657972069097
0.00510530688612207,-0.0109449553938211,-0.00275004727072182,-0.000367902241002601
-0.00579848406986702,-0.026917127445258,-0.000220610243393829,0.000556834205803581
-0.0138471929047038,-0.0163794987243707,0.000142383690753799,0.00150199588317615
-0.0159495387111454,0.0295117348779387,0.0015586842621011,0.00239219055889968
-0.0134528724658218,0.0594445723530055,0.000551776363616554,0.00290655244660229
-0.00936062434541555,0.0457344628447566,-0.00504005886945303,0.00256237559688243
-0.00723991413791947,0.0128565007689488,-0.0105465632698677,0.00116848285252979
-0.00679326594601939,-0.0130441113381027,-0.012615142632522,-0.000577319457771813
-0.00545624881399413,-0.0263309921133862,-0.0157240699097624,-0.0020503907055518
-0.00796454463202325,-0.0323261772460598,-0.0204975059232724,-0.00312899532032063
-0.0230150810929486,-0.0418862890955271,-0.0173667306358558,-0.00348032027788933
-0.0432513518790604,-0.0520787201700352,-0.00594686337620961,-0.00284684036035557
-0.0420033501605255,-0.0371803728472956,5.29394020546622e-05,-0.00138586402319355
-0.00885481862137711,0.00553962005635861,-0.00365873714488877,0.000117793864172722
0.0265668641172745,0.0377411297388874,-0.0071599929834471,0.000337817908932438
0.031212184131464,0.0445311003757104,-0.00806387282666796,-0.000814034701674883
0.0114102992212008,0.0461774588336668,-0.0116232914189912,-0.00198166772164064
0.000349115277312965,0.0386456313188175,-0.01482762315407,-0.00229165381266041
0.00727526721466698,0.0226869286165999,-0.0150029104794785,-0.00192038731071031
0.0106461643537164,0.0249934422686203,-0.0164508910557278,-0.00130201412816055
-0.00739686640581702,0.0357829636112878,-0.0199319904748745,-0.000480422733160819
-0.0388616223377975,0.0377276235536937,-0.0217731939245161,0.000640222158830901
-0.0571292980720306,0.0506553248843173,-0.0192450526567927,0.0019240372137933
-0.0524469080148636,0.0866299573698915,-0.0141010689986787,0.00274703445805302
-0.0398644124080536,0.138137828523793,-0.0105363882147116,0.00230255585938195
-0.0240985781550113,0.195575529995001,-0.0109393931193186,0.000665247393789363
0.00901694653373868,0.223096694571527,-0.010752908323369,-0.00131458508938517
0.044195482339515,0.183913145440743,-0.00348771023575967,-0.00264923605208032
0.0473228284431902,0.090346609121325,0.00514963314574715,-0.00241048937584751
0.0207136381756668,-0.00685086706451032,0.00749298932642076,-0.000534155460618176
-0.00600776742252633,-0.0496370828136625,0.00293463962400576,0.0017007549409697
-0.0163673980959521,-0.0399043451030964,-0.00621792335659692,0.00269590465586309
-0.021942402309483,-0.0307396021472821,-0.0121469289139305,0.00241898599774663
-0.0288371957626372,-0.044469567426246,-0.0100650193679894,0.00217023216546672
-0.028502013496791,-0.0703001307019419,-0.000870923122634338,0.00232201509078656
-0.0219065854266982,-0.0823132268828349,0.012100818077489,0.00238348563413177
-0.0111502882630733,-0.0707382722490561,0.0220837163246158,0.00223093014268712
0.00644785061170847,-0.0369497968803455,0.0276814665566726,0.00165230385623259
0.0253430977169936,0.0305239354297363,0.0273865409232983,0.000420682281042493
0.0386451924926589,0.0976695296090339,0.0165350158962949,-0.0011449489323643
0.0447962348125313,0.111147954739008,-9.11140638753319e-05,-0.00269217063352022
0.0365518940338887,0.082453604384283,-0.0113040883203649,-0.00377436011749805
0.00685703983174604,0.0430843293636789,-0.010627685831137,-0.00371260002500607
-0.0312117918222218,0.00906915944785043,-0.00502444151978967,-0.00197246927861695
-0.0486160201798242,0.0249275599163033,-0.00600018091494333,0.000689122764626999
-0.0406684400622827,0.0974543911816453,-0.0121884786580844,0.00200956364709194
-0.0312060868519868,0.146501554977864,-0.0126221314908341,0.0010533734874504
-0.0288680519359642,0.143396502218223,-0.0034903295018042,-0.000376358661255562
-0.026592850207328,0.15101536928139,0.00619556300867838,-0.000279626111013618
-0.0248344033905612,0.197228366296691,0.0102557409806585,0.0010918712081008
-0.0247690481910378,0.251217165045972,0.0120523164360098,0.00262240901716091
-0.0170968290366625,0.259802029626629,0.0115684187732494,0.00379551883440769
0.0107618449304714,0.173622191593049,0.0068580727888395,0.00401354288418512
0.0541210678937265,0.0282610974873894,0.00244978261368318,0.00312268528929904
0.0845476542918495,-0.069756364681837,0.00163201279469075,0.00160085780174889
0.0827010085406001,-0.0881462000915879,0.00141152065365706,-0.000130667886842586
0.0722943123821093,-0.0888675111670795,0.000600604599367583,-0.00158259315111363
0.0798960364273868,-0.108131524213074,0.00509744218739239,-0.00243902683901929
0.0878824575212404,-0.151590826828002,0.0173083864781309,-0.00246706418495088
0.0720158700461196,-0.213071302724964,0.0312709373490034,-0.00138023862431977
0.0348035040259347,-0.230731182688168,0.0368228523118474,0.00032497343867497
-0.00621753942694152,-0.167270772076673,0.0315787104683446,0.00148164651349993
-0.0302711387937299,-0.0785833514901918,0.0243186051784009,0.00141071704795498
-0.0311267609457904,-0.0188510469211459,0.0171520849215292,0.000417673056329053
-0.0180838895123076,0.015474670834455,0.00825235485759359,-0.000880693216470104
-0.00512722558536201,0.0323660220672826,0.00179596940867348,-0.00203862558197677
-0.00383677973575912,0.030664155124608,0.00397519584648356,-0.00258631377448105
-0.00843852793440794,0.0214833355902853,0.0145950466976222,-0.00220677237123517
-0.00886334809966663,0.0241995117414048,0.022269033174398,-0.00122983994007211
-0.0070623732323987,0.0451323531329499,0.0184251990581366,-0.000410528544827654
-0.00277604941633631,0.0655289548176212,0.0113016418139664,-0.00011061111437325
0.00829680987395222,0.064913455617584,0.0117120987302494,-0.000136069607538837
0.0229733395118167,0.0467772018671284,0.0136374025804342,-0.000203991681424073
0.0335225132141708,0.0425860912787086,0.00725971578581856,-0.000325558237285085
0.0348124171384245,0.0657412272945025,-0.00189384701864949,-0.000775885699813429
0.0258878593449716,0.0808748579975237,-0.00422781645041795,-0.00157774060024776
0.0129164667352258,0.0680931134511489,-0.00322270376784325,-0.00221307127892396
0.00844943482225226,0.0368617432389882,-0.00446813847816618,-0.00228670808778267
0.00593724210849464,-0.0113492593616241,-0.00312644612453819,-0.0018909462845451
-0.00824634041788325,-0.0657200989598485,0.00275403880805981,-0.00101530448892968
-0.0100814411251584,-0.126984631585545,0.0103058537148647,0.000340367373652947
0.0191594954954096,-0.221610222922266,0.0202998293514781,0.0014263404192007
0.0497621866546134,-0.314409078856776,0.0291816644291967,0.00121350457647569
0.0494383604067424,-0.301550239341422,0.028977268012652,-0.000285138436659346
0.0250469799849914,-0.165664012817423,0.0192925024256304,-0.00200331134385315
0.00916513424956554,-0.0168142589976984,0.00937646326222897,-0.00303913644449553
0.0145513495254386,0.0673766016601812,0.00668914531458715,-0.0029906290542198
0.0213621634886895,0.107033959069225,0.00988591182232956,-0.00193994176165573
0.00843318278180736,0.121989612129677,0.0120508549413865,-0.000718175120991818
-0.0214202193204302,0.10570271391281,0.00789377068288781,-0.000110184771753419
-0.0464804396178375,0.0753263205818331,0.00367961973906596,-6.27080899423201e-05
-0.0514910749074819,0.043265001891547,0.00791730544893675,6.15064155326159e-05
-0.0388844722378694,-0.00179382509281813,0.0173426170085734,0.000510258403490858
-0.0115113307792334,-0.0635217965736252,0.0253955927546042,0.000733192099825865
0.019602418466653,-0.140629809164103,0.0300463743852001,0.000320321646936022
0.0195431446605351,-0.1878580787386,0.0266865606046981,-0.000612345285389108
-0.0104696581231924,-0.140777139520888,0.0129572972958389,-0.00173177993048984
-0.0292941186712118,-0.0388082722401393,-0.00120935880653616,-0.00276009177373124
-0.0338410837937699,0.0235695355561754,-0.00609016087295353,-0.00334690923326334
-0.035961220139302,0.0319462731109803,-0.00320907822690336,-0.00279535054407788
-0.0251595468418181,0.0266510211987791,0.00152685574698638,-0.00112247718376905
-0.00794239530150233,0.0221177377495138,0.00425034149781513,0.000357141149395121
0.0030031003821579,0.0110797184138166,0.00359780886658229,0.000324464218368854
0.0136953214386825,-0.0016632274134452,0.00186436599487006,-0.00110906056375233
0.0243104683529889,-0.00101479903100994,0.00269678626759605,-0.00233370347710641
0.0272009274709849,0.0111047403736701,0.00534677425091492,-0.00205191352214256
0.0221977051297775,0.0167504138573266,0.00479049854289036,-0.000510928005691001
0.0199593315689373,0.00871047039184221,-0.000461065348267681,0.00110535619856457
0.0269263955099503,-0.000620613374799957,-0.00941871058661525,0.00154829592473509
0.0275131104035304,0.00473780009822607,-0.0193537555851343,0.000687361137165141
0.0106177779140036,0.0205902455842432,-0.0235600954807753,-0.000471224059179666
-0.00392628666326166,0.0273737326524503,-0.0200809323518684,-0.00107954967830968
0.00129978315195935,0.0185176764465003,-0.0140521321080879,-0.000705877638911855
0.0109418636300994,0.00779769553288563,-0.0120858186769855,0.000431943594212019
0.000944727871183623,0.00928432413918632,-0.0144992163939722,0.00154304063312478
-0.0260029784707353,0.0267773086934792,-0.0136723958620127,0.00239712256121869
-0.0450826127220284,0.0432923154392772,-0.00248361423782967,0.00323863579455556
-0.0402114072771372,0.0242986213580034,0.0171145742018285,0.00428394506594255
-0.0241406095953569,-0.0223304688000003,0.031677225928641,0.00572429753684356
-0.0178989914669022,-0.0431169667766596,0.0337871677764429,0.00657298672260132
-0.017381877844015,-0.0368393652902238,0.0299342225444189,0.00543503797963262
-0.0137304581559382,-0.0528072995257678,0.0245198550809793,0.00290371856822682
-0.00798889597917239,-0.0797038640828993,0.0147096019834319,0.000553890251127793
0.00782555512888664,-0.0677854776870113,-0.00161729943039883,-0.00126597529306195
0.0241504667682544,-0.0254553439245902,-0.0162113685937702,-0.00303571953997831
0.0205617907071042,0.00620386036351772,-0.0222886786467987,-0.00442764675950885
0.00919121681167519,0.0100117169698623,-0.0244202787208096,-0.00455475529698351
0.0052079995594795,-0.00565560740750271,-0.0245731850145297,-0.00354851888288145
0.00347247330125589,-0.025080688791483,-0.0225046040771421,-0.00228479966469966
-3.64231898136367e-05,-0.0349172551551079,-0.0194141914662736,-0.00101699644152545
-0.00464736188501295,-0.02759693938633,-0.0158951312023705,0.000506518761127403
-0.0114972242680385,-0.0119500420714626,-0.0170361343414521,0.00225553280997322
-0.0210119429582115,0.000452085008340278,-0.0244400845748428,0.00364067316639341
-0.0296732590483162,0.0154099963209417,-0.0307840029867108,0.00397383320860463
-0.0344244846267276,0.0493109799332629,-0.0309168650326437,0.00319587031899793
-0.0412071516730989,0.0944163463713467,-0.0246711180674077,0.00187092148429947
-0.0543765803814139,0.110527994015965,-0.0172444765639738,0.000875231792492319
-0.0685978240348001,0.0705718327058587,-0.0172525496700474,0.000833248342955524
-0.0699719422893453,-0.0139239994527318,-0.0210185971765425,0.00153805564827732
-0.0447999811439182,-0.0697932577358025,-0.0140586285546563,0.00242453247742118
-0.0129731339695011,-0.0220504923088544,0.00525142844165863,0.00314793998737828
-0.00017468463522663,0.0725749910134783,0.022394238514127,0.00365570666314939
-0.000219735503404435,0.0998551305632568,0.0255515732821849,0.00380435741255264
-0.0089134986788389,0.0504572855674191,0.0188094737566083,0.00335526706190934
-0.0150617322355493,-0.0254395488214293,0.0115621266337572,0.00253824819114209
-0.00259236099252083,-0.0818966741702927,0.00205014573597653,0.0015651478818995
0.0112232539815802,-0.0660803281587512,-0.0108466326620176,0.000372616947307633
0.00583232313072062,0.0125645087880467,-0.0167788275777007,-0.000853891459168193
-0.00355762364334996,0.0744985034819495,-0.012140142287407,-0.00175988194349624
0.0123846903713542,0.072875432591771,-0.0032812658585589,-0.00193256158023421
0.0328825199509426,0.0561906001024679,0.00362159599196309,-0.000985398839730641
0.0111066620786413,0.0763373040239422,0.00224107736640706,0.000724603458500722
-0.0315025920166784,0.0759897663017035,-0.00696128862445528,0.00207252211395638
-0.0434924300388292,0.0142825463870774,-0.015363933274929,0.00199407301886473
-0.0187501059146228,-0.0612808942319747,-0.0166205310952736,0.000239950222208552
0.0163726672650999,-0.118716742511038,-0.0103331408083729,-0.00206229075774496
0.0304444345847803,-0.14297610270895,-0.0013843779743542,-0.00318256189862545
0.0143406709403813,-0.132840032271092,0.003460293232562,-0.00240541886199199
-0.00991140597882331,-0.106139814209738,0.00233452474003782,-0.000669559567068266
-0.0173659970233164,-0.0615081983567842,-0.00108473438092964,0.000299387661555244
-0.00966874837217041,-0.00211394179184249,-0.00248784885653894,-0.000179236082975872
-0.0041526119172227,0.0662216017094439,-0.000825802021932056,-0.000948739452763048
-0.00531051759189626,0.148176205254825,0.00479779857645117,-0.000269825829966656
-0.00686049579631421,0.207867460815181,0.0138422397373991,0.00235703748356348
-0.00215995433229644,0.191307705298464,0.0227474066419043,0.00557781021841695
0.00817799280979355,0.0961243897122021,0.0287890430907284,0.00728519359612077
0.0148791867209813,-0.00798468470795408,0.027309334792264,0.00660993956767526
0.0145657744270956,-0.0324346587333322,0.0126054407917975,0.0045623629484238
0.012759966375435,0.00873907235989828,-0.00933249257312158,0.00224652870108343
0.0134247896115667,0.0370384701812671,-0.0231397291980138,-0.000127763283020518
0.0161503160382169,0.053585273527054,-0.0238085080001967,-0.00260268435557352
0.0142383680486771,0.0877375161117672,-0.0176151427053306,-0.00502001507270873
0.00545881813764092,0.10599654018928,-0.0111969908383361,-0.00632018605013166
0.00397364574189567,0.077432860409312,-0.00477046143532662,-0.0053357451247659
0.0145427224899165,0.0251994902936757,2.83929107631475e-05,-0.00257210354398116
0.0202697934396852,-0.00722810172201283,-0.00273229467323291,0.000350589370378954
0.012147908019197,0.0017860344161886,-0.00558391108453668,0.00225819462185465
-0.000438985570380837,0.0170056142891144,0.00228061431845271,0.00279721063362468
-0.0104397691539338,-0.0285860884241254,0.0152150333441297,0.00222669871186546
-0.0134116690062586,-0.103111410545042,0.0217642725919561,0.00131825944541681
-0.002343670514969,-0.0886264559426537,0.0188696744642769,0.000540980848596572
0.0170421435663109,0.0119000719710007,0.0136278622502403,-0.000302028289162245
0.0275406120332409,0.0961568739613386,0.0111143762656839,-0.00118358271336456
0.0246320258047082,0.132711038002526,0.00685833982947278,-0.00181904104532466
0.021417450663859,0.112179522398493,0.000299239761054537,-0.00208887952394615
0.0241392168281694,-0.00392214425895002,-0.00222206940618062,-0.00202300287817389
0.0256061353545724,-0.171500383244589,-0.000161609544176075,-0.00138177520296631
0.0184108838512676,-0.259865493221003,-7.42982964651558e-05,5.68616712920537e-05
0.00218985917963147,-0.199363668399987,-0.00449264170335878,0.00161485714166614
-0.0179733044530086,-0.0623195711501809,-0.0115456984275438,0.00231726626970626
-0.0340499173214955,0.0421697446409557,-0.0192895601795001,0.00191481718479858
-0.0381309765026311,0.0897225932157407,-0.0247637945252295,0.000848669459506486
-0.0335324083620593,0.100823725456641,-0.0258451826947775,-0.000444242221891772
-0.0270572966136257,0.0893359732347358,-0.0220910222542866,-0.00171268198628749
-0.0131907936683714,0.0798402349820691,-0.0178482958231924,-0.00284523161372067
0.0105821742760272,0.0842583928255344,-0.0170106136774569,-0.00398089661378739
0.0319328428299229,0.0704296724616127,-0.0156950221206847,-0.00506036836556042
0.0418216356666382,0.0309060987333879,-0.0115074733785765,-0.00550774304048382
0.0394464780477745,0.0081072197467118,-0.00735401488214769,-0.00487737742839022
0.0243979853596309,0.00665123667715003,-0.00451581016707084,-0.00346473225560482
0.00298746455968166,-0.0033793014344732,-0.0026272094299879,-0.00183799284226434
-0.00983846741360031,-0.024592238272097,0.000489178473995705,-0.000434663190949969
-0.00560908892828938,-0.0518605980039054,0.00568237097681667,0.000523984644652137
0.0123180218560701,-0.0912119836402207,0.00933870898937223,0.00118223015174695
0.0310534261889287,-0.122395165102482,0.00748141887226517,0.00180609214201783
0.0342730698770722,-0.127304347687156,0.00345555578380047,0.00256595938833627
0.0207971786488616,-0.112951419897147,0.00350278573519112,0.0033368318734612
0.00145354735301549,-0.0662270551691955,0.00184278259403577,0.00345268511899945
-0.0137586574019433,-0.00052827388123626,-0.00752194524740143,0.00207858271453868
-0.020058358937108,0.0308730228496943,-0.018128620715645,-0.000892817172568893
-0.0172183989741145,0.0117585638698974,-0.0221957714248345,-0.00427678173688258
-0.010311055663721,-0.0281734437354614,-0.0203205467522788,-0.00621143503946244
-0.00646561548925001,-0.0608199631219076,-0.0191008462793214,-0.0057852742707164
-0.000959028569419942,-0.0788386730972514,-0.022429296571265,-0.00412154527122708
0.0152624481287182,-0.0836955307480987,-0.0247209912549651,-0.0032010703618165
0.0410677869881895,-0.105613955145542,-0.0158586699273858,-0.00328684150559639
0.0628875147608427,-0.137677715140304,0.00492964430493248,-0.00302227459231945
0.0585197464186435,-0.107810232940219,0.0263008214489122,-0.001511912664918
0.0223637038251203,-0.0147657913933163,0.0361448146976903,0.00114860545025232
-0.0191539947157675,0.09571278152236,0.030838384646052,0.00394027688823236
-0.0369901625214583,0.191517518183014,0.0191085095312851,0.00550973145409391
-0.0318027609618936,0.229091999825478,0.0106693938073537,0.00530946936609374
-0.0262753964996082,0.219993855409064,0.00109265410039282,0.0039618990809357
-0.0323191190096931,0.222034211043356,-0.0135302164121631,0.00230032115590854
-0.0378684024823274,0.217768256255391,-0.0257506306434545,0.000422924052893223
-0.0280679573710469,0.142459949213593,-0.0270813992048052,-0.00148433244265839
-0.0102833264601083,0.027795087099398,-0.0175867549049874,-0.00259824402499197
-0.00629290358027462,-0.069791217515795,-0.00479867982803653,-0.00242288553529883
-0.0201570716730342,-0.168535186315413,0.00597919203480483,-0.00140464677600649
-0.0270278966528095,-0.253578646953742,0.0117185893129337,-0.000379061636628929
0.00125678031309153,-0.250357585831395,0.013210391622298,0.000104564030160275
0.0558012823770647,-0.194844067858342,0.0208297074972129,-8.40196394660895e-05
0.0866498129059596,-0.193884599524308,0.0358805316696721,-1.04583345174738e-05
0.0684893606981253,-0.180078306971941,0.0386232291442747,0.00154153107867882
0.029302807018389,-0.0630983079752914,0.0204466267510347,0.00344093229834242
-0.00376514784195305,0.0718871430718436,-0.00182097704895387,0.00327883776002059
-0.0265741285577807,0.134038540247575,-0.0177270480376365,0.000813220056171753
-0.040479279493004,0.139586679294734,-0.0343832025814868,-0.00234537788139518
-0.0464451180754595,0.134328394658213,-0.0539086988588623,-0.00515993711106492
-0.0555479457553729,0.122883457070579,-0.0691199749563856,-0.00741327268408607
-0.0737738401345969,0.0742268487518016,-0.0754923659560637,-0.00880058679866049
-0.084823725542316,0.00413779638529302,-0.0731478374823808,-0.00847434244949315
-0.0795811250805044,-0.00809384315537786,-0.0634487215808893,-0.00575514887789049
-0.0607162890774181,0.0390962482311062,-0.0469425750860445,-0.00157231300203351
-0.0332346251521867,0.072775809838972,-0.0235809684690093,0.00265539232527602
-0.00197065081291047,0.058409777016857,0.0116566671536086,0.00700031086028562
0.04428391168936,-0.0181299154804661,0.0611022072343417,0.0121449577641197
0.10717014587042,-0.10299124185372,0.101244444324978,0.0173168897039815
0.149624515871545,-0.095930417077539,0.101754476135099,0.0195739322740246
0.136283025999187,-0.0391966514981355,0.0720654725441439,0.0161398365853501
0.0846088956621634,-0.0446689152812678,0.0415927774382747,0.00797677379872506
0.0336975238105772,-0.0955165074991412,0.0157863641432628,-0.00110797293874431
-0.0117504641925728,-0.115806354412515,-0.00853776488699295,-0.00835897773584946
-0.0509968798139675,-0.105109641292032,-0.0248220335872174,-0.0127669989001017
-0.0660800248775703,-0.0967580622723919,-0.0309104268356249,-0.0141942161347914
-0.0601332158949862,-0.0948634588093906,-0.0303924400022424,-0.0134838870652164
-0.0458749901386986,-0.0679736480145504,-0.0255358012290271,-0.0113209690409196
-0.024486223399758,0.000444712687646856,-0.0230199043382123,-0.00787492341243955
0.00322271339966929,0.0574333398698613,-0.0266864533955997,-0.00427249935689353
0.0282858996510927,0.0733453685685843,-0.0291016187524466,-0.00200512338291046
0.0418066824607172,0.068805766103395,-0.0243055268603907,-0.000986083576017294
0.0493666910805313,0.0728517181737619,-0.0174618274617852,0.000195434551388223
0.0490685120753207,0.13426185396652,-0.0152305388986064,0.00192541814054939
0.0349452911171959,0.247507727143301,-0.0118359162743849,0.00348583527418016
0.0263731592418924,0.309891609655245,0.00196704916926038,0.00483308445114575
0.0379636548831378,0.252416898442688,0.0194953242313567,0.0064473518421408
0.0443367698101872,0.160649553514165,0.0241150839752004,0.00856165755940133
0.0204915073462849,0.144544040425782,0.0130804464880857,0.0103074662703565
-0.0073805545763378,0.171594819583224,0.000551549236845729,0.0100149209863195
-0.00671121635743428,0.142720348474168,-0.00381163240169257,0.0070558143971427
0.007751716337004,0.0269457229251583,0.0013458135545881,0.00254733066649391
0.01100087708754,-0.165421291829962,0.0177444446626533,-0.0011578123779324
0.00118699889135277,-0.352926875431032,0.0356762270561927,-0.00214695799966556
-0.011263715094707,-0.372193533002763,0.0375553727418908,-0.000971412981497458
-0.0171348519146129,-0.255070500528195,0.0263478238319991,-6.3381215085514e-05
-0.00367427428942019,-0.184858563351779,0.0202232068925685,-0.000925180524321089
0.0270305502838876,-0.111562564953067,0.0192676879820741,-0.00299722821828387
0.0218180272069366,0.103421823469116,0.00862833603714763,-0.00492199320116074
-0.0531970564357884,0.345090642648425,-0.0106111318533918,-0.00572082066723975
-0.124363016739521,0.409778906327503,-0.0209919053462862,-0.00506679007243468
-0.102375635941051,0.321094172639293,-0.0156381813574379,-0.0034054324359774
-0.0244542774096185,0.266373878482983,-0.0071967816222846,-0.00176420613577541
0.0111871574415629,0.287170943684262,-0.00892957265348222,-0.000955589617574579
-0.00232755835848215,0.292236551710499,-0.0183974871143512,-0.00088243589306086
0.010353751874019,0.22605606519734,-0.0234905235430552,-0.00089093940516948
0.0786754453934434,0.0405349716624089,-0.0129003459388732,-0.000563907456024317
0.141635848608293,-0.230601540918148,0.0168073282818344,0.000679714500381561
0.129814945079424,-0.414228963616781,0.049458360493654,0.00376021461062936
0.0439810358987423,-0.365268531153137,0.0634050290567504,0.00809965213211062
-0.044886068594932,-0.132735695585167,0.0578281375978892,0.0110203965788939
-0.0719625822516152,0.0647385379307415,0.0416593963139983,0.0102891943408281
-0.043013396605164,0.0880323273590767,0.0209038018582658,0.00591042520522942
-0.0108062848959222,0.0082742310817137,0.00372899528859838,2.5504266305194e-05
-0.000831708815487234,-0.0877021365602868,-0.00492575141046975,-0.00459497385258547
0.00521465355241448,-0.175014715372004,-0.0100956574739079,-0.00659856708358412
0.0135600077901268,-0.205651934373966,-0.0181948655642235,-0.00660487828376833
0.0162276221860286,-0.180280538972912,-0.0250265370940096,-0.00613046601445901
0.0242624944599689,-0.16670981502751,-0.0224145588865183,-0.00590301633728911
0.0266641050710043,-0.191499298838049,-0.013255086170275,-0.00562244067176586
-0.00634005998825542,-0.209272622056281,-0.00726716401692308,-0.00463823034679173
-0.052284480342076,-0.170962124245758,-0.00916607692322886,-0.00264362831547289
-0.068486202062935,-0.0914756422613575,-0.0169431749941437,-0.000431442660177496
-0.0481052592514869,-0.0107367198396442,-0.0175296306084251,0.000974418826595993
-0.0155023348335584,0.0636759778335765,0.000422191947203408,0.00181087765735232
-0.00273746525261018,0.117614023254288,0.0252341347101898,0.00341266762750259
-0.00788589955563241,0.113383587107206,0.0425298327796291,0.00638549695534423
-0.00592682217251399,0.0696714439738646,0.0478743428666488,0.00907930365740147
0.00832331946607994,0.0411131964101513,0.0384486819376393,0.0087385849697211
0.0317625651683196,0.00366630500204027,0.0247624429657689,0.0044283398054114
0.0579143915883749,-0.0684174632979441,0.0192128690166785,-0.00160350315393898
0.0634005969965801,-0.110103053588109,0.0198219181337186,-0.00583838862579521
0.0430332395364775,-0.0828328963060355,0.016082790989653,-0.0064538449789678
0.0228804738496294,-0.0263828310224755,0.00255267878620668,-0.00452862735784909
0.0216808047539048,0.0178731614693894,-0.0111826355154002,-0.00291752457958538
0.0384259158104774,0.0431133215543643,-0.0180599110155394,-0.00396963612028787
0.0521145987745267,0.066211171635591,-0.0197441646614596,-0.00766736746344516
0.0418009713821288,0.0765645259432415,-0.0140648916408215,-0.0111325685957289
0.0224652230246073,0.016903799384118,-6.85832103207648e-05,-0.0104255041319694
0.0230355108795635,-0.129017262014636,0.0134174436919286,-0.00407373808989394
0.0326156422927859,-0.257231841051067,0.019869589040081,0.00502992407958983
0.0240999464337072,-0.234662709885521,0.0207993580223507,0.0119267626841314
0.00990493077654245,-0.089803152314754,0.0110608380819285,0.0133795224942723
-0.00120460442455137,0.0422014497740967,-0.00939312468633352,0.00920597336514923
-0.0164156824248477,0.0893596452158879,-0.0245045560083594,0.00207192614010264
-0.0281474076148368,0.0600379398484913,-0.0263207776330628,-0.00401633255005628
-0.0398702314327842,0.034647550742588,-0.0173371989431142,-0.00654495410516758
-0.0495815684221343,0.0541384789861533,0.00618696182652295,-0.0053045187236971
-0.0415306095536113,0.0736485914515127,0.0419026160560746,-0.000981236399631795
-0.0172396963600735,0.0646712476081325,0.0670781571512784,0.00502173424594199
-0.000653240842354456,0.0708336640885078,0.0594582600852112,0.00980286204823967
-0.011231477675863,0.147475545727138,0.0326055777068605,0.0107733395994606
-0.0321450254215521,0.208675200202784,0.0218136971827471,0.00822136224147805
-0.0370347361836904,0.165503205003986,0.0285942872124924,0.00496926864878618
-0.0303510154700394,0.147363407054198,0.0254337074976382,0.00262237710936579
-0.032132185636432,0.277149577577927,0.00479170489143673,-0.00047546963566667
-0.0497174172377354,0.444129538765116,-0.021841373608478,-0.00567359163081905
-0.0691157148692504,0.501241553784253,-0.04520900317912,-0.0117140140967213
-0.0697005573266375,0.436755305269411,-0.0598390798998602,-0.0166711369044066
-0.0606223354845617,0.307976266959287,-0.0681915148679354,-0.0193716497006712
-0.0556550280934673,0.18067297156268,-0.073914003636621,-0.0189283887723882
-0.0365680851416777,0.127101867420447,-0.0738262523301056,-0.0150352673339247
0.0165641451814283,0.130183241301254,-0.0662667437933405,-0.00922936801417737
0.0960894209224907,0.0486865118053909,-0.0501040342617402,-0.00361036008713883
0.161210084268128,-0.148367887882955,-0.0250974497529836,0.00130207823598518
0.14789004440712,-0.267544688056947,0.00185114383934426,0.00598174316191528
0.0648809298181174,-0.235574265037899,0.0285733586042418,0.0107248351839058
0.0224710140279234,-0.205414233382723,0.0569916290220356,0.0156519749936312
0.049815820830735,-0.182204053128586,0.0715977196867817,0.0194330095691939
0.0734947455311616,-0.0923290713864618,0.0586304005803819,0.0184648739306835
0.0544012286280435,-0.00926377139882076,0.0340072763171633,0.0115664402141113
0.00240003834079414,-0.0786618203678717,0.0252871663186549,0.003517458664895
-0.057651777680591,-0.318772081239003,0.0345716873298731,2.99909331287727e-05
-0.110686646484223,-0.462140121125114,0.032989977882479,0.00149156419747759
-0.154555227895348,-0.283753714746575,0.00247615698133152,0.00249191148526397
-0.159814936791773,0.0113673085393992,-0.0398352261639058,-0.00271398486954286
-0.0993096377582624,0.119903754500719,-0.0639555312859596,-0.0132702400971641
-0.0151248472411229,0.0892738944218203,-0.0616879413111485,-0.0220375633631612
0.0617389329121002,0.110444165268282,-0.0488754896166323,-0.0227512024317593
0.129793164847822,0.194881768201471,-0.0347880166574274,-0.0150986493373936
0.152971771469662,0.255569809701522,-0.0122979376338941,-0.00316067577398295
0.116989314475427,0.240380071523526,0.0197922944333204,0.00788152247466902
0.0567797810169697,0.16192985016863,0.04556405608655,0.0132508690740614
-0.00816065571111671,0.155209595610227,0.0512519960195843,0.0120142162917191
-0.0900719486061443,0.256883661160679,0.0423116901314961,0.00949035619367912
-0.162569947502825,0.344780255807672,0.0235199553052923,0.0129690963331054
-0.161818375819262,0.410536958702491,-0.00707980250729683,0.0208453099570225
-0.0869470156895971,0.43655762399854,-0.0389202403684032,0.0207176380907146
0.00135883824559296,0.380304968962221,-0.0589938261142922,0.00652455571268189
0.0516705020512087,0.314361776026828,-0.0659717106453993,-0.0125884141855417
0.05759757909879,0.189757411171557,-0.0605666676973606,-0.0245063568971642
0.056826621367619,-0.0786742408889907,-0.0394344348766429,-0.0244875434231616
0.0867265767692202,-0.416548386835509,-0.00489721720747018,-0.0154736086000198
0.14908466176996,-0.803710771993224,0.0364666334102365,-0.00386749673425611
0.184907161307416,-1.19612925041072,0.0785235151958178,0.00634331025348925
0.131857030494468,-1.27528809252337,0.102525568907344,0.0149228715589532
0.0362136024219706,-0.821820545564654,0.0927993711215379,0.0211607515213017
-0.0154180539959321,-0.182632750745011,0.0613870891496969,0.0223399464953032
-0.00599985208404923,0.182043029305748,0.032091779547151,0.0178772592670705
0.0367168130672134,0.25489593050913,0.0207437935937968,0.0110342499035989
0.0497071050056157,0.236910106898872,0.021936741003058,0.00580219626002718
0.00365248600786661,0.215732317125243,0.0229868648263085,0.00419599766550265
-0.0373080512199608,0.195109511442671,0.0237514297113029,0.00511536939968159
-0.058751450504178,0.165267247211958,0.0181945816150691,0.00547410303557925
-0.113710854803358,0.130401677922675,-0.00626478005668917,0.00357759721130147
-0.168097137395572,0.146540149648276,-0.0411001134731368,-0.00014256994804847
-0.150055341950063,0.172906862535987,-0.0612498577131586,-0.00515473383457947
-0.0587255521159773,0.0907880481270534,-0.0515631411642933,-0.0103601015725877
0.0356960782255833,-0.0336283834871118,-0.020214946437585,-0.0130038735318403
0.0407496737081357,-0.0552359923062148,0.0157763681057702,-0.0105929466446063
-0.0223940737589103,-0.0282114328651291,0.0454340523922676,-0.00326411026921041
-0.0422375890473587,-0.0610086151882969,0.0577049422924178,0.0053084421576466
-0.00141115546353857,-0.152269644213561,0.0488582439680396,0.0106536938559065
0.0421636306776146,-0.260219679695408,0.0322807930293056,0.0123887136912659
0.0787639678278305,-0.278840964347944,0.025943227530424,0.0127617892648012
0.115806563589602,-0.145297095305788,0.0282147935750591,0.0108001624565989
0.104837263294796,0.0104179137929939,0.0225173742382532,0.00345868380430398
0.0310615216535656,0.0815620113866246,0.0111386048821844,-0.00770753435732281
-0.0265151082611531,0.128917332799571,0.0100623319943859,-0.0168529061457367
-0.0322299441372415,0.192706626435844,0.0122867904593657,-0.0199999110181023
-0.024680033079896,0.227395984068561,0.00256457986475286,-0.0175994264093858
-0.0119179981025503,0.173990801311301,-0.0127674271405374,-0.0129324102250956
0.0298774390151654,0.0236965568678414,-0.0197774464701115,-0.00924228076400689
0.0926853199789985,-0.173388292843289,-0.0158922515000303,-0.00757649249603664
0.118110925547311,-0.390238554252128,-0.012947912614967,-0.00640701330412456
