-0.00269230474174048,-0.00185249506350307,0.00416516817972045,0.00384781490105304
-0.0136654535826694,-0.0074659288126763,0.00541435186487728,0.00115294041172774
-0.0136568854704631,-0.00175706357982101,0.00144469733168697,-0.000370337476204013
-0.00276830673490919,0.0105451122616977,-0.00690118166435058,-0.000742739961669169
0.0043386980256826,0.0195792803448795,-0.0136238674410996,-0.00121967656137163
-0.000551299163641727,0.0207788521070057,-0.0141024862637382,-0.00222187813626612
-0.00815884819584477,0.0102485389371493,-0.012386968524879,-0.00298810842083293
-0.0165921191850986,-0.0077412407455072,-0.0133667364352301,-0.00282890685669388
-0.0301777070833507,-0.0189576665434252,-0.0151799106590788,-0.00193583280123288
-0.037785611630464,-0.0186747258538397,-0.0160994087530055,-0.00113409953175895
-0.0288389578282721,-0.0120390416375498,-0.0157100034712627,-0.000814125641750566
-0.0148781427915677,-0.0023015002608887,-0.011651988055547,-0.000609569408723917
-0.0110094538384261,0.00636453507356603,-0.00506253130477041,-0.000262301745501753
-0.0122968302642835,0.0098420094849159,-0.00231193198508924,0.000163016578739816
-0.0115225202618367,0.00736792406728539,-0.00496771344870499,0.000294961588427247
-0.0111559516708792,-7.52023253766096e-05,-0.00601321454196295,-0.000208121046080383
-0.00919612260987865,-0.00801334340797484,-0.00293955072034061,-0.00108350323106831
-0.00702498759334435,-0.0143942603513035,-0.00148026441814779,-0.0019429977283281
-0.00853946749319594,-0.0186484149423757,-0.000597262812960613,-0.00255922788127395
-0.00621482094930958,-0.0162682359789653,0.00356203587259172,-0.00277517130633946
0.00678044401701119,-0.0081557613824762,0.00616567676377473,-0.00244697160857606
0.0185603695335651,-0.00412374162308226,0.00259451862307074,-0.00145173671948505
0.015695165108186,-0.00801974045720585,-0.00256761567779591,-0.000427938827527315
0.00274207685161863,-0.0116431529825653,-0.0040073780887441,-0.000235435644612921
-0.00858320720735048,-0.0115993509784236,-0.00400430654406792,-0.000560166044450764
-0.00730083266921121,-0.0119434219350541,-0.00440589167229044,-0.000836532462675219
0.00934591228563768,-0.0140013306455236,-0.00356423136163293,-0.00101619894736983
0.0285018376875646,-0.018934435223289,-0.00299127829165298,-0.000948850555597741
0.0368678788366112,-0.0266805357419235,-0.00450039670709552,-0.000766441927722498
0.0359181661932179,-0.0332601241815753,-0.00534077088137293,-0.000845532471750329
0.0275321210860207,-0.0326871257167396,-0.0046033377933573,-0.00129320763312642
0.0138389931752356,-0.0234570708727489,-0.00456261486897676,-0.00207225487690331
-0.000731573536699524,-0.0115083373059395,-0.0045855030339583,-0.00261533721615573
-0.016157846616605,-0.000116710283368661,-0.00329561410292689,-0.00247392520907513
-0.0250762364975798,0.00450217126551753,-0.00301115061276113,-0.00202481034091328
-0.0243941792400046,-0.0036525543863749,-0.00588981699153939,-0.00198956182432704
-0.0187565675978466,-0.00329495482084131,-0.00534439317865473,-0.00259507651531609
-0.00916927564426753,0.0203631129906506,0.00612671659663263,-0.00191058420019815
-0.00228115041201721,0.0356313428295588,0.0156386602905229,0.001856204898293
-0.00222012133346256,0.0227663450491506,0.00933508323661245,0.00639537100778951
-0.00426516249319295,0.00135287096040258,-0.00339658981698401,0.00787179378260525
-0.00789137595705931,-0.0107903693732273,-0.00893159054946086,0.00514725778669158
-0.0124076417978323,-0.00610477271903549,-0.00132147041308667,0.00031670969687092
-0.00910251340943904,0.00967013935912196,0.0127194290576047,-0.00252017952815883
0.0054816619268275,0.0100913464284405,0.0161415487562959,-0.00105078994817795
0.0223588826935711,-0.0163832386768804,0.00643049717720733,0.00238375144939755
0.0357202699796821,-0.0418849746978397,-0.00413723409050042,0.00421128566254673
0.0450457462871539,-0.0394448099969157,-0.00667535773659132,0.003746872776686
0.0415751529807211,-0.0184198616250678,-0.00224967320907023,0.00234414888911662
0.022897375090028,-0.000754474880763141,0.00124353561663143,0.000987618440744731
0.00477246845617738,0.00613811559491777,-2.22229167712556e-05,-8.02977264551426e-05
5.82393521353919e-05,0.000607184612456073,-0.00384880248342465,-0.000884206427288248
0.00317628316982366,-0.00742493781379776,-0.00674177801808942,-0.00151548319250101
0.00594954503490343,-0.00338912068076975,-0.00762025256689839,-0.00193484309354351
0.00843336226541472,0.00537918449870304,-0.0076835283037756,-0.00185565180778966
0.00307805800508223,0.0079102535714573,-0.00565977468879957,-0.00106155656411981
-0.0152994503837898,0.0102249953128187,0.000277962812263064,0.000255362139171839
-0.0330117679642806,0.0184519571329975,0.00782358063970554,0.00161238988786295
-0.0356023781658712,0.0234828111776348,0.0123944412897136,0.00259300640301658
-0.0264694572296805,0.0160003891692087,0.0119140761040205,0.00307486881231944
-0.015086605512282,0.00291473432677615,0.00742443175193014,0.00312805661776918
-0.00581047887408606,-0.00233341648631185,0.00253811411366081,0.00294085711429572
-0.00029146047433877,0.00220062711043033,0.000687711837779789,0.00247955025481305
0.00378452406334476,0.00711871857118558,0.00154313384152761,0.00185875144750622
0.00803992392678718,0.00878578811554097,0.00392050766519478,0.00161641341652542
0.00862824867164344,0.00959510535679903,0.00581394549332177,0.00176563475361379
0.00478960465480158,0.00747172591068366,0.00595133322126647,0.00191229747368206
0.00458072287944438,0.00312015377943047,0.00426889968342621,0.00188408683913712
0.0100372877432815,0.00044650456639094,0.00171078850961753,0.00185307366536664
0.0130810853234061,-0.000755334797592128,0.000691740774017124,0.00201822153924622
0.00622442121002378,0.000724005358261533,0.00189728765618323,0.00191748201134609
-0.00673130318495049,0.00393345494101729,0.00479068493831309,0.00107393857287426
-0.013805627299799,0.00209813463025084,0.00595141847030035,-6.50856226238313e-05
-0.0136479461104836,-0.0079648125937614,0.00181786694685621,-0.000948799658409643
-0.0121740348855737,-0.0178864669163776,-0.00424619596708397,-0.00151247039402724
-0.00998812194061296,-0.0168684574940341,-0.0053011252510937,-0.00165481072351644
-0.00475051807156257,-0.00930562069354064,6.0900354347625e-05,-0.00122697974519683
0.00131089948459439,-0.00708113321152461,0.00639115898996627,-0.000360673386921597
0.00480040086529867,-0.0121448630367888,0.00940989432896045,0.000495620499067613
0.00821728325285107,-0.018385573341271,0.00776923712274315,0.00101413860602273
0.0115568350166367,-0.0169859018777426,0.00359902970497587,0.000901258673406878
0.010395737716198,-0.00381191768116758,0.0025673799088681,7.14883125671874e-05
0.00494534462134689,0.00894545185805042,0.0031034016189882,-0.000639369695938033
-0.00303161571804724,0.012519015612576,-0.000628898702649807,-0.000725777440319051
-0.00724891187655466,0.0124953146862657,-0.00405589748685418,-0.000825091741756394
-0.000787602627331866,0.00809087200963758,-0.000949230973307359,-0.00127318633308633
0.0109486021384921,-0.000833346707389594,0.0041443204283773,-0.00167680671173515
0.0195585713945087,-0.00386495245277386,0.00710242395780338,-0.00141387205222687
0.0175195685323413,0.000610061034069115,0.00518962734062137,-0.000327356973293567
0.00319332325980663,-0.000592524864648183,5.09650402897937e-05,0.00035235460894129
-0.0136995086504264,-0.00684873726781272,0.000815932571971983,-8.18608014911118e-06
-0.0224271055367115,-0.00227269996201499,0.0061420802368116,-0.000388377585255332
-0.0182068441879375,0.00716915100149534,0.00931165593253476,-0.000658067065555807
-0.00722398765015553,0.00640076344927356,0.0101196737025615,-0.00130230311958733
-0.000828901607309328,0.00345662853747597,0.0114192365607505,-0.0018647948484953
-0.000416047323525921,0.00932479072292047,0.0127881616342746,-0.00178245287895279
0.000664588727740128,0.0161870982289579,0.00606437430936567,-0.00139090190639144
0.00495523146607462,0.0123602256813302,-0.00581584570563298,-0.00165812730186871
0.0116895268150628,0.00118689398540067,-0.00555049926399689,-0.00259721548890011
0.019117912872444,-0.00603920823118859,0.00548842339650972,-0.00287129049433833
0.0230184330919476,-0.00668273403257201,0.012269332320491,-0.00166699408287996
0.0200859217883572,-0.00857228262632931,0.0105448373803308,0.000313571354951176
0.0132228576130523,-0.0148926136487404,0.00392937647565078,0.00171808688836974
0.00735764358510668,-0.0138958828726329,-0.000485187657421809,0.00166031621997535
-0.00233911479034807,0.00116108401899917,-0.000812048966802504,0.000358083457828055
-0.0165850068086003,0.0188261078459593,-0.00325004602561533,-0.00130777345266556
-0.0239084372721888,0.0302541701984677,-0.00623059512778694,-0.00252274288660553
-0.0231466308339996,0.0331787295514923,-0.00179643786099709,-0.00281494574392435
-0.0174967697391669,0.0209672110183739,0.00240506770963536,-0.00230276838921069
-0.00566446621228016,-0.0034152893681326,-0.00303303869519514,-0.00170982375129767
0.00332921469424797,-0.0194796775200551,-0.00579015436397757,-0.00179948425093155
-0.000248354409882913,-0.0170637732468837,0.00378390156249797,-0.00219922131446387
-0.0119221534735208,-0.0114318363491315,0.0162546421614458,-0.00175088984914757
-0.021248208802674,-0.0114621598025858,0.020922387853149,-7.22579625826215e-05
-0.0260317792575364,-0.00679708137065701,0.00878353302485656,0.00161656380385725
-0.0299650765127169,0.00416047612600437,-0.0076435110439494,0.00100742920806411
-0.0278988873020541,0.0189773446217979,0.00275422927008014,-0.00126064746026703
-0.0163209046103077,0.0376913483918025,0.0272106996669331,-0.00090608353932198
-0.004689902451297,0.0409542256671138,0.0300435018239544,0.0028220768282154
0.00386483238336096,0.0250484023541036,0.0150658328821166,0.00531368922216275
0.011209895956029,0.0154173705248595,0.0064412144735522,0.00394986311254097
0.0119120882779381,0.0169717764124059,0.00716616644142291,0.0012242433436296
0.0064583724086134,0.0126478853666966,0.00618955355612481,-0.000170992348122543
-0.00097261361466791,-0.00138589885059708,0.00426521139330414,-0.000355929964523146
-0.00717645643649276,-0.00847908452594466,0.00343472121716534,-0.000117594809193952
-0.0044848914055281,-0.00401916738701612,-0.00181147759118941,0.000205971584689113
0.00909932382122097,-0.00333997828089992,-0.00754871242749198,0.00012032809811666
0.0151936652586377,-0.0111792383278947,-0.00509821667825645,-0.000350340564476332
-0.00478092087777091,-0.0142622095012796,0.000641666376697501,-0.000493999142966235
-0.0353182269970139,-0.00200539649799173,0.00407559622001044,-0.000202721377975882
-0.0502487569873115,0.0183359225712425,0.00746557518018119,1.68587123282766e-06
-0.049463884028373,0.0304813638603641,0.00846581912129277,0.000177109327504538
-0.0475348858421856,0.0295657794786181,0.00501271985957653,0.000477639997012088
-0.0481895646718814,0.0198220796834483,0.000385742518128403,0.000456512966792122
-0.0467940089364539,0.00257859996689541,-0.00184107281389426,-2.96728433973439e-05
-0.0368348460525477,-0.0116690658164609,-0.000619812186228052,-0.000508678033448042
-0.0160068976603644,-0.00580012906198139,9.7121757820182e-05,-0.000379709125100481
0.00341142065915694,0.0109922970274947,-0.0017562102832266,0.00026464754112078
0.00677183903014198,0.0107219596293233,-0.00313672027479351,0.000492408085944162
-0.00431895151675539,-0.00713720205655077,-0.0034371978481956,-0.00020583448963438
-0.0104952960767307,-0.0116460710878017,0.000882961335936516,-0.00128596461473147
-0.000508722140189461,0.0116074971046311,0.0097491803001608,-0.00160138826320031
0.014864048668325,0.0352111002799084,0.0121784401403138,-0.000608942548801884
0.0226431466554138,0.0312242165723797,0.00586496304414841,0.000959071858780264
0.0194302375940284,0.00317256531901436,-0.00405387006609384,0.00215493855730627
0.00573521000616125,-0.0263248622409282,-0.0125834985378746,0.00231484610334589
-0.011331106267693,-0.0377174853699138,-0.0129388828444501,0.00135890720339731
-0.0193927981368954,-0.0303817710544765,-0.00633490256746031,0.000186518886853098
-0.0156477163855321,-0.0167855028052743,-0.00187714450346916,-0.000533158833492724
-0.00851646385911131,-0.00466366021257145,-0.00376345330504339,-0.000984409869500644
-0.00507616217316176,0.00457433356864361,-0.00818792552914643,-0.00155662783315498
0.000859561171366662,0.00811764179848528,-0.00795919089772106,-0.00220444362664115
0.012089957662995,0.00223593696987482,-0.00186104093267126,-0.00236057258547379
0.02208246141654,-0.00733648731872447,0.00108287978433333,-0.00194611886139428
0.0250772560992745,-0.00646490733579049,-0.00180803728177374,-0.00172609298452874
0.0163433793374226,0.00298264973153835,-0.00472054492903709,-0.00218962429539708
0.00536500255586842,0.00775640531323427,-0.00830544373267803,-0.00278222415093105
0.00519119660661152,0.00851390326692207,-0.0138376104314418,-0.00257577413987955
0.0164118632393889,0.0117762686981297,-0.0167761137123702,-0.00161877684242867
0.0313921510822028,0.0136196683578115,-0.0149458323282947,-0.000770275374268687
0.0373334498514123,0.0122233966601387,-0.00980468462319963,-0.000276379413421044
0.0309676515277102,0.0126900054464001,-0.00549287541117752,0.000128864350983339
0.0207832103289057,0.0132931408457667,-0.00497412559229393,0.000507340162121674
0.00734156048770267,0.012931229480745,-0.00634875648203262,0.000749915345170065
-0.00625532789964404,0.0167101824483217,-0.00711968942516863,0.00104050009029636
-0.00569544409905957,0.0207921967839627,-0.00693397620452495,0.00172512079854302
0.0103685118963511,0.0131510561354464,-0.00975334675616033,0.00230825849993893
0.0263429479018247,-0.00600409248284362,-0.0165376668849321,0.00177082168756424
0.0326945917965005,-0.0197583855737627,-0.0184272496991816,5.42329354142599e-05
0.0349663636468335,-0.0189315943577002,-0.0111536047506378,-0.00114784302342258
0.0379735198026425,-0.0121721362499378,-0.00307376315893071,-0.000399015434824794
0.043449755244653,-0.0181923305630254,-0.000616703691948023,0.00130844767176711
0.0484045154952208,-0.040145532090421,-0.00183025073412358,0.00232011779265706
0.0433795259125892,-0.0464882895939943,0.000416791956488955,0.00228929433671989
0.0298755793971478,-0.023994753677599,0.00787602438829593,0.00180962085925347
0.0201811742016914,0.00278353917023547,0.0124624912893805,0.00136427904546421
0.021435290340472,0.0185820768650612,0.0141504394554958,0.000957700857592369
0.0261036379281578,0.018328895841678,0.0139998445401794,0.000675030228563734
0.0199710154209445,0.00395372767377537,0.00699637605161375,0.00040689420789779
0.00620094951275381,6.94030582657958e-05,0.000737764736094965,-0.000528362365484907
0.00493838167946337,0.0208249261768099,0.00624371849074533,-0.00152304415466046
0.0239087736003904,0.0392247651187892,0.0172928035619035,-0.000168315932020887
0.0509587697588498,0.0227262124244939,0.0154159483728584,0.00353674076642316
0.0646670561650729,-0.00983238126961315,0.0004833945714608,0.00557833869356823
0.0544491529931785,-0.0195241360822389,-0.00565963845737625,0.00378052852596222
0.0304578823515344,-0.0106838497212416,0.000258519261426206,0.00120767684689368
0.00313172768235646,-0.00450560373388433,0.00362918540059319,0.0008736086095089
-0.0190928737591005,-0.00950410200830594,0.00112269913329996,0.00166337940057285
-0.0256722277681818,-0.0194241112635802,-0.0033774772519602,0.00158006467573298
-0.0140921812587694,-0.0183176167908812,-0.00520686435852726,0.000563664068724767
0.00404437105584359,-0.0109263535933502,-0.00130430439340664,-0.000350283701916253
0.0127541913804373,-0.0130582009058457,0.00587061961353907,-0.000328385537685463
0.00700407517711511,-0.0186426407680347,0.012113135306346,0.000316464354381046
-0.00642964076737725,-0.0163069825962833,0.0161871600996734,0.000589808372247793
-0.0171438091902066,-0.00806733967028914,0.0210650266968314,0.000246472635736136
-0.0204035431191051,0.00126600869147441,0.0251745141877996,-0.000133879945517921
-0.0175269105357055,0.00910238715125978,0.0244932189704955,-0.000412315706103389
-0.0132140547436612,0.0116399101846781,0.02204095477248,-0.000688935517715204
-0.00907918921630414,0.00959967059217915,0.0213902889043296,-0.000659925043757221
-0.00639716112477226,0.0104492243198102,0.0213976943733309,-0.00036230745901369
-0.00921500331572375,0.0123801792811993,0.0192068697589399,-5.64302699797531e-05
-0.0121151049662529,0.00573655900496588,0.0110938164406772,9.22491712134661e-05
-0.00815694012576763,-0.0100124377780253,-0.00105220058932014,-0.000422412890047856
-0.00140718113271272,-0.0281920108725389,-0.00789954412367201,-0.00194744544071235
0.00270705430357865,-0.0404745784639717,-0.00624209679049541,-0.00397086423275484
0.00605451250026297,-0.0332533165705016,0.00154306754499054,-0.00526114922690754
0.0116422608217099,-0.0106377918907946,0.0119523136644319,-0.00411386486577994
0.0162363300767272,-0.00542541448679285,0.01507602641768,-0.000151877720674178
0.0153575141451969,-0.0249136933853083,0.00638663244408718,0.00387225408200279
0.00848772512133603,-0.0400273190972688,-0.00461186101945607,0.0048666649068936
-0.0022000921477266,-0.0339023322598087,-0.00849781197521484,0.00284198085681305
-0.0166954423935187,-0.0189633009189432,-0.00831962257884445,3.59369194003357e-06
-0.0388424362651669,-0.0149011542670489,-0.00755369472926563,-0.00225231885141953
-0.0584887837828644,-0.022175550104891,-0.00477566709170976,-0.00396522402391713
-0.0567557448332944,-0.0244498811812538,-0.00305885106889378,-0.00510253038548928
-0.0380713760672338,-0.0139376539563823,-0.00397443793969621,-0.0055224764869889
-0.0224836464299852,-0.0020114349120228,-0.00546276083831543,-0.00520808886911464
-0.0179204354968341,0.00680246341836206,-0.00243984933307783,-0.00417013078891214
-0.019130010575586,0.0193827725990935,0.00761589071120923,-0.00240226828058122
-0.0191891003005462,0.0323070217189574,0.0184543620939647,0.00010632502087887
-0.0159854076903018,0.0378312549682222,0.02165975121164,0.002710823372617
-0.0119635313455303,0.0353033297739838,0.0116844709363771,0.00422419187339122
-0.0072191629450268,0.0254672933264656,-0.00560228450864617,0.00369571679533515
0.00316340436459112,0.00869373136002054,-0.0159725154823737,0.00118914563713779
0.0137055211714735,-0.00774167482742697,-0.0154691916347713,-0.00168939531592152
0.0126962839163968,-0.0176222048455684,-0.0103986028238,-0.0030965019329251
0.000654018000288567,-0.01933073038536,-0.00912343969029255,-0.00291887291327996
-0.0168099608458257,-0.0107962417333253,-0.0150109035554103,-0.0021420409018668
-0.0272886551992121,0.00117353601044744,-0.019843759574593,-0.00143112634913998
-0.021369998573033,0.0059249657604724,-0.0176429411321449,-0.000746721339812703
-0.0115169582718614,0.00113167731221593,-0.0143497420619214,0.000246432565893079
-0.00765631493298719,-0.00411325194966322,-0.0134689571877314,0.00123649446258047
-0.00563051055807652,-0.00319235911602451,-0.0115376572376458,0.00183253942078581
-0.00374768016569276,-0.00348662772345094,-0.00804150578522203,0.00222347411468527
0.000978066330883383,-0.00994124199523315,-0.00634536309573956,0.00251055815464278
0.00496394870127568,-0.0207917864508848,-0.00769019535145323,0.00244623667894148
0.00144315074751609,-0.0309412306768326,-0.00982621187132428,0.00175312146064732
-0.00293790436413524,-0.0332457431753216,-0.00974725634374851,0.000748948308626386
-0.00624301456289409,-0.0274868285388904,-0.00780608617771557,0.000447244457445221
-0.0129090529434527,-0.0167861331561022,-0.00777054922923602,0.00102234149462701
-0.0170137734775407,0.00200247527195863,-0.00810753975420351,0.00142277921200461
-0.0123506314675431,0.029079524405932,-0.00472271503853643,0.00137791223712896
-0.00574025234291984,0.0532065982917013,-0.00254027353753306,0.00160607469646642
-0.00448420551735662,0.0612670951270505,-0.00286332058791003,0.00202930862350087
-0.00530231081911677,0.0531633338047763,0.00155002026681224,0.00192930427304864
-0.0045095687098837,0.0419199598257178,0.00569294073521786,0.00147985423702824
-0.0035837860371731,0.0357506200720711,0.00298636984400673,0.0011844656759422
-0.00178542636444582,0.0301423518146296,-0.0044918302645377,0.000755978617823472
0.00327118171741405,0.0179007132735335,-0.0149214386836475,-0.000107965500973955
0.00635741127564574,0.002153726785452,-0.0217050996414321,-0.00137587186987156
0.00290112877337919,-0.0116518598680681,-0.0198787979367351,-0.002439306505962
-0.00170973144994276,-0.0275709031664967,-0.0146511371972802,-0.00218716876379643
-0.00171601058161014,-0.043970235080225,-0.0124227022767685,-0.00069786439196964
0.00379793986411109,-0.047839353499762,-0.0130714005381777,0.00112080582762136
0.0115132842593839,-0.034997197683659,-0.0131805537040972,0.00268748815399272
0.0178539055674123,-0.018266804517967,-0.011076759232711,0.00342271984469631
0.0199775032500838,-0.00990259771912418,-0.00830749514854884,0.00314870904666611
0.0163249464163436,-0.00793719525380326,-0.00661218134623084,0.00231354273122139
0.0110724653591669,-0.00450613173932707,-0.00651716644692395,0.00132357772333423
0.009440827054346,0.00317704063643417,-0.00927616278941678,0.000169188056760561
0.00900072723672208,0.0114803400576863,-0.013710310098173,-0.00108383121946297
0.00420432853722344,0.0134654081376926,-0.0156651019077897,-0.00199672330121469
-0.00359730761394482,0.00448847286222796,-0.013787859718165,-0.00222070143925091
-0.0115503938508634,-0.00804779676897078,-0.0109471226086618,-0.00169883787054471
-0.0207121895915232,-0.0110294470549073,-0.0106498403612587,-0.00062907926635108
-0.0282841796273077,-0.00441032485997507,-0.0120951745936827,0.00045390913170034
-0.0297437608651706,0.00293088019388028,-0.0122851088860936,0.00114900750990857
-0.0267409596151367,0.00562534684464707,-0.0127990083409358,0.00135316748729585
-0.0212113019257336,0.00320748726619538,-0.0146165544853084,0.000976635233351956
-0.0136714038813521,0.00233969418032016,-0.0149040665164402,0.000399045662342529
-0.0100890941271801,0.00765359853969628,-0.0129156449966534,-0.000143989557194382
-0.0119041491970739,0.0136046363602966,-0.00898514584457552,-0.000945380954056915
-0.00957196365178282,0.0164696563602474,-0.00548683175903967,-0.0017462102288581
0.000440352608999633,0.0172297774603566,-0.00512821629472788,-0.00216770878106398
0.0126260220023151,0.0142633115462224,-0.00454795211490081,-0.00222979349806451
0.0272146624744435,0.00486008830497625,-0.00203764147933395,-0.00157012943650289
0.0427151005951254,-0.00832824711120514,-0.000739431279298243,5.63409509665475e-06
0.0413080521167775,-0.0158424822398645,0.00208240574807095,0.00177546798704206
0.0175913216473034,-0.0105252132486305,0.00859636218390962,0.00299527331752433
-0.00956090727348955,-0.000409418358722408,0.0108437122336986,0.00344780358575536
-0.0285940261244337,0.00224677323604623,0.00696994294723138,0.00322777834507504
-0.0383873934974303,0.00142936157663215,0.00407993352141179,0.00234852196099478
-0.0390163284070242,0.00577153548344082,0.00350073895717999,0.00093830939078815
-0.0342333100053617,0.014626180351072,0.00180259939618141,-0.000477207802236781
-0.0262925175061889,0.0294959324293543,0.000173396267812077,-0.0016487772803352
-0.0165264732023843,0.045291929005926,0.00282306152854477,-0.0023649797031758
-0.00462068196302731,0.0463053083851385,0.00763168751819544,-0.00209563000103788
0.0147907711984823,0.0323717200197384,0.00931601370086157,-0.000568173074040499
0.0386051815007607,0.00485519359971653,0.00779476885810711,0.00172601538166676
0.0476783714286353,-0.0342359205643934,0.00655393497835798,0.00309663450694042
0.0324967898904307,-0.0532320564962058,0.00881715418918233,0.00209902536280579
0.0103158384580762,-0.0341039672649603,0.0118149593380337,-0.000442358490349959
-0.00181803511879457,-0.00822261109076576,0.00948617058354731,-0.00235655668328685
-0.00735916889445126,-0.00189807294538454,0.00271031343232227,-0.00243145925779025
-0.0119436786809858,0.00218026210037225,-0.00156692206485503,-0.00122929347652405
-0.0123098958131827,0.0198613730563616,0.00239548848801258,0.000141680239066989
-0.0088426156166288,0.0325190496309652,0.00633140406715457,0.00102801413221524
-0.00777557630213377,0.0280461756516787,0.00162721482671754,0.000753100097378112
-0.00830452203273973,0.0218822295358084,0.00113569146127467,-0.000796826243195415
-0.00482228750662162,0.0227541922489235,0.0129265165099292,-0.0019695996153978
0.00392836703288855,0.020947529450217,0.0241464443974512,-0.00130127290248637
0.0165867714720202,0.0121113876231555,0.0262757089904949,0.000487348347661009
0.0223702038484836,0.00529387663305921,0.0243021954661441,0.0020425769920617
0.0175640474894396,0.00698138304909013,0.0225375797039229,0.0027371311668984
0.0158391407187463,0.0101458724598906,0.0195697361495148,0.00267577179639235
0.0217181243014234,0.010986008982505,0.0151837653288771,0.00252161313491147
0.0253536135769718,0.0133090932218847,0.0116975978855562,0.00239542392338359
0.0216861389946819,0.0176514313181522,0.0106259822133148,0.00180826253064432
0.0199142426595495,0.0221239831713354,0.00992525992493613,0.000754075158911294
0.0288981478300804,0.0163512618462339,0.00516919567535157,-0.00042676328087538
0.037742224220602,-0.00192747029894035,-0.00201520337809436,-0.00168680472369752
0.032169994318756,-0.0128497712593116,-0.00374502853915744,-0.00321479552329195
0.0159013270285091,-0.00656389302372376,-0.000931442390013668,-0.00480570395437788
-0.0024676077633351,0.00299528668931384,-0.0013695297885496,-0.00601012235250806
-0.0191298997769663,0.00516333360199961,-0.00257076748319782,-0.00685037780435469
-0.0273974599060117,0.00198176524134332,0.00145907047911541,-0.00690737834882259
-0.0205999267597182,-0.00598649151399598,0.00598420295154105,-0.0048661973979882
-0.00455635111632685,-0.017860375755344,0.0019654635389557,-0.00134612663195418
0.00839676672608296,-0.0223243608484528,-0.00521923599689042,0.000679290226404813
0.0131662630398749,-0.0114445956208399,-0.00044874155318353,0.000182080590912883
0.0116105712962105,0.00413520593599985,0.01166365877349,-0.000474916945875997
0.00682433157989414,0.00972918018204108,0.015362105297219,0.000354659675432932
0.00152417096482505,0.00600467359424765,0.0129451859868065,0.001525981962775
-0.00424244607833753,0.00193204628739473,0.00922134812886893,0.00197779084752165
-0.0104584757296865,-0.00450259832961815,0.00367573595596435,0.00167062093180702
-0.0138655436113873,-0.0153614357989296,-0.000607995656075999,0.000593253390543899
-0.0107669196586324,-0.0219789264671339,-0.00661218095137216,-0.000915915575408106
-0.00134634418695283,-0.0235630062355968,-0.0149923933151565,-0.0023346149893051
0.00760745901519889,-0.0206046940975364,-0.0179093546162747,-0.00312798349407984
0.0129061629888968,-0.00963178599815265,-0.0126127516482082,-0.00281542585023915
0.0160193253599871,-0.00188543105790238,-0.00696240920163889,-0.00175641965808102
0.0146673402994474,-0.00745594657513959,-0.0063773246705019,-0.000915348842214862
0.0110978913091143,-0.010892865340602,-0.00690118419184606,-0.000637803862881479
0.01148066510471,0.00059590387718271,-0.00599096376828707,-0.000604133131939431
0.0112206751068483,0.0158901690281731,-0.004204514098056,-0.000543016909622667
0.00105772049141806,0.0241203869554431,-0.00384089046299899,-0.000660180464121844
-0.0113912565245784,0.0249323959301186,-0.0024172400293871,-0.00129261734711542
-0.0144521792623311,0.0200802282612753,0.00475439218281083,-0.00182877591607567
-0.0130452499755603,0.0128429847254081,0.0118204354082493,-0.00156847118495725
-0.0159291672124423,0.00700131201946286,0.0121553427885063,-0.000821432678185401
-0.0177640782741695,0.00357433091208553,0.00824571695871821,-0.000126137890362474
-0.0124224920781907,0.000169762064267165,0.00387538909425943,0.00055007638544372
-0.00961250451107377,-0.0138895687584113,-0.00163440586598454,0.00153034220746876
-0.0102716614928266,-0.0419032906862502,-0.00833702880035981,0.0025120544266373
-0.00559111592428753,-0.0592803762631366,-0.0144922079875249,0.00270307630065558
-3.00189755831886e-05,-0.0434405750468652,-0.0145815394231011,0.00154397835186007
-0.000837510924627052,-0.0095134532020656,-0.00146480887120137,-0.000189879981510278
-0.00653109016515354,0.0124490127299733,0.0146096122529569,-0.000395250114157341
-0.013130643279197,0.0132673550022329,0.0160676412593484,0.00131662442146298
-0.0164021587396984,0.00598964455358451,0.00615821695317422,0.00280267765577424
-0.0132188651434015,0.00169682268435169,-0.00279295035463738,0.00275622659430712
-0.00548643386096824,-0.00129376837592199,-0.00620470066519843,0.00182625939195636
0.00388681758103541,-0.00378230507864711,-0.00611464527041763,0.000638032993642037
0.0134413210129377,-0.00597628077610224,-0.00696066542985538,-0.000586441733442706
0.0166557742013876,-0.0102206206482201,-0.00842144633107868,-0.00110637678442282
0.0128939512218183,-0.0136479218500496,-0.00763485699640589,-0.000831151013059337
0.00872590913033219,-0.0112150986738849,-0.00643393386467796,-0.00101406625250889
0.000139308811930043,-0.00292012112117609,-0.0043350646516232,-0.00154587932434645
-0.0111981939068568,0.00487741784806812,0.000366901850739419,-0.000468057899669404
-0.0139159896811997,0.0064621492104631,0.00187097625260202,0.00217929710281875
-0.0108077525886312,0.00376031298438105,-0.00503541450721965,0.00391315901984294
-0.0125737252473099,0.00330782780381176,-0.0135293534940378,0.00303842265428836
-0.0184070314357813,0.0126126778846633,-0.00785774790162045,0.000455317222278829
-0.0172556534469002,0.0287331101113444,0.00802023302512486,-0.000522702395643113
-0.00985056315314106,0.0356004780503627,0.0146458097657697,0.0017305660597802
-0.0087449563765799,0.0289737239102668,0.010968182261942,0.00443867705235094
-0.0130934231120545,0.0199060884980639,0.00408775455212838,0.00474467722683456
-0.0113497220530772,0.011052578380263,-0.00528487068224038,0.0029494643757694
-0.00688474487992457,-0.00536027963858761,-0.0158047237280008,0.000386529020377105
-0.0128930921555067,-0.033092279340699,-0.024254058842023,-0.00229307033900861
-0.0228935500027569,-0.0627233193827865,-0.0277061640016276,-0.0046568633415859
-0.018059749793146,-0.0661303187826404,-0.0225591678601411,-0.00611102758335975
0.00396187885876063,-0.0304751355710343,-0.00390685422900875,-0.00582369032315422
0.0261006321039594,0.0119801792237839,0.0191946165022694,-0.00257504454454703
0.0358698566717568,0.0316793567101172,0.0254624810180614,0.00287067523307828
0.0351216133498053,0.0333590944760394,0.0128348509580833,0.00651294613537068
0.0281875912878848,0.0363946761736681,0.000123781904536342,0.00582766598141287
0.0155262225184326,0.0481325294053343,0.000499900038449106,0.00241882108745248
-0.00593333981898358,0.0545526446193588,0.01213136914529,-0.000784838277217314
-0.0304814098995148,0.0465748255540385,0.0201250247283374,-0.00239006262088162
-0.0381782859083872,0.0428211583377461,0.0155741497203256,-0.00282965698762445
-0.0185924580638536,0.055592063140482,0.00967707841344812,-0.00213068705355723
0.00952861005717899,0.0618609112445105,0.00822412131491597,0.000279860371024921
0.0292971842094721,0.0429715718786807,0.00422164873468782,0.0027722280716348
0.0442567109246017,-0.00321798625275033,-0.00389075356368723,0.00265951130468177
0.0463360999046857,-0.0601921214579775,-0.0133630694764534,-0.00029076499994112
0.0315745193142776,-0.0907067242251034,-0.0211127020685678,-0.00407302393291569
0.0216214385687684,-0.0806459946784254,-0.0210441599519022,-0.00654342274081222
0.0241171217331619,-0.0464691740229063,-0.0103815326870154,-0.00663021726931184
0.0242148441697497,-0.00867001571172786,0.00461016559751837,-0.00443397540656707
0.0168562084760839,0.0168562162545385,0.0146834418819606,-0.000987802896731615
0.00660729634032987,0.0257578895033484,0.0203582205809025,0.00219958578659857
-0.00343243348626225,0.0265497868671802,0.0258392088206502,0.00404231548455953
-0.00664848384621223,0.0246607653955047,0.0271932306691722,0.00441454329757974
-0.00195110337005598,0.0148032660774107,0.0192088117358921,0.00368502872470588
0.00552182528600945,-0.000809567519319552,0.00563493843626851,0.00195221459189018
0.0106062159302985,-0.00299126436047633,-0.000733024919073771,-0.000372100962075003
0.00776371249939698,0.00498536805249869,0.00050218597632387,-0.00176476161944645
-0.00030623693478473,-0.00137517155747399,-0.00628757877863504,-0.00159313558187331
-0.00365344143633279,-0.0122158585165379,-0.0207544677480836,-0.00134321621943365
0.00494078263411517,-0.00794243350084598,-0.0255402009770545,-0.00190371676812385
0.0209237558375999,0.000534481598902153,-0.0166905749961538,-0.00236037699212983
0.0300615499462617,3.49389757507423e-05,-0.00410940551847416,-0.00176627541146263
0.026952892959638,-0.00654956756138978,0.00485422921404378,-0.000191276786483256
0.02010575540486,-0.0121468638218551,0.00965580944664083,0.00145487037107303
0.0171129421590782,-0.0114309111520252,0.0107205919337634,0.00240001577648422
0.0168478068677389,-0.00404408309886044,0.00847352594746446,0.00264341239764616
0.0164901584836109,0.00253961048436535,0.00741140664660316,0.00243767747992039
0.0161256383507408,0.00149128078526154,0.00866551679359645,0.00204994048501287
0.0141109642274699,-0.00562370464892971,0.0100990684514093,0.00182395846196333
0.0109620552147298,-0.0144323645994861,0.0102239100032803,0.00178957812431266
0.00945644520906577,-0.0244283202547549,0.0076817190886211,0.00137518798909391
0.00731963280118182,-0.0352532443073066,0.00465716887784403,0.00014622482978372
0.000930174754570155,-0.0451267121239351,0.00299201001071723,-0.00133999907696387
-0.0085977746819175,-0.0454679073084094,0.0020871144982167,-0.00205608593378924
-0.0184243551591386,-0.0263854390232836,0.00331382151237946,-0.00163645106722005
-0.026847821831003,0.00101281365703799,0.00727090580667563,-0.000369534888441063
-0.0302843088960547,0.0189817331770745,0.00814642887007081,0.00125861914168127
-0.0272369473233781,0.0267699065632449,0.00175938921046207,0.0022906272943256
-0.0215400598297706,0.0302055145355983,-0.00601733866750625,0.00205685434468995
-0.0168922522951344,0.0304833300338201,-0.00836747754424767,0.00100037658543828
-0.0131285577494435,0.0245660035265182,-0.00526058621031877,0.000291063879519598
-0.00640884315814681,0.0100565310636212,-0.00244090067160684,0.00081409431605699
0.00338310472924285,-0.0131491856289639,-0.00579431648423119,0.00193876835468922
0.00941334841346592,-0.0392351136056627,-0.0147367590033916,0.00217055081577221
0.00727386762769368,-0.0522078485527763,-0.0199961694132646,0.00107400658773999
0.00351869558358675,-0.0428028482005294,-0.0148061980378052,-0.000315652534401464
0.00692596922218558,-0.0223515420380759,-0.00448545066316242,-0.000618588958781545
0.0163322187564235,-0.00825229315839077,0.00463888302777924,0.000499400794701896
0.0262593957838148,-0.00581962356924176,0.00968255432933326,0.00199643349353982
0.0285246594500218,-0.00561077411792852,0.0104842702939151,0.00273485299324651
0.014312741712829,0.00182675778370217,0.011449638071085,0.00224265827329338
-0.0121114862996366,0.01152428895057,0.0124460281869327,0.00075063389498878
-0.0278562227421219,0.0150725395722454,0.00677454728506371,-0.000809119796929462
-0.0213026394147104,0.0151569059705101,-0.00582036042389547,-0.00193252826597467
-0.00952123618639074,0.0242096728334334,-0.0131965477726093,-0.00265886899115161
-0.0106706325671395,0.0487470180281513,-0.00764187029318377,-0.00256921573843764
-0.0256219294150764,0.0755999334484278,0.00315854037184348,-0.00132093708692005
-0.0379372017488864,0.0877875378393768,0.00959683470357237,0.0006372684433678
-0.0362049886347805,0.0846760058979702,0.00725433182450466,0.00227903458854416
-0.0294594559559837,0.0731529258993723,0.00106165536506729,0.00263442125177464
-0.026739352809458,0.0515834348423484,0.000435999586858537,0.00183330045533357
-0.0236906453472268,0.0150051095461273,0.000439879813633428,0.0009103738902929
-0.0132730045046604,-0.0256819241757184,-0.00625714711118843,0.000240680982234148
0.00461469302869533,-0.040405702149506,-0.0106242581576438,-0.000433923751745877
0.0228045781924078,-0.0300262270851797,-0.00679881055969137,-0.000838265538621923
0.0268763329447139,-0.0267865947697615,-0.00184754543181516,-0.000565987344604936
0.0126932567778686,-0.0308080001181679,-0.00219839790541189,-0.000102679142754348
-0.00528393150049993,-0.0308042627580823,-0.00770477259294578,-0.000622657430575318
-0.0131359362066996,-0.0276955791931294,-0.00986205788472401,-0.00255397442512437
-0.00719376450765435,-0.0177244551501934,-0.0061303827424237,-0.00472899701682439
0.00893541744796375,-0.00506418555391066,-0.00518232857925425,-0.00553493203746089
0.0294175272530933,-0.00352263615240513,-0.00994405863383956,-0.00446895309477993
0.0397416973903405,-0.0127265693754171,-0.0139483318306591,-0.0027844484212813
0.0267068089434568,-0.0135661785933595,-0.0130345049947263,-0.00179280863415256
-0.000387724615331236,-0.000963180544655148,-0.00953393064348174,-0.00123080334585543
-0.02450559756576,0.0106253432826138,-0.00518479552156145,-0.000417407451135842
-0.0399995628039819,0.0148276912856932,-0.00338662993349592,0.000823798973185958
-0.0438647636926005,0.0151853448328328,-0.00412814897893116,0.00199172814823389
-0.0348557362485746,0.013826809511549,-0.00238017188307185,0.00265895365341588
-0.0220437430781161,0.0108115414138332,-0.000824826926363616,0.00315965296096585
-0.0168233328755589,0.00775650248671668,-0.00321409429030851,0.00361494978456323
-0.0202331323587678,0.0018961752341868,-0.00903571802037721,0.0035186964071363
-0.0230402716770208,-0.0104040609449555,-0.0140821586674383,0.00255961244826574
-0.0195717181390154,-0.0174575221097637,-0.0108942092372665,0.0013200578342407
-0.01463033032583,-0.00947539923489162,-0.00154351934117023,0.000673837374969657
-0.0118813210048547,-0.00134178194643457,0.00220923704057321,0.000544225654296102
-0.00470528718796174,-0.00425722541868612,-0.00325695544817156,-2.48888154124388e-05
0.00893174068389028,-0.00793949774424316,-0.0101258350591664,-0.00145160365287098
0.0168743596044329,-0.00885549087031591,-0.0119582457628157,-0.00311640137684826
0.0115064336440301,-0.0176915628133026,-0.00854196790352079,-0.00424589771108585
0.000206421920472957,-0.0352279971885261,-0.00306719773514906,-0.00436887819525294
-0.00866447771951001,-0.0508013445382426,0.0013727377747028,-0.00347151641220012
-0.0132908492124615,-0.0555054496043686,0.0047513822500224,-0.0020907613412165
-0.0179763405518543,-0.045081571656818,0.00721754314266599,-0.000773750236330712
-0.0278270253732344,-0.031781831843358,0.00363403986369598,0.000202525051134035
-0.0331683622527232,-0.0350585137604553,-0.0105511186242381,0.000219397854233718
-0.0148670218344886,-0.0389819676882029,-0.0188090402630709,-0.00134667723539679
0.0170264103873863,-0.0126030883635502,-0.000941526473417206,-0.00224074990109641
0.0300478656382587,0.0253522413121877,0.0228484566878537,0.00132184691518289
0.0251989006055135,0.032250033009253,0.0231393674574072,0.00775802925378257
0.0229539187825254,0.00698801227297678,0.00942898149006215,0.0109181121980248
0.0193895139834078,-0.0177865367957074,0.00225109382626217,0.00838813131549189
0.0056601604016106,-0.0219951857282223,0.00263901778063256,0.0032636745153767
-0.00701402315553543,-0.014069994100732,0.00491526420942828,-0.00110424735541076
-0.00965940676040464,-0.0113580961346853,0.00642870952006507,-0.00354463937257032
-0.00991559569510619,-0.00984622928199706,0.00436247021737953,-0.00396723004401117
-0.0118313635957799,0.00436096109106063,-0.000793086415393364,-0.00301685149431185
-0.0155535557871658,0.0232175594708639,-0.00557713651576584,-0.00182580445961703
-0.021618505278141,0.0321670878843908,-0.00563578545036942,-0.0011348559786629
-0.0188308726910918,0.0301985084596478,0.00121972121251832,-0.000473568424337775
-0.00181915513501047,0.0238512964890699,0.00704428257621982,0.000683318952862343
0.0152483480354163,0.0178405011064345,0.00571240148713942,0.00119735359687697
0.0237996216610691,0.0112991422142003,0.000451663755016155,0.000100259073799637
0.0254274190882802,0.00639306460730757,-0.00497133162916202,-0.00158397677300623
0.0220957533306023,0.00522970331623508,-0.00679931573198404,-0.00225993392027246
0.0175701982471338,-0.00538713294872285,-0.00447245569251601,-0.00157017746696659
0.0106146326704322,-0.0339187687684082,-0.0022297610948299,-0.000330863278358879
-0.00109311624928788,-0.0559545997606595,-0.00283539277695194,0.00037022422863085
-0.0115619564678227,-0.0446716310043744,-0.00408750067267044,-0.000261828806248214
-0.0139013404361526,-0.0138376313813026,-0.00246792516106326,-0.00150462910199912
-0.00877979335626877,0.00654947448986452,0.00230593462012342,-0.00170756657877075
-0.00179341656477325,0.0115014164886708,0.00682968533664812,-0.000716691532403971
0.00183730307294967,0.0137398618035002,0.00922818323789491,0.000431291604320753
0.0049423221289034,0.0181386014664425,0.0110441966980706,0.00116471858359962
0.0158122549273371,0.0223884936941262,0.0121081127439917,0.00145632376154953
0.0287507116719283,0.0274680980438693,0.0137278913136358,0.00148297860411062
0.0299814631094092,0.0298263574120431,0.0147954466284539,0.00156370951198597
0.0229236090737157,0.0257858059434005,0.00930758779824038,0.00160358410553266
0.0171712970382289,0.0208381974422036,-0.000641771894479271,0.000920192935243296
0.0120207951651608,0.0182164354066749,-0.00613367838764325,-0.000584570181310328
0.0075960911283877,0.0170051665592941,-0.00400987762893163,-0.00231757250671412
0.004407942350148,0.0155072060576495,-0.000278321383813302,-0.00362405999890308
0.000527570316433059,0.0131559254019766,0.00133868679743947,-0.00375296515274582
-0.00360729465873909,0.0119994497110221,0.00274074745720678,-0.00276822478691903
-0.00436992359222857,0.00940041170093914,0.00373478749708382,-0.00150070830747017
0.000986103614110301,0.00245906868399069,0.00346475251207355,-0.00036150012418488
0.00771421180650055,-0.00962032820026243,0.00168348813280907,0.00060671533161876
0.0147869293269413,-0.0210220207706149,-0.00153747077165773,0.0013241444371155
0.0227494440700942,-0.0242714885044566,-0.00565496345436404,0.0016769505576017
0.0228201841257439,-0.0231553664525236,-0.0121643847621013,0.00133537454950741
0.016982731798505,-0.0169808404501842,-0.0171694224116408,-0.000129248230102917
0.015145322451402,-0.00182948127004675,-0.0101413313351763,-0.00180445133090657
0.012177433727755,0.0122884864745733,0.00564975881479859,-0.0015941216910096
0.00418270422013195,0.012386309804654,0.0148337748156926,0.000797508093600245
-0.00110729559641223,0.00389783377615764,0.0150546595067034,0.00308985563586467
-0.00125966184680607,0.00030300448962293,0.0130388631440668,0.00338708385143564
-0.000494154734970502,-0.000598365809421159,0.00894182496342492,0.00210619338574654
-0.00124290811613428,-0.00833489981321271,0.00296807973338996,0.000582873940501578
-0.00274280771324097,-0.0159293280527051,-0.000829372330481188,-0.000575742109150976
-0.00683931066415056,-0.0103480514056739,1.52218495910674e-06,-0.00128294773661198
-0.0152260781230034,0.0016231025781532,0.00485786973424722,-0.00130284376585882
-0.020702187725329,0.00973144415638261,0.011014420353474,-0.000534996648156439
-0.0192221884338582,0.0150499905689397,0.0148593682729414,0.000664236169041696
-0.0164541991506213,0.0179172331385042,0.0135368188787295,0.00176893730000241
-0.0145857029439367,0.0211883504431603,0.00573567398235076,0.00233725540931024
-0.0114245868958471,0.0258986598105475,-0.00350692345265968,0.00212623655957716
-0.00712352463540338,0.0246260747975758,-0.00764244532897683,0.0011833593974211
-0.0026471085818562,0.0115959068341849,-0.00859903706075886,-0.00014400198149593
-0.00253882075149352,-0.0118241156650894,-0.00767540409555129,-0.00136453519617963
-0.00419344241703956,-0.0286031603869582,-0.00551995601263956,-0.00196108212517104
0.00144936938679533,-0.0243468374799621,-0.00895931180206264,-0.00154151578702891
0.00798622395994212,-0.0173109271003443,-0.0193312063992554,-0.000620510785258408
0.0109540439495334,-0.0246816722632632,-0.0242948164182149,-0.000359239542047143
0.0167517204495344,-0.0283058547073778,-0.0157954370913387,-0.000596106785168837
0.0196818472209189,-0.0173807262832298,-0.0032136818013383,-0.000248295169355082
0.00851552675614196,-0.00274498715889757,0.00306639552704648,0.000739290382522154
-0.00880078873043472,0.00879279213026736,0.000543534098235805,0.00151375429811953
-0.01626831331726,0.012213148078305,-0.00222332803140572,0.00102038666903814
-0.0130757277620423,0.00635584697706123,0.0043959622007401,-0.00031506841299548
-0.00898218228339396,-0.00359588203754696,0.00931720352354329,-0.000355454876095831
-0.00951628750497916,-0.0128504637039417,0.00263263163907744,0.000652918807360112
-0.0114407542641531,-0.0189827434472407,-0.000457198544518003,0.00039361889604809
-0.0115241614377348,-0.0185297497389855,0.0073512484405112,-0.000421245656777606
-0.0127721466017464,-0.0128762653238869,0.0105707237002142,0.000559244633361393
-0.0184489813146149,-0.0104112108329537,0.00622475880668444,0.00246431391469681
-0.0234230265003798,-0.0156757949922285,0.00234714198496868,0.0027911268741441
-0.020921534237765,-0.0216165503054401,-0.00156406188772415,0.00133526546318615
-0.0115786701314258,-0.0188389200579405,-0.00504561313107303,-0.00053611028784982
-0.00110903000014424,-0.00900436367150136,-0.00559736520431853,-0.0016793838771839
0.00222953778255549,0.00441901628810329,-0.0059832334829315,-0.00173814086519012
-0.00424352485270445,0.0178934008525513,-0.0081544429135568,-0.00148787526892369
-0.0134408957370729,0.023620838247063,-0.00759348929635119,-0.00180515973943278
-0.0182763301328909,0.0221449543171611,-0.00224723606047778,-0.00241911813052357
-0.0160075673030098,0.0169230011164333,0.000579583333122692,-0.00232781042106934
-0.00931716021625943,0.00661063122535065,-0.00187896714752125,-0.00144302550735586
-0.00702915309973172,-0.00707933999070526,-0.00316351432133885,-0.00072710900585618
-0.00685839866194674,-0.0231743255318519,-0.00468928014163559,-0.000689333708055847
0.000407063715025316,-0.034188912536635,-0.0104613764605254,-0.00141010908782563
0.0104074841028516,-0.0229626026206597,-0.0111043195905215,-0.00243104934823402
0.0180339599849138,0.00386016065561631,-0.00291732928752038,-0.00195334586149484
0.0217044567276367,0.0177006071459154,-8.88463877456412e-05,0.000857930022448707
0.015062914838035,0.0109064949933964,-0.00644131331979459,0.00375123508796131
0.000489835638299727,-0.00700130713820153,-0.0129988271975919,0.00414881361862299
-0.00932893361392037,-0.0244410752086018,-0.0193020925853711,0.0019738668814092
-0.00901793375324454,-0.0198371855498782,-0.0199348591604442,-0.00107084840579241
-0.00286400541321023,0.00724070048307321,-0.00607178377235277,-0.00228187528013518
0.000104998853070187,0.0233551582239275,0.0109123197424536,-4.24990889871557e-05
-0.0056540953861785,0.0143245061585751,0.0172958549671381,0.00324333036155556
-0.0147313019440563,-0.00359857544303718,0.0165500522554442,0.00412210295923457
-0.0207567495214316,-0.0166413676391302,0.0176014795239715,0.00257749193579712
-0.0236164447945899,-0.0234088687724646,0.0216813849073277,0.000818675422472721
-0.0227540677958401,-0.0248739245732043,0.0247830197905745,0.00019718726605094
-0.0158611730344012,-0.0188454065420117,0.0271058600182986,0.000470113873584959
-0.00750205464731243,-0.00445916556643017,0.0287116487757555,0.000857608187594034
-0.00335473383857181,0.0130078980397217,0.0255295182392125,0.0012689308158334
0.00142136022913882,0.0206712266145986,0.0163980122926212,0.00205426359764643
0.0112892454444758,0.0143679214756201,0.000634396347338098,0.00275380679852799
0.0226927746688537,0.00910675358152189,-0.013566826721046,0.00225588707714911
0.0291780002018863,0.0155617972860682,-0.0126733551656881,0.000992853174610823
0.0282871220592339,0.0181477389514511,-0.0055785746059423,0.000597086837289431
0.0251592760690916,0.00869101597119807,-0.00647243939942664,0.000553648594572362
0.0196579855963078,0.00286457448430361,-0.0107910461456352,-0.000937212813603908
0.00690379850423978,0.00667234972561164,-0.00865357394100746,-0.00366435890228814
-0.00323872006490704,0.0121383028142189,-0.0026807331177291,-0.00566344137671211
0.00258169678786518,0.00864394135143374,-0.00447333179091393,-0.00576137197619862
0.0124064600477505,0.00103663522738543,-0.010774944163835,-0.00452441848501685
0.00363663185542739,0.00977365735901857,-0.00766052544392663,-0.00259518568552792
-0.0198360749288341,0.0338076270719171,0.0056494526917965,3.37157594232883e-06
-0.0365381200750799,0.0480467896602968,0.0179614374804685,0.00271490842091498
-0.0408710310460105,0.0442962617538466,0.0208413710227772,0.00442478093256731
-0.0374260038594218,0.0386161747359842,0.0185960022292897,0.00447267647548004
-0.0259136593246242,0.0407580069602485,0.0192917591857603,0.00341532399579191
-0.00901598325644742,0.0449062544838984,0.0228919907357436,0.00258039703403904
0.00527582141056804,0.045498479534017,0.025081728526328,0.00264191387238588
0.0123405100420708,0.0408448829051149,0.0240898025728924,0.00335775236263184
0.0143089868065005,0.0246385606878333,0.0200884248110085,0.00402642788322894
0.01882553842873,-0.0052324524861113,0.013077280806338,0.00387459624637195
0.0282562774670578,-0.0375389566030153,0.00506228066007681,0.002509270728813
0.0345904786414137,-0.0488857632852882,-0.00137578449682042,0.000127576446430189
0.033926353679715,-0.0266242429750174,-0.00445642957158636,-0.00241461932144438
0.0257470431661475,0.00589559741198642,-0.00656809641003964,-0.00409118051123286
0.0112152349251758,0.0157764913590572,-0.0107268659443342,-0.004503174956747
-0.00327521677818161,0.00491855003206685,-0.012321347628451,-0.00428323184171875
-0.0113923927277568,0.00238308255926393,-0.00766765531471472,-0.00429736487252994
-0.0072859445276456,0.0121709986521705,-0.00164367325114194,-0.00469558106262889
0.00509168170117484,0.0148870157296785,-0.000494898673573319,-0.00521834389739876
0.0116623951403472,0.00704213663808921,-0.00353545753291231,-0.00525673687957766
0.00933702299327763,-0.00368756040199385,-0.00627305405890647,-0.00453420953300166
0.00535710213917882,-0.00583454413440672,-0.00612571919931978,-0.0037076993827253
0.00501528604578015,0.00786800323380952,-0.00259344193341401,-0.00303781587245443
0.00716924142794132,0.0227075035576006,0.00133896445968034,-0.00201198120726464
0.00515062464922647,0.0248054440929264,0.00233187618966427,-0.000657109764910394
0.000152660290393021,0.0195893860309874,0.00148322482207544,0.00039272454722912
-0.00111309539690938,0.0146345481779817,0.00118486149734335,0.00110301037472139
2.73084452709696e-05,0.0110000454647376,0.000890933329663341,0.00188446939396218
0.000722694143219699,0.00569815131414447,-0.00108524976537614,0.00259066762467472
0.000257457091950745,-0.00228416727221457,-0.00440011573382167,0.0027008628288162
-0.00298844666225093,-0.0082958501499147,-0.00667200181902851,0.00203239654840189
-0.00697220869776089,-0.00979190898887322,-0.00491058916954555,0.000913224095757069
-0.0101545538626406,-0.0128275374246122,-0.00182723777147539,-0.000181195449428892
-0.0119314918436949,-0.0221604123952635,-0.00281121047555493,-0.00118632318848729
-0.00825935428984761,-0.0319294360044459,-0.00678948377642802,-0.00208843222679078
0.00352609128789364,-0.0406863527324623,-0.013068821085192,-0.00266118323096847
0.0202958380111601,-0.0512480292369438,-0.019989130345024,-0.00304278033234225
0.034516099054154,-0.05074717187564,-0.0202516023251723,-0.00330871924965042
0.0367848707814546,-0.0303479236306784,-0.0147862757655064,-0.00297830840813418
0.0258315687936422,-0.00630500606049375,-0.0107326560339804,-0.0019886117275016
0.0142156314042691,0.00325013710617252,-0.0066948138875278,-0.00103791487899293
0.00973729794033559,0.0014906951297505,-0.000405643527758288,-0.000404120661165452
0.00752754077379982,-0.00104548622667892,0.00558131141933276,0.000385843693416363
0.00519120153781847,-0.00385258707607213,0.00896475966502852,0.00143082222900356
0.00299862999269278,-0.00565853944058879,0.00680437429961067,0.00203893919925456
-0.00124729712402255,-0.00539620059112353,0.000790516930301717,0.00168667144118389
-0.00559119555487343,-0.0110363305173471,-0.00445750581741492,0.000728428929009263
-0.00799224523746372,-0.0251539542896624,-0.0090925692302939,0.000106747636851144
-0.00732546507182848,-0.0390621286798623,-0.0117688295626098,0.000469795260594919
-0.00199181155822114,-0.0422479257355343,-0.0111118823517172,0.00158826337037988
0.0023112104615194,-0.0332746968613675,-0.0128892980488239,0.00263730094234727
-0.00467900710583872,-0.0181094552073714,-0.0150812657540391,0.00265249387986858
-0.0165253756141521,0.000341228156574419,-0.0117904452385827,0.0015148742074909
-0.0142037324047705,0.0162425779636576,-0.0102612865660493,0.000321996990757131
0.000969933949755156,0.0219722109568474,-0.0109461562741954,-0.000375746735638282
0.0133294198649185,0.0192836906405195,-0.00687988697026013,-0.000738502150159085
0.019585166972905,0.0124572482400066,-0.000417768880443859,-0.000349339123408324
0.0215073645552466,0.00532859215199932,0.00457308061729984,0.000833337468666578
0.017049202140458,0.00978618685724619,0.00842340518510118,0.00209371684049037
0.0117011851793449,0.026745066123503,0.0125832111134424,0.00305395732155253
0.00900543811380513,0.0388298522782378,0.0170218582211053,0.00369642172750081
0.000248980752216726,0.0385300739129458,0.0190764205175519,0.00397385495688731
-0.0179971001884501,0.0324925881054829,0.0170055582141497,0.00347207598899143
-0.0308897050515639,0.0275464842670566,0.0153988505166151,0.00193580089301814
-0.0283240683570957,0.021672870922928,0.0169399431642059,0.000200327335295584
-0.0189938949902623,0.00941655412802239,0.0163485241419948,-0.000728225524484363
-0.00578152962718508,-0.006663172761028,0.00801653010857836,-0.00085179041397217
0.011111515567063,-0.021536870715834,-0.00555044919652721,-0.00105001811737126
0.021535953039233,-0.026554391144213,-0.0133093387042901,-0.00191524856939597
0.0216174447773488,-0.012768343545348,-0.0119173289133328,-0.00264450548770336
0.0206259048965816,0.00778389278036867,-0.00640074620181707,-0.00251171838419924
0.0207776797293849,0.0158319862467258,0.000436986202102664,-0.00179134370134637
0.0107132864241995,0.0121432218023485,0.00226719421150572,-0.000722114817787849
-0.00638055918544462,0.00899951574246556,-0.00272622650437137,7.64832987208246e-05
-0.0136355536994589,0.0154245665042723,-0.00634437327615794,9.39685594837218e-05
-0.0115819510618898,0.0330221751538417,-0.00414903927997978,-3.43927048809278e-05
-0.0124131779690738,0.0505699572209139,-1.95672801366065e-05,0.000306182945927167
-0.0124240160255006,0.0532130998956797,0.00190413064974146,0.000875022376259327
-0.00487354328573478,0.0438170271209695,0.000133854244647593,0.0012131636652305
0.00503867818961662,0.035518088839241,-0.00230564253719243,0.0010699371500564
0.0101541793980696,0.0333822061654231,-0.00027061436226839,0.000529209537278634
0.00950934034152693,0.0335377052011852,0.00406019442894902,4.95807130383521e-05
0.0107727616115903,0.0244776997562075,0.00547381513405867,-3.70285104981024e-05
0.0204081438306136,0.0023190717153295,0.00345215073307362,-1.37938743732312e-05
0.031468104641476,-0.0148665277322372,0.00283475876888052,-0.000437611029546001
0.0305504110858102,-0.0251792362505183,0.00274771330459971,-0.00102221398604407
0.0123212386734327,-0.042410760154784,-0.00376683355741148,-0.00155741388036179
-0.0179791292141128,-0.0480012926532496,-0.00953445596008496,-0.00314712285377787
-0.0408584537668493,-0.0231524799449996,-0.00193233678819476,-0.00556316682035627
-0.0395834876596388,0.0218804031919337,0.0124930559977023,-0.00585980956043604
-0.020753835375372,0.0585808209454995,0.0173943336136632,-0.00227654610611999
-0.000989501142957538,0.0613403857250502,0.0104631814741153,0.00257005403399551
0.00718146962505373,0.0468094088409762,0.00405770114091213,0.00498117026012028
0.00102015170849035,0.0403615423247227,0.00458412937425474,0.00447050324646921
-0.0100378661692754,0.0369048683628469,0.00639577492476261,0.00295496269445899
-0.0165499368217485,0.027250743594341,0.00724271075354948,0.00183912719130225
-0.014792613869921,0.0060026160877332,0.00655663477649393,0.00115627366675448
-0.00129471539017492,-0.0255275929085644,-0.00336408020446284,0.000634087935416757
0.0235307935168902,-0.0571072917067772,-0.017370313850248,-0.000256812905722541
0.0461086304964234,-0.0823655647480345,-0.019621998721197,-0.00182960727091418
0.0491938674174119,-0.084808434331294,-0.0123805570363599,-0.00298722585297821
0.0277250342861774,-0.051399995947117,-0.00619026185362375,-0.00259698477595624
-0.00997651631074973,-0.00947168604589428,-0.00252496741281081,-0.00126513772002774
-0.0419538579364371,0.0094159205797935,-0.00160634020924842,-0.000111813027124435
-0.0465734577199708,0.0104678200014756,-0.00510512138777606,0.000605878933680522
-0.0253889551787908,0.002621078532735,-0.010807244506365,0.00119255254323486
0.00185170894599868,-0.0165841608758182,-0.0133344666444848,0.00211802804127787
0.0169489574515561,-0.0352028406465263,-0.0111287032645532,0.00303292332889377
0.0158172723175842,-0.0370788590285179,-0.00703493255215073,0.00320265217901821
0.00762901547002155,-0.0261819881133639,-0.00333568385652627,0.00271951967479733
0.00193548789408653,-0.0173209421716932,-0.000884808768959074,0.00206737245211375
0.00027318550671784,-0.0157365032445704,0.000181217150548552,0.00169343916305477
-0.0012673310856194,-0.019356865845557,-0.000742195606965668,0.00165395248257661
-0.00437775103942165,-0.0255058311171914,-0.00465490586600816,0.00157698329685756
-0.00828602579902697,-0.0317292700776764,-0.0105789196985757,0.000877923962768918
-0.0105857402977472,-0.0363926637422077,-0.0106483372978064,-0.000695455879639696
-0.00884282148716134,-0.0376122799086195,-0.00239435474256928,-0.00191420120899432
-0.00585316666397735,-0.0366329757773644,0.00379611266105748,-0.00138708477200305
-0.0073881536217931,-0.0354968951355899,0.00382784504310386,0.000319708602733773
-0.0111159699456556,-0.0349373723950141,0.00120100377546123,0.00168624310412011
-0.0103968762444595,-0.0347390820815513,-0.00258702309338906,0.00215447098903924
-0.00509948282578724,-0.032513139193425,-0.00533975082378368,0.00210050180794612
0.00187077417733829,-0.0291177729771454,-0.00712015252060102,0.00172130072559228
0.00788882615651839,-0.0286844691672332,-0.0093850461876955,0.00103941904715747
0.0117237040848061,-0.0311382547398356,-0.00975635881226164,0.000422140408319132
0.0123377489020367,-0.033130023429008,-0.00634705828983048,0.000444987087095879
0.0115209730011424,-0.033796236377548,-0.00173107619418252,0.00111654303281776
0.0123493161428005,-0.0323452439260376,0.00130763744217531,0.00190494174900754
0.00883061883195597,-0.0314126201811456,0.000513450705014217,0.00253031899926731
-0.00273945547479224,-0.0385535112114546,-0.00407115088525158,0.00277208101915409
-0.0194744922105664,-0.0517310367155178,-0.00897617367753699,0.00217465789933931
-0.0392113584065995,-0.0468748133528964,-0.00566305904684924,0.000439186962230591
-0.0522829899084357,-0.00882159085531749,0.0136956178214568,-0.00108054995991368
-0.0558116243831524,0.0288368699740105,0.0312921665130397,-0.000126023140343847
-0.0592168999718367,0.0317643668892988,0.0273441334814549,0.00244624965346205
-0.0580242521824963,0.00625255810654092,0.0108098865371653,0.00318412600930785
-0.0411546853744258,-0.0227675732602963,-0.00357501731541342,0.000829173490967163
-0.016145647791249,-0.0313357440875346,-0.010049454160108,-0.0025714368457567
0.0044213023567239,-0.0212141814168062,-0.0117535928846884,-0.00468907808845938
0.0172020350124035,-0.0132742126892517,-0.0160617672616932,-0.00535190384059451
0.0229696117951116,-0.0098309671400613,-0.0216502662870258,-0.00576365285511884
0.0263964921197756,3.04788344077853e-05,-0.0215424429132147,-0.0062220864875592
0.0286170009808341,0.0119374238878331,-0.0161438146947477,-0.0059281574277748
0.0227887990349528,0.0172737219882784,-0.00853532354860537,-0.00425570595269577
0.0136939802403527,0.0198880855373157,-0.000867992603523368,-0.00143451616058221
0.0175511523271173,0.0237093153249612,0.00301766278971364,0.00137271089118565
0.026135807407001,0.0230060940093861,0.00586443157003189,0.00308988069832964
0.0175065465143684,0.0112442458843267,0.0096882736113364,0.00349130289379475
-0.00496839270399292,-0.00605526753377348,0.00878276473040089,0.00307516698645197
-0.0235473043675069,-0.0123726439366059,0.00534397528165384,0.00272399844654679
-0.0284598722725928,-0.00242127747698504,0.00699651527125224,0.00265025380555813
-0.0216009126082766,0.0107868520216903,0.013092112665884,0.00237837408290009
-0.015578948722343,0.0197324158333291,0.0175120940157566,0.00176573760589834
-0.0212010847627189,0.0228017176672409,0.0155533236294185,0.000640949962935265
-0.032328333185393,0.0145091944054268,0.00919036576520411,-0.00118450910892865
-0.0359451211732015,0.00188564764183259,0.00501268448612836,-0.00320715245326999
-0.0266251040387255,0.000687057538950545,0.00348024554706645,-0.00459597167289808
-0.00730140440404892,0.0105612810495312,0.0016523258051686,-0.00486176350845203
0.00911254773662449,0.0199866841609233,0.000712602536494504,-0.00408520870303341
0.0114437520076783,0.0209404057326279,7.59138886384887e-05,-0.00271405024704464
0.00624963057349535,0.0128691732165313,-0.00228147398268415,-0.00144932170909138
0.00616780184259676,0.00449133763363023,-0.0037693336876459,-0.000972453292797824
0.0138705230261277,0.00145215692546096,-0.00221944518438514,-0.00130014630185784
0.0242194903951905,0.00211187498667381,0.00146454730562604,-0.00177112248418218
0.0304522082421316,0.0029873520633853,0.0058667707441638,-0.00176405322694239
0.0276621878271305,0.00160208867643158,0.00756993389680718,-0.00120580412968147
0.0164901727715828,0.0013405365840143,0.00597779035122622,-0.000540515600910471
0.0109792788452747,0.0063518846330377,0.00705062606082143,-0.000226108267855248
0.0185867267482586,0.0145779183001904,0.0113562711406386,-0.000474483338654405
0.0270542196994426,0.0216309853471957,0.013256870413209,-0.00120006380982004
0.026568609053673,0.0266308310166838,0.0132352031978328,-0.0017867060973561
0.019605285726708,0.0265486067225672,0.0126657233187416,-0.00176706210614181
0.0121165029480189,0.0160324810188529,0.00967347647318423,-0.00125699472894205
0.00166321297485854,-0.00495800099297764,0.00366963575865563,-0.000756401840276252
-0.00668794605345301,-0.0228723647126577,-0.00123230174720932,-0.000922948029054522
-0.000995051981960753,-0.0190223157325557,0.00058766946095897,-0.00149665937320112
0.0110567992257694,-0.000876465403289988,0.0051337866677669,-0.0016445123666327
0.0172146112845047,0.00796459738202619,0.00392997934317188,-0.00122063198486434
0.0229318525004748,0.00367694463802403,-0.00146971593694076,-0.000291578897551045
0.0334631910404678,-0.000218460613408642,0.000953700464636857,0.00118222128118551
0.0367563831968501,0.00460720259661532,0.013673542803785,0.00310505119286797
0.0269263584572218,0.0119840808839979,0.0215828723436436,0.00513988920042647
0.016984813659478,0.0105513131845693,0.0167611683283485,0.00637879990971871
0.0154156364351037,0.000967210072861283,0.00689573566914431,0.0059523005930585
0.0156048000846432,-0.00342206752114608,-0.00148790245023634,0.00398663049225601
0.0109274260738418,0.0033196635332354,-0.00598706192862609,0.00126372539959345
0.00449133027656455,0.00982583489544609,-0.00406974203737881,-0.00146901712657059
0.00265804486813095,0.00151815168101238,0.000563885801784144,-0.00330428597665611
0.00307013207371516,-0.0184102584419087,0.00022321432740955,-0.00335002025455872
-0.00175309581045338,-0.0272450223888506,-0.00508681896634212,-0.0020698883314346
-0.00716643721539398,-0.00920722719953703,-0.00242551598628809,-0.000946462955565674
-0.00787732516728113,0.0171793505341582,0.0128218725498606,0.000301337271956005
-0.0102159892156954,0.0239786912593526,0.017864803331135,0.0023445218194855
-0.0124269702317763,0.016915645740258,0.00765733022195454,0.00310920377546153
-0.00825930614921066,0.0151852328430265,0.00284963637488282,0.00186190533040385
-0.00305431467551737,0.0140991065190441,0.0013104041735045,0.000824955331996588
-0.00150381444654711,0.00849718181746382,-0.00293452255884753,0.00036991758341937
-0.00142105828635444,0.00893139719112651,-0.000900380417356392,-0.000256414602819268
7.14508671205392e-05,0.0149764314605054,0.00405964871316301,-0.000201336162784702
0.000992036995619595,0.0170766282694316,0.00265041444868412,0.00101674549500189
-0.00284477330619384,0.0120445533615529,-0.00215716277126026,0.00206913479645277
-0.0084142497442987,0.00388903806203009,-0.00512419489701061,0.00180729134409248
-0.0104445821952537,-0.00225146689859688,-0.0062695374474203,0.000803995875872342
-0.00949973131750619,-0.005063482884643,-0.00691583913035263,0.000120537041546345
-0.00847923049992846,-0.00338055660189544,-0.00685089837871153,0.000215358506551518
-0.0108997731083107,0.00163289065104258,-0.00871443140345534,0.000959422854139042
-0.016877726768665,0.00873768871220869,-0.0128081083488545,0.00133436520883872
-0.0213846284635032,0.0208809327438663,-0.00677424759317202,0.00082633571708614
-0.0229155375377989,0.0315708193502514,0.00771895561951954,0.00105125058412907
-0.0223237327820014,0.0296614573797402,0.00998534642414771,0.00280920406076438
-0.020839724058238,0.0173502965908534,0.000181040656760098,0.00404085934877659
-0.0171509028838541,0.00378477046923923,-0.00773484318080252,0.00296247823334606
-0.0126816606895664,-0.00629756459485235,-0.00970352789305677,0.000362725178207482
-0.0186760230450677,-0.00991665359318455,-0.00678963073156249,-0.00185833903002822
-0.0335692130079853,-0.00348237551578262,-0.00286635511696222,-0.00267536874905228
-0.0385897643191166,0.00457596988905896,-0.00139296676797979,-0.00219218159295992
-0.0275281776867849,0.00170592042957457,-0.00785326186744822,-0.00130764292695509
-0.0129914478197733,-0.00976238249039981,-0.0213668334540788,-0.00101913978452375
-0.00305673882500172,-0.0202847639491473,-0.0308441492515571,-0.00136216429885281
0.00435866153206115,-0.0191086312973561,-0.0362830783492508,-0.00182988362532664
0.00765851077557041,-0.00113603571640664,-0.038515898463856,-0.00238137398610517
0.00213787156745337,0.0212492317902955,-0.0292200084107011,-0.00282926676591718
-0.0117774953112744,0.0302213230231528,-0.0109131641734393,-0.00262514047415807
-0.0274361720179492,0.0256463474934498,0.00400418608400029,-0.00158496486723756
-0.0369759144320083,0.0178703639948674,0.00949024343264301,-3.2213386562559e-05
-0.0352421340669867,0.0112248661728768,0.00873851556443375,0.00140311240479617
-0.0236540403946347,0.00564061445103488,0.0081593925681247,0.00220067816003039
-0.00730131403640847,-0.00191026169288909,0.00860432337734978,0.00240448659038187
0.00857600811346832,-0.00834415073371062,0.00621984934701055,0.00221963451894087
0.0166128339557468,-0.00929321885999613,0.000209521704357341,0.00141026756627434
0.0155483905906569,-0.00939884357779337,-0.00840677667560408,-0.000330737532184367
0.009466505262636,-0.00630019863208007,-0.0128944349053234,-0.00270007402805825
0.000612565145551865,0.00478135277268511,-0.0104097150419302,-0.0041195974412927
-0.00627317720166869,0.0141431168920623,-0.00740474095577327,-0.00329517196481496
-0.00789703053868276,0.00954327327593145,-0.00322421140711208,-0.00118618491076895
-0.00532596801480549,-0.00488085758355936,0.00165190134538919,0.00058786768367049
-0.000515486720539391,-0.0132340373759947,0.000629259170350326,0.00143865216356497
0.00267683916051451,-0.0131079695827667,-0.00586945061927833,0.00151363339833217
0.00556593298378861,-0.0183605694327962,-0.0111824852035949,0.00113777782177388
0.00948050890183322,-0.0304385312104208,-0.0115254275592203,0.000392825427241039
0.00935693596615631,-0.0322722483325721,-0.0078853718950772,-0.00077026655919424
0.00488531304065558,-0.0134384370393613,-0.00203341710785262,-0.00195277377922521
0.00196463625011432,0.0160250766504479,0.0056662189693995,-0.00239652426020891
0.0017346827033103,0.0357199593636393,0.0122910584613195,-0.00195961125768749
0.0017138671017851,0.041597713787806,0.0130964276893539,-0.00133856198243636
0.00311124929536888,0.0414546145934046,0.0105759369356056,-0.000949606418336183
0.00958770843972553,0.0296299551294074,0.0109844176925875,-0.000343286969121246
0.0161952034514183,0.0101623228396789,0.0126054499842524,0.00107493424004469
0.0122347988875806,0.00193084718078129,0.00852482644230346,0.00309309118470628
0.00478575774879869,-0.000963119546343802,-0.0016637869308605,0.00476329399361606
0.00205407578048184,-0.0185449464274567,-0.0121283351485358,0.00517701743682294
-0.0037445552557752,-0.0538529045703999,-0.020842249141287,0.00412574118947517
-0.0168784147510858,-0.0851672440092029,-0.0316451191588657,0.00187019324876506
-0.0288134699223133,-0.0831278066837608,-0.0405754159503342,-0.00130285834875204
-0.0348024050519713,-0.0463792938830933,-0.0376013298404038,-0.00400506565633792
-0.0479129803873978,0.00528245537749422,-0.0280789398931495,-0.00444476672596335
-0.0650589212420691,0.0462540650526712,-0.0259999819891665,-0.00313968118941677
-0.061262374836972,0.0642553551900634,-0.0245054442516761,-0.0021135221661238
-0.033617754493434,0.0712055105078386,-0.00620032829756063,-0.00164418606046929
-0.00519440956205815,0.070148499842767,0.0211843668264897,-0.00062122546139409
0.0097059278052185,0.0590064766905287,0.0399983754849773,0.000578081939077628
0.0230665790434418,0.0463634607679299,0.0443572249055814,0.00116736844195199
0.0543901464703731,0.0352403438524397,0.0318759796117843,0.00162161778855182
0.102322404711103,0.00773116578193285,0.0136332272336304,0.00193122139693738
0.126249729687156,-0.0569316877966473,-0.00105366088929775,0.00140621652313879
0.0962737481403248,-0.111679012784541,-0.0113615851222504,-0.000456403202992694
0.0437738680062607,-0.0854405927907626,-0.00281709166952325,-0.00256492202438622
0.00783729361008648,-0.0116807591976043,0.015664070616135,-0.00148281151438408
-0.00694936021485244,0.0258910318344239,0.0131971434022137,0.00309654599255801
-0.0108241494949464,0.0177464324031159,-0.00365958511070416,0.00623959310031921
-0.0128605488542745,0.00897809558952498,-0.0106373850817315,0.00501628598967264
-0.0162879934650099,0.0152324628079768,-0.00831496838769271,0.00173820123905482
-0.018794695919864,0.0216252800141598,-0.00651459334133888,-0.000635040330850481
-0.0188576212990392,0.0236997684364396,-0.00734663598461648,-0.00160382419203751
-0.01719294996197,0.0241921936328111,-0.00762436327859423,-0.00184039838104233
-0.017903347827732,0.0225637175611119,-0.00681350454585667,-0.00190440166428107
-0.0207447147586327,0.0189086280023657,-0.0070547419537817,-0.00216325829338093
-0.0150185986541704,0.0127251592289652,-0.00822653654430878,-0.00259876841675939
0.00164839042371612,0.0037372326229108,-0.0106178891861161,-0.00296903304926719
0.0187795256376515,-0.0130439691621657,-0.0137476261870256,-0.00321217910308169
0.0307670871751198,-0.0475778879693079,-0.0185595190385639,-0.00356358688594142
0.0410439201302623,-0.0743766891326148,-0.023608354554825,-0.00452519976707677
0.0475879468453229,-0.0500464760509843,-0.0179712391604612,-0.00548416818187111
0.0478050567344125,0.00570431251970291,-0.000236408012502749,-0.0042392164754349
0.0426487904350366,0.0388507980409191,0.0156617080106996,4.7219744934158e-05
0.0312334478649835,0.0378124445991348,0.0228191569321594,0.00516277624067468
0.0235433284413641,0.0234766027590042,0.0240331473788846,0.00796855261354298
0.0236931364273383,0.0126185096615286,0.0185847997653328,0.0075111489970872
0.0204035092021804,0.0073637228575437,0.0077149422745865,0.0050374906594379
0.0086065158354878,0.00604353267003324,0.00233079889283131,0.00204795759236544
-0.00698951165348073,0.0145181065470648,0.00701359721624672,-6.66558590735663e-05
-0.015411689312603,0.0288221648648254,0.0139469458508079,-0.000644141180147544
-0.00438313387427016,0.0338353886141408,0.0165613779008828,-0.000232375546572445
0.0191306583593435,0.0277581887363395,0.0174562955905785,0.000133443880214254
0.0300374280126571,0.0150786773203685,0.0194017565625407,-6.10709012459983e-05
0.0242888513179409,-0.00100743041540385,0.0205475753974888,-0.000491185428491215
0.0173941540397143,-0.00906449530964128,0.0200754196261012,-0.000701280320834672
0.0108304979753449,-0.00304763306213803,0.0185141127960241,-0.000606864824299939
-0.00232378568004838,0.00920713211995379,0.0160167569516697,-0.000581526494378288
-0.0177750451001802,0.0168981952812171,0.00667696913407964,-0.000969970172938854
-0.0236905923918577,0.0092981174613179,-0.010460994451044,-0.0018208557761854
-0.0145195400663486,-0.00842947296015018,-0.0172340490276392,-0.00267891581856969
-0.0014369709856715,-0.019392748905891,-0.00487768467310906,-0.00271623708406221
-0.00352686285670576,-0.0187717674344585,0.00586364761773954,-0.00182233976392734
-0.0213529805630063,-0.00607289506329016,-0.00220635367809835,-0.000885428450683744
-0.0388655783942852,0.0169057105290077,-0.0100632895607203,-0.000791462577022913
-0.0446936629508019,0.0371513925757644,0.000778173236883362,-0.00104198111277932
-0.0353711771801414,0.0412974692190376,0.0127028206409427,-0.000209211122928951
-0.0151801603962719,0.0265618551218064,0.0127074554232772,0.00170399430473648
0.0137327928879611,-0.0031510055559307,0.00966743993636613,0.00321319865009851
0.0405125374150581,-0.0318403349467643,0.00941366374393154,0.00337318259179444
0.039456776811136,-0.0326995737459989,0.00736951237630096,0.00239508514660778
0.0147052357970305,-0.00778157904812467,0.000317291283347227,0.00122966839913575
-0.0092737819737724,0.00768574699452024,-0.00403741131212378,0.000499398893695846
-0.0246990811919062,-0.000317531425451892,-0.00143031151906513,0.000178382330131156
-0.0328812484936587,-0.0113509295369854,-0.00084057584264218,0.000107219014054038
-0.0353876009488387,-0.005303003026903,-0.0032420732607612,0.000162161020511425
-0.0330017415872745,0.0131885856567873,-0.000814422855380779,0.000426305734659762
-0.0264250962976751,0.0236756224278532,0.00365307440242443,0.00088495356688289
-0.0199584466474741,0.0171708770722592,0.00348912659988548,0.00141207931181181
-0.0174217449783427,0.00441494615158093,0.000315046124632523,0.00167184942043327
-0.0151132547076229,-0.000673915683568158,-0.000890962252113343,0.00115882677772333
-0.00857102423893668,-0.000608383787741182,-0.000733595496579354,6.54087857267214e-05
0.00148771093375381,-0.00819278802763449,-0.00255657750325978,-0.000918634904864241
0.0128653225002992,-0.021121091222226,-0.00735139322332616,-0.00157286377040869
0.0227312633502459,-0.0253997071369575,-0.012756673349746,-0.00230100925215977
0.0273328191606077,-0.0219435793652085,-0.0138431236446834,-0.00330170543720005
0.0243418314871635,-0.0192720781707257,-0.0105057428254733,-0.00390630069092206
0.0157895850919602,-0.0178307861262866,-0.00711191815690408,-0.00342100344866312
0.00891113816844287,-0.0178834072508721,-0.00538671956838435,-0.00206948368987274
0.00692445257016678,-0.0198823626743086,-0.00599430741046855,-0.000472217916338679
0.00679099643643494,-0.0223329864364182,-0.0088232721323537,0.000993969620341875
0.00660970767534685,-0.024442200727377,-0.0120230466125825,0.00193110419394621
0.00568966837187041,-0.025467036314527,-0.0118718517230207,0.00207189559349156
0.00129523267700723,-0.0257025523456305,-0.00877198208966493,0.00170566355670988
-0.00343737258573717,-0.0250064604061311,-0.00761852917138723,0.00114843546070207
-0.00430179175993199,-0.0208118893703176,-0.00738038790803604,0.000577134048516809
-0.00873730228706071,-0.0132574805014146,-0.0054237141397712,0.000453788019810594
-0.0170080654101842,-0.00787127455321071,-0.00452236889413994,0.00109521224275487
-0.0178811863300439,-0.00631313246046376,-0.00581334652827477,0.00213684051919633
-0.00835902364962637,-0.0051640470569567,-0.00758340603017691,0.0026312380994631
0.00174650442750146,-0.00313010828118656,-0.00753939444805989,0.00206245130098527
0.0043680432018535,4.92015919454926e-05,-0.00373753039866103,0.00101463123513092
0.00483575937207503,0.000843936320377105,-0.00069221187289469,0.000337821564061582
0.00833806181921131,-0.00879477455259906,-0.00225269729100942,0.000318217696365189
0.011734838886875,-0.0262523934004343,-0.00466641170361134,0.000554646155247345
0.01507466433194,-0.0368568781173032,-0.00880383072325645,0.000618289821761995
0.0173933616035533,-0.0321557041239665,-0.0158561043291515,0.000423891568603321
0.0112886980899303,-0.0191871674734796,-0.0175380869251544,-2.30724977619235e-06
-0.000630450160373001,-0.00902102351968511,-0.0139314105236697,-0.000194488832227958
-0.00359187711128968,-0.00206641895879193,-0.0108963910871667,0.000135382108916117
0.0100698264847878,0.00242496893373858,-0.00499302360233143,0.000575709380865499
0.0287336950394122,0.00154625483007141,0.00338779475985559,0.000717707711544768
0.0364583716223914,-0.0029461765259318,0.00832681556523478,0.000250718604480163
0.0312742174476022,-0.00544791654805893,0.00801281229856796,-0.000662770309737994
0.0167473488776299,-0.00274683279613984,0.00175522234338322,-0.00140121468873684
-0.000185303849773874,0.00301456904263977,-0.00556353697221946,-0.00160270838762455
-0.0103240597217201,0.00652506237782784,-0.008299110884799,-0.00105151775642213
-0.0118222414858856,0.00320676018621821,-0.00975375534743388,0.000129691710892935
-0.00608424168775464,-0.00382989974961616,-0.0112536175063939,0.00119841922928484
0.00569582248673865,-0.00655408455200853,-0.00959448682683941,0.00159081521993753
0.0138396032055651,-0.00422624176686225,-0.0077688819437474,0.00136129479616652
0.00595586618943286,-0.000377745798651201,-0.00950728116768382,0.000795924579474686
-0.00857038521491705,0.00338997831493979,-0.0105518442657569,-3.64788647110737e-05
-0.00869990155742117,0.00195062918929577,-0.00689189214560169,-0.00111964824292404
0.00339799072196961,-0.00771545056377839,-0.00177590964700302,-0.00159250082746427
0.0109243820573318,-0.0168973167477592,0.000702386188880098,-0.000814058050451929
0.00982853751671582,-0.0149524541718391,0.00188267281739617,0.000209498256297589
0.00303274881880094,-0.00192568268973521,0.00371097561280224,0.00065302869866172
-0.00739366203671584,0.00999565012295236,0.0058598389496121,0.000669991507611975
-0.0174374550407424,0.0135102256874632,0.00833404827921397,0.000471637817083067
-0.0193550411377779,0.0132639902398383,0.00951476556792099,0.00017404620452766
-0.00923033040668406,0.0091530050132048,0.00850534941123938,-0.000467312103080066
0.000933061638465765,0.00287292435392964,0.00959792572247264,-0.0014824878575518
-0.00079328315895421,0.00209512524454231,0.0135908641259152,-0.00210169629626225
-0.00914900518379845,0.00363567101624389,0.0143820740685358,-0.00187940126798588
-0.0151997357569797,-0.00141273320102555,0.00809974419738958,-0.00156701810583426
-0.0151589500969004,-0.0112988396142463,-0.00215917959104722,-0.00159502199393467
-0.0097673619788184,-0.0199740390429475,-0.0110025033294025,-0.00155572549810664
-0.00286425220788298,-0.0239117922589993,-0.0161179996502802,-0.00155221662680859
0.00721662112113636,-0.0263191856387904,-0.0188067047061089,-0.00163796396224412
0.0223687289497649,-0.0333265571465506,-0.0224391645462927,-0.00137160629749356
0.0360825909118256,-0.0327773904058066,-0.0218387382381238,-0.000472660884727938
0.042074889077316,-0.0149350850337468,-0.0112465868255589,0.00120983066174403
0.0368742844676443,0.00617487187708236,-0.000515179381111612,0.003326986003558
0.0223565676625211,0.0181399888263786,0.00412224203334658,0.00486860028492584
0.00789456101666147,0.019070608731278,0.00690632144531997,0.00507982405312022
-0.0023466696488302,0.0130781301021788,0.00803823280039863,0.00403433405544047
-0.0095051743082817,0.00857756517054446,0.00699482174564316,0.0018632777010351
-0.0127535680713514,0.00662053343715147,0.00458606471649401,-0.00111905111657451
-0.0125672506625103,-0.000406509101919613,0.00169698686871006,-0.00385023123414071
-0.0140506241468192,-0.0089926257483923,0.00155830524576851,-0.00549099278464342
-0.0222888713499088,-0.00354350731031886,0.00600592860609065,-0.00565591998159532
-0.0346867895473132,0.00902812537341101,0.0118798697951114,-0.00435472906067666
-0.0435719225321896,0.00502877436147855,0.0111264253208334,-0.00236779865528546
-0.0469715407515154,-0.0110528780527805,0.002112899431367,-0.000945462006333133
-0.0476020237199632,-0.0122264997786478,-0.0028763812062372,-0.000665609786871248
-0.0469256006988639,0.00753182428901002,0.00519386426017563,-0.00075332083864458
-0.0439536978756568,0.0275830354451328,0.0162507068111288,-0.000227154431944554
-0.0339793570227308,0.0307653106147079,0.0156224681412941,0.000862958294445332
-0.0151549313792568,0.0128707454463585,0.00452493039970672,0.00176492577946638
0.00663739353455238,-0.0127016796607656,-0.00805256986850865,0.0019228536987955
0.02446823887943,-0.017352647902323,-0.0132498735441527,0.00141002904170022
0.0322981072859975,0.00208952403151335,-0.00598897677045786,0.00134508286135386
0.0244812505695128,0.0170133178781869,0.00531443229395526,0.00281683357169994
0.00644214887711067,0.0156212795301732,0.00714036589403653,0.00491376244908477
-0.00435936055034538,0.0137197110128629,0.00269654659558914,0.00554075902648899
0.00120639932473426,0.0154773218918191,0.0084172883835374,0.00408864121509191
0.0150676803394768,0.00964097043544434,0.0201157680764239,0.00208707480629879
0.0251955769389085,0.00353039433344097,0.021284739418933,0.000944409305310125
0.0253517507466863,0.0124875398748343,0.0121490429410225,8.67180531924001e-05
0.0203083768163231,0.027650474376144,0.00399941329430957,-0.00181413795186857
0.0213772470776546,0.0326654070909376,0.00252984570598714,-0.00426069834007263
0.0281684759529249,0.0355113875016329,0.00325896319322983,-0.00538790264523596
0.0299082381344447,0.0513053568779493,0.00896453176536813,-0.00433437039028749
0.0203578801469454,0.0652009026170536,0.020749728660325,-0.00137581477686209
0.00150862621256491,0.0586438422014376,0.0264540974672989,0.00206348997769299
-0.0165513606982077,0.0373093078839695,0.0235451825900346,0.003742159806242
-0.0258965465846772,0.0114292455645391,0.0184132556535859,0.00274417381327795
-0.029410492822389,-0.00954532505990977,0.0123859830981993,0.000135808981479906
-0.0322913936909148,-0.0242541539795738,0.000509283778125799,-0.00261589761409944
-0.03673895618211,-0.0388683242185985,-0.0156043688319132,-0.00526152030656915
-0.0361235615794479,-0.0422523849298822,-0.0165564880800003,-0.00761932330544355
-0.0218771784009462,-0.0299938230681385,-0.00105487651213084,-0.00733157218947178
-0.00308439765921119,-0.0170602728288867,0.00581328270053998,-0.00301005648610742
0.00659187198709472,-0.00360582640703237,-0.000536836227180527,0.00202252243241277
0.00719315136100029,0.0114496041371083,-0.0030897834821962,0.00379005879012886
0.00484928652133089,0.0221302979915848,0.00693872877865578,0.00263066881400599
0.00601991807498607,0.0267727505656818,0.0191237596710057,0.00167161894521291
0.0139924443646615,0.0223003052674512,0.018178590142051,0.00224524837580398
0.0207928281095115,0.0155597250848629,0.00780348401890811,0.00267980498011614
0.0155604635301987,0.0198024878547525,0.00110238141502835,0.00130809129855077
0.00364762284927382,0.0297247225541603,0.000773763716475663,-0.00130646234835888
-0.00179228754559636,0.0325752577912264,0.00438361361349592,-0.00341925770249014
-0.0012896743074381,0.0273632336873694,0.00696231483184788,-0.00432690643232482
-0.00163274449857467,0.0211994840225542,0.00296280116897653,-0.00449012688560499
-0.0031530807948485,0.0158277158089366,-0.00524691305717255,-0.00433549130806616
-0.0069984157668033,0.00189882661156121,-0.0112652683544083,-0.00412514750583166
-0.0181469378883373,-0.0208093260630905,-0.0110469874974621,-0.00374402896808875
-0.0326462463134061,-0.0350186566776949,-0.00691488559876749,-0.00270217477476624
-0.0427498277853538,-0.0272004249900901,-0.00420102088460369,-0.00105676756692182
-0.0496446118612691,-0.00988460601052041,-0.00177881549822422,0.000751939166015416
-0.0547850458253407,-0.00480270088051975,0.00278963375611023,0.00268779233382277
-0.0503829870615859,-0.0100775517008886,0.00830044088247368,0.00446695353415424
-0.0282245725076325,-0.00964062551593438,0.0114592320586027,0.00547548264853243
0.00587342251485518,-0.00270130815604564,0.00869856264078038,0.0053339493082025
0.0334752898058242,-0.00126425777218248,0.00745124865350274,0.00363167316291253
0.0320729928259734,-0.0119499678022109,0.0127477477485711,0.00123394859557075
0.00470392571804525,-0.0347468950914545,0.00674139841545757,-0.00046990653777879
-0.0142166247279671,-0.0438555210653794,-0.0131269093008375,-0.00225901048794855
-0.00596500646337743,-0.0139256487320197,-0.0196487617116215,-0.00433484798116992
0.0157736842147141,0.0235073957139299,-0.00729444719903851,-0.00408423128130806
0.0251183081905456,0.0310092849007967,0.007064731231447,-0.000808029324168342
0.00815613892428604,0.0234630543100163,0.0158141660639093,0.00231463625270023
-0.0243653443237151,0.0259379496554628,0.0131173094108189,0.00280659132425948
-0.0403104990101192,0.0339204051444935,0.00524305844457514,0.000895039082797132
-0.0208198272788568,0.0376260143102042,0.00750728734340373,-0.001286868921417
0.00837324280349572,0.0338415460673628,0.0128867623116085,-0.00120655901623934
0.0154012011232238,0.0228987270001461,0.0121347973817027,0.00102362822889941
0.00410777086292032,0.00856425910959127,0.00995057036646103,0.00296323061088724
-0.00417196647475322,-0.00648741526488633,0.00624250196887871,0.00312462452606328
-0.00294911269602522,-0.0104332469393273,0.000105394156060937,0.00223371060619802
-0.00317489860453327,0.000373718326816647,-0.000510689405573434,0.00203671049275728
-0.0205389464276778,0.00875361101984332,0.00704691331719118,0.00324412778458631
-0.0428206125175999,0.00184308329936374,0.0152836289380114,0.00469525673136922
-0.0367122295521982,-0.0205514432874284,0.015603236449008,0.00497831107627862
-0.00689434687920926,-0.0497450823961623,0.00563860427151341,0.0039590270880773
0.011905554137151,-0.059197057455183,-0.00764023882348906,0.00234319124415246
0.0068121008263978,-0.0326294567882308,-0.0145794396501344,0.000786566376377142
-0.00304761032452547,-0.00287366568550401,-0.0132012549998876,-0.000225818420995198
0.00891930313821417,0.00502527714172782,-0.00975967788656462,-0.000470280075379726
0.046162521084859,0.00578264983622568,-0.00835617278563867,-0.000492365834285744
0.0799956976441343,0.004319231705722,-0.00825567543854254,-0.00121086772972392
0.0848717097148698,0.00746287697392644,-0.00860498756706964,-0.00269371406527705
0.0714203445296847,0.0242584025709031,-0.00471144896648266,-0.00401728528854602
0.0551901249215579,0.0355848208012364,0.0051878503129741,-0.00436972965483498
0.0318814229953723,0.0289890459786842,0.0102673672528046,-0.00365538691459931
0.00721369155979699,0.0182336867410821,0.00641677210962956,-0.00237705978040726
-0.00197192970994741,0.0143944123795972,0.00195318020634173,-0.00109830555829151
0.00291207531825466,0.0120649195564999,0.000454703928641005,0.000144189487122671
0.00501829758862463,0.00399726866184635,-0.00120103349268367,0.0015979987723461
-0.00257100157724044,-0.00606471265359519,-0.00446587068882531,0.00299350508122556
-0.0110488453694671,-0.0120960840217808,-0.00810754517516519,0.00357454423353652
-0.0115906316782253,-0.0151356460762507,-0.00826488254255593,0.00304601138167242
-0.00238260488491964,-0.0198688840967603,-0.0057495229674413,0.00199672771674775
0.0112741070351567,-0.0271494314597944,-0.00656581958419798,0.00127243288416353
0.02093573322372,-0.0300164037609131,-0.00715904449271385,0.000860080705178648
0.031522490061195,-0.0251080295814247,-0.00438672913781732,0.00035683624761204
0.0488785088021294,-0.0193286654056536,-0.00374095131693283,-4.35178219212284e-05
0.0600708251327994,-0.0160622889894154,-0.00565503165851174,-0.00027947080566816
0.0584307361792367,-0.0134268373721574,-0.00615022409217684,-0.000640183322308138
0.0531605923020445,-0.00934806353527552,-0.00377750410828957,-0.00110732371316758
0.0470041213347202,-0.00412346446928957,-0.0020219040875732,-0.00144696188880322
0.0323406409051988,-0.00504514466364659,-0.0057761210246342,-0.00175857350389192
0.00626127025640462,-0.0173431239883635,-0.0149647565420622,-0.00249480794206536
-0.018400593142614,-0.0295749450511239,-0.0249406681923673,-0.00390488387876806
-0.0271071914333868,-0.0266239260433341,-0.0290521917279552,-0.00548217276994076
-0.0231608403113681,-0.013221366289701,-0.0238146742933326,-0.00609444093624413
-0.0162053110487467,-0.00305939641298111,-0.0122485376626128,-0.00492687331258517
-0.00905116071813954,-0.000545287605780549,-0.00178039441304573,-0.00216466916818688
-0.00531974570710341,-0.00206652945409687,0.00505058827688741,0.00115791281855895
-0.00637069946947652,-0.00159799326700373,0.00970593973145818,0.00400493545447469
-0.00514764825690205,0.00243945403932845,0.0114976528973192,0.00592048332319846
0.00092814496803856,0.00618279041641924,0.0103269486979191,0.00697668515920962
0.0071992120300828,0.00693213571682683,0.00710792672351899,0.0073386836064784
0.0117583998002179,0.00457080194305919,0.00285131859876394,0.00682830644726897
0.0150290873801133,0.00130128669968886,2.44598624489448e-05,0.00528276574174
0.0174622568871737,-0.000338387541207142,0.00112006610219354,0.0033581695024364
0.0200958962569863,-0.000437096506301988,0.00398932510602677,0.00200983358187795
0.023060326138498,-0.000921216233959467,0.00610325437333971,0.00139936862930944
0.0232514179733896,-0.00302719886269511,0.0088694837922047,0.00133746185823216
0.0150225641112785,-0.00567200915624667,0.0116309903081555,0.00176867642809784
-0.000204586097113435,-0.00556612162458411,0.0125923692556288,0.00237036785265397
-0.0135195609659827,-0.00189875222873221,0.013452573667427,0.0026081077340223
-0.0206316785236928,0.00124206120775801,0.0141321747671621,0.00232931662963016
-0.0219638651483486,0.000940589567082542,0.012794269359908,0.00178022749358042
-0.0200792729771762,-0.00629913900145083,0.00800475697941523,0.00127893917443403
-0.0181743168136218,-0.0197085268080707,0.00198659795190244,0.000778673739512056
-0.0193589866718572,-0.0233980056594937,0.00312661542799846,0.000218513048885674
-0.0253817399689933,-0.0107667789769157,0.011998009835601,0.000172643682837211
-0.0324523098053712,0.00218739725483792,0.0174571658294786,0.00103984362950592
-0.0353420373592187,0.0066270025256441,0.0153407970941741,0.00230708346307128
-0.0325666596673416,0.00341439482010371,0.0101774731262693,0.00307038029397888
-0.0271818682451494,-0.00779916042085812,0.00356285544352761,0.00288942927505724
-0.0228700160512677,-0.0176404000320829,-0.00160161727285874,0.00189378458746744
-0.0210348151740977,-0.0134521058020458,-0.00196710323239422,0.000550996686469936
-0.0191726954927422,-0.00185904576297839,0.000213429857288945,-0.000423770423309814
-0.0133971298756805,0.00355687354172443,0.00124833903067376,-0.000497401081025045
-0.00680347783415621,0.00337157246694092,0.000972757427997786,0.000143076319419748
-0.00306737693817411,-0.000356349524366309,-0.00174649698707757,0.000696508592834934
-0.00281660658910183,-0.00899874487557088,-0.0110565821111205,0.000441620612057175
-0.00995971323565588,-0.0230669162719238,-0.022953451319206,-0.00102649832079224
-0.0212691877815338,-0.0294397448028497,-0.0266792008636411,-0.00386955417754484
-0.0237192132753501,-0.00616513748248066,-0.0148171622070953,-0.00686296980773517
-0.0132389734470958,0.0304187549682609,0.00760619785997718,-0.00680692367991882
-0.0024943174061343,0.0404768964776107,0.0181553248980631,-0.00242044816882951
0.000265213260826661,0.0217420067497407,0.00788755089337976,0.00239771043370011
-0.00168503247107265,0.00412338075015068,-0.00319503964742913,0.00333044421514997
-0.00984777108420615,0.00480984018705337,-0.00292938281788037,0.00100699773397107
-0.020586476088706,0.0144393707494072,0.00303673123542443,-0.00163771553806395
-0.0225492850916459,0.0209218432830309,0.00682029577928957,-0.00337009250570337
-0.0129775637675781,0.0236460909295118,0.00292340977983959,-0.0040716159313954
0.00436579386637413,0.0216208305062391,-0.00177699464159988,-0.00393409197796579
0.0204274773813433,0.0150249964936191,-0.000166709104564014,-0.00362247822053339
0.0229752901355508,0.0113786857465031,0.00105564525102475,-0.00356192868814486
0.0121162447459588,0.00724651156459583,-0.0028758696951581,-0.00361077942133476
-0.00189925423617809,-0.00416048755072271,-0.00959051767938435,-0.00359099130418875
-0.0101072555286526,-0.022203759958529,-0.0172612351880663,-0.00360356970833884
-0.00773995760986521,-0.043923321268935,-0.0248193525789306,-0.00366187727874686
-0.00186198227490251,-0.053655410485514,-0.0276079714887182,-0.00357136868911439
0.00164401808223254,-0.0450641456700335,-0.0194026892914876,-0.00342919885339152
0.00565123926052879,-0.0283944810221709,-0.0025673595711464,-0.00335305758856644
0.00738635335379301,-0.00760996046687425,0.011674730123532,-0.00323383511387347
0.00672637909550699,0.0120978915887078,0.0148858160021862,-0.00313939856616554
0.00839191986048335,0.0214270978438324,0.0089636339902326,-0.00324518676738016
0.00831885182762728,0.0200029367852563,0.00373076875372932,-0.00367163131856054
0.000977073700379283,0.0145118356120802,0.00224467006932954,-0.00409066979733431
-0.00359186965005645,0.0108678467102499,-0.000851523234501101,-0.00382569489925847
0.00367669982661757,0.0107698891523276,-0.00498372493032428,-0.00271657420679697
0.0138850809574513,0.0132034726826068,-0.00628514630186004,-0.00127436349849366
0.0181954619846913,0.0178834443779399,-0.00618665641718585,-0.000100987209671799
0.0176747344094924,0.0200030719938494,-0.00607052162457001,0.000415365596623708
0.0150583215711354,0.0135102803080272,-0.00539966605654777,0.000230938140644788
0.0108036056047946,0.000143608546920171,-0.00591322570629839,-0.000379620051442253
0.00737354615565206,-0.0104274270895758,-0.00615806807798719,-0.00107085573426961
0.0065736345670189,-0.00928023608522635,-0.0021717439535405,-0.00119992418461632
0.00529870059328877,6.84762551261351e-05,0.00352283720904773,-0.000417522768189592
0.0015054434088353,0.00828479176540132,0.00524019681688836,0.0007666290722989
-0.00135935517350371,0.0110279041560649,0.00409001073559548,0.00154941285739462
0.000153334819935097,0.00801188702206235,0.00384065216237744,0.0016465508080024
0.00452111608268183,0.00252337494534778,0.00270278017684036,0.00170836962167055
0.00670201352714145,-0.00130198222194303,0.000582546185705078,0.00196682592177243
0.00466319306181289,-0.00326141010937488,0.00111620032901678,0.00180756587435027
-0.00179885420663284,-0.00377872150150328,0.00225682471686174,0.00101719925963046
-0.0115733939212805,-0.00234572029563927,0.00108442835187095,0.000129390909854304
-0.0166159764427992,-0.00189745153085103,-0.00117472858175781,-0.000136470432267459
-0.010702315391369,-0.00889434725939181,-0.00369782488980038,0.000120211789394461
0.00109855299718352,-0.0247978795179705,-0.00438016171773153,2.86855534864966e-05
0.00521229586705268,-0.0375365220847581,-4.32517828511322e-05,-0.000690757571923292
-0.0038843474232035,-0.0395634090065724,0.00237303778925332,-0.00164495352562372
-0.0140072220828592,-0.0338864644289782,-0.00282942552457574,-0.0028299859760997
-0.0168972804757624,-0.0151560701127538,-0.00259636271400613,-0.00369697531829033
-0.0169429832595766,0.00908103565278979,0.00591474670975772,-0.00250615858039109
-0.0134972285627184,0.0117162665554162,0.00816447932913679,0.000949843288282881
-0.00287868721212674,-0.00386770710885645,0.00169927303891596,0.00424850518447896
0.00141353773632773,-0.00990010161489753,-0.00342680975200473,0.00518156902679757
-0.00708371244459269,-0.00512825900275633,-0.00376694115828928,0.00375922138157443
-0.00557758349586327,0.00162197093606648,-0.00337330066803676,0.0013442444972068
0.0105828930861559,0.0115060981759346,-0.000526899493509925,-0.000749595843859015
0.0200922935149187,0.0195828884264642,0.00312888486985392,-0.00133488136377672
0.016096103367487,0.0193242511819052,0.00240112712160521,-0.000196156171873437
0.009763755203845,0.014783224859816,0.00202132385153542,0.00135003738702697
0.0068181248566346,0.0129756738586396,0.00594213927807608,0.00233848915517968
0.00271570630508654,0.0107480259240454,0.00631432812429971,0.00263483629145113
-0.00312679909440067,0.00262292950015571,-0.00193196898031768,0.00219106297846234
-0.00651546310294248,-0.00935505093463353,-0.0101266955122427,0.00126502181956555
-0.00748803843648554,-0.01818214914234,-0.0136017817565443,0.000225006921762248
-0.00822184361908387,-0.0187840665296944,-0.012100010471426,-0.000675451260673002
-0.00912798409037573,-0.0137043643396899,-0.00548486464763,-0.00117351140446874
-0.0113415592527285,-0.00512835338882366,0.000576485059264609,-0.00129145751444355
-0.0132705435162717,0.00627706647671443,0.00285385762207531,-0.00130676868552311
-0.0116519371782756,0.0139965624550942,-0.000417528912225151,-0.00141227741618937
-0.00690592570505349,0.0099662817126056,-0.00791745931442138,-0.00180810233252242
-0.00232964322118719,-0.00304600602721954,-0.009438858670013,-0.00250516326091584
0.00202003708791822,-0.0116188880566754,-0.0029445434807439,-0.00285163953110194
0.00540477345274384,-0.0116252904216077,0.00275318886268035,-0.00225083459301736
0.00555397693617715,-0.0117370605214183,0.00642057975517852,-0.00114007471787461
0.00376218404897127,-0.0170204156460191,0.00975361395578487,-0.000138892604500747
-0.00128139547786398,-0.0207014193250098,0.0104328602647872,0.000645314829103426
-0.00799926845426937,-0.0116129100696344,0.00943431350534086,0.00133507695774899
-0.0090804815521094,0.00979065223882222,0.00937119126060748,0.00204887019715231
-0.00224429284485223,0.0283411986434,0.00963073873360483,0.00252534032725347
0.00707680479075055,0.0317207850651573,0.0102111810305305,0.00254738647265174
0.00847292603220477,0.0233312461317418,0.00953871529647307,0.00216267281726671
-0.00355511585631342,0.0162513573947902,0.008014218717052,0.00149435481460754
-0.0221424451013383,0.0144622158857977,0.00771311595569875,0.00109752582931415
-0.040553625931228,0.0153283302397921,0.00694945759031221,0.00150107356769509
-0.0590291260711227,0.0226580226314024,0.0095016565643091,0.00257444709197696
-0.0682497808499148,0.0306410835263374,0.017624676894951,0.00362271510281836
-0.0532726903259621,0.0229965250526002,0.0216505870812329,0.00359175770308398
-0.0134789644233242,-0.00237886102812478,0.0149082472676209,0.00195111576810996
0.0284590973983602,-0.0265116496886718,0.00374568211210847,-0.000593966499821091
0.0471485918740026,-0.0306014896681152,-0.00531405062120063,-0.00245319750031887
0.0451260928470465,-0.0181863654783651,-0.0134984936679183,-0.00250531653051471
0.033287172285135,-0.00492393011537215,-0.0177415812886577,-0.00139000544149544
0.0195735283184746,-9.10835994439967e-05,-0.0130710981370388,-0.000595340564498656
0.01523631102617,-0.00486607819090702,-0.00558009538655755,-0.000519322342426497
0.014553618181117,-0.0171542874932684,-0.00273831911143032,-0.00042637773363117
0.00484629316647891,-0.0248428507207905,-0.00350895077364734,-0.000255633089950642
-0.00741188487333372,-0.00861354006283955,0.00176783730655245,-0.000466253675661208
-0.0165887877343105,0.0225703813017597,0.0159860984607526,-0.000115670303080082
-0.0320548268161067,0.0320486200164944,0.0228585909751945,0.00191678334263864
-0.0509269442679915,0.00682393025035755,0.0113667752422548,0.00371703962309847
-0.0568333391034282,-0.012458353177558,-0.000489813573552936,0.00240652058240891
-0.0503453745602537,0.00919571456862077,0.00621863275375501,-0.000477004634469716
-0.0450695608381668,0.0391427551642337,0.0191529643421664,-0.00113267272470313
-0.043962429244273,0.0380835526559316,0.0250504172067059,0.000470832727414111
-0.040350948725432,0.0154782274934352,0.0274605596681142,0.00195551360418
-0.0322297741063887,-0.00259005921592533,0.0257109527936958,0.00228720592049414
-0.0210329159713292,-0.00638601046124584,0.020857029071013,0.00184057082892462
-0.00550598429270537,-0.00212188356532016,0.0180992595252869,0.0018354546729052
0.0161508296272894,0.0030953342200591,0.0144383521401225,0.00250514877550122
0.0341929317038019,0.00659526912756592,0.00661272175922489,0.00257744579909312
0.0313613623730312,0.00664549000211663,-0.00218866787672065,0.00161867711438337
0.0118503655508802,0.00477275432879157,-0.00912472415302721,0.000503407172482018
-0.00797931899195161,0.00577203075133273,-0.0130438483298357,1.59384980743093e-05
-0.0229969298466197,0.0103361103367284,-0.0138770281901628,-6.11584395962541e-05
-0.0310873826168543,0.0124435090951308,-0.0145058461501702,-0.000496303588659289
-0.0220213746016603,0.00509377677509472,-0.01548059241708,-0.00145567835342105
0.00832215542237309,-0.00789750327406806,-0.0135702010620329,-0.00215976531622222
0.0425969594736146,-0.0188469484505105,-0.00812488645214737,-0.00187908043693719
0.0507743518183209,-0.0277179541101226,-0.00325066403819601,-0.00090391573605285
0.0202646691390616,-0.0276812672309142,-0.000777694099688288,-6.54475617026171e-05
-0.0219160714280647,-0.00904148244575077,0.0062113785582281,0.000180461791569878
-0.0407089758926429,0.0169020696539247,0.0171703228713656,-0.000278581288202294
-0.0358768878197918,0.0291625884977019,0.020549632295466,-0.0014108383244044
-0.0267046498046718,0.0264234678296738,0.0174290577489703,-0.00282563194300758
-0.0179680631622894,0.014811661072287,0.0127784697566063,-0.00364695294008583
-0.0074447564079973,-0.00461396800636615,0.00670482717820977,-0.00304651989476425
-0.00135192126830417,-0.016642494770584,0.00711992836797426,-0.0011690346448622
-0.00329132988616136,-0.0100651103019783,0.0131046203003219,0.00111021201025418
-0.00887783662894797,0.00310573814770214,0.0113092128039537,0.00255346333853866
-0.0204644956390066,0.018009456744615,0.00796072449931451,0.00226604480856035
-0.0441762443348021,0.0356833327837235,0.0148446216089343,0.00148256095304942
-0.0697937050007244,0.0422297395463656,0.0179036265321717,0.00186967582331142
-0.0796325087197392,0.0373844189421414,0.00887371995971194,0.00267488522934788
-0.0758541739800396,0.0434370033076921,0.00300298702542191,0.00283343918579074
-0.0712598054002505,0.0614016058716055,0.0106014011292276,0.00281012369460129
-0.0640656551884394,0.06597616821032,0.0279193735769828,0.00290503746217181
-0.0373618158323021,0.0501694176066655,0.0422363264523826,0.00272654420316584
0.0231513368630357,0.0249575509854196,0.0406624451573782,0.00196220965788823
0.105038135741265,-1.27399854896182e-06,0.0269230685178599,0.00054176390355885
0.165937035932837,-0.0134698630397245,0.0125686749296018,-0.0013535372890968
0.164142359709934,-0.0208647892086041,-0.00126241948053608,-0.00361120852901596
0.104074682801636,-0.0378471025696122,-0.0159491610293722,-0.00635095204209591
0.0431187959979233,-0.0562479010386744,-0.0287131574000388,-0.00943029340289914
0.0194730106928543,-0.0497048432943914,-0.0352699135975186,-0.0116397092909495
0.0140917330765683,-0.0148611574398271,-0.0295063212739724,-0.0107125458482341
0.00294328987683908,0.0166339425156822,-0.0129365462269883,-0.00602107463838237
-0.0133763234134722,0.020572624272557,0.0021573594045403,-0.000129019181665687
-0.02225701205087,0.000413633637472426,0.00817776115953636,0.00423223808759072
-0.0158393547464681,-0.0230469068877883,0.00926720764011612,0.00648237322012983
-0.00580306771929306,-0.0242098439991672,0.0116010740779049,0.00708180312422119
-0.0039464382821053,-0.00237638474820349,0.0141463837567642,0.00655143865163456
-0.00584696427608245,0.0208574629045674,0.0117523101874003,0.00558470692649312
-0.00467898073645118,0.0330324190034965,0.00629325185031685,0.00474087405811056
0.00697588532935266,0.033967130559914,0.00697386604799483,0.00394971039616848
0.030419934329399,0.0268314391323351,0.0114854713955261,0.00282511503508074
0.0558929012441774,0.0174140953097401,0.0102874202029328,0.00146099412426996
0.0692725606717086,0.012699048284505,0.0060895897037172,0.000314530809106979
0.070411390183889,0.0102577647111686,0.00231260409088166,-0.00072083372905096
0.0757991612031482,-2.80484476811241e-05,-0.00641031616060673,-0.0023801689034087
0.0861068853196779,-0.0130644716138838,-0.0169723031510567,-0.00495442774456665
0.084984489094223,-0.0149584024843643,-0.0198133251580788,-0.00743615144304718
0.0730486198949467,-0.0137798236626748,-0.0175512007812756,-0.0084768739094879
0.0590710445105372,-0.0227031089962788,-0.0166203648699063,-0.00775149002842336
0.0355359023777182,-0.0269814257892402,-0.0166399152031016,-0.00565844544236685
0.00406253410922863,-0.0147858899831239,-0.0158195547970917,-0.00280533499232749
-0.0107812559190259,-0.0030682070568457,-0.0194668213657758,-7.17025826887938e-05
-3.39758445607415e-05,-0.00375232700550592,-0.0316838306307645,0.00104586808699074
0.0153669909535597,-0.00575912651192795,-0.0370227091586091,-0.000215183000101836
0.0207370521876688,-4.5061350399331e-05,-0.0260366673247882,-0.00107107147077667
0.0180059500534725,0.000684131164226903,-0.0157505403038755,0.00178678719353502
0.0146702597910115,-0.0142185643258345,-0.0155900657720466,0.00651533538156148
0.0186010390844313,-0.0267173242164329,-0.0187024376926932,0.00879014284599619
0.0276668002408705,-0.0225270667384409,-0.0201671338303307,0.00736455244407311
0.0354908840804521,-0.017682031037091,-0.0199573017787417,0.0042314829551744
0.0366479021680984,-0.0248012495434521,-0.0152945126284777,0.00188233852951215
0.0258923050396109,-0.0358473909212772,-0.00283578471321319,0.00104936142788255
0.010461577122739,-0.0462241313603794,0.00892158645041847,0.000879048774338659
0.000374024606253725,-0.0588380583609925,0.0122481386995307,0.000635401873874042
-0.003771991425858,-0.0630026385021803,0.00947433128232981,0.000523655275367116
-0.00440971693884382,-0.043685659141158,0.00440055207181593,0.000878975238165262
-0.0116070103424239,-0.00906308200237045,0.00188732153303692,0.000935308023445084
-0.0299080884119848,0.0182746695994654,0.0053218179443399,2.30943968867357e-05
-0.0441937336044223,0.0289614909843402,0.00794865036975405,-0.00109127149666272
-0.0471393305443365,0.0276935405553833,-3.52562179894364e-05,-0.00168502416348099
-0.0467479531722624,0.0217826332037743,-0.0170619391411524,-0.00212579102284701
-0.044799788685796,0.01105256246542,-0.0313837718271242,-0.00290368414308506
-0.034785642242345,-0.00349613571471931,-0.0287853122331552,-0.00352723203583822
-0.0157056024189935,-0.00300496628034297,-0.00730483424437647,-0.00306654405539381
-0.00264911642995459,0.015886113587584,0.0145479159251001,-0.00123095525115953
-0.00737555429475819,0.0261332281861397,0.0168171977127271,0.00131314507373899
-0.0112292391209416,0.0151017772370537,0.00342112590786568,0.00311418160316496
0.0119916679602431,-0.0014454711227818,-0.00548905986929051,0.00345424285273743
0.0446818810092573,-0.00583965632417291,-0.00467439960183648,0.00304598144523857
0.0467650886480311,0.000862268794795899,-0.00269701486989791,0.0027345727613924
0.0191316986724103,0.00801161863976669,-0.000473504719079878,0.00259368593522347
-0.00969703126384278,0.0119489045065549,0.00492294670578725,0.00231527475826794
-0.0286567938264041,0.0100619762379577,0.0107750434339489,0.00199752319028138
-0.0392088318226211,0.00328918475504578,0.0120701309581486,0.0020322835937215
-0.038455021433657,-0.00448084749728798,0.00848931986555393,0.00252183032967349
-0.0267465959084308,-0.00811407660004062,0.00575241292394038,0.00308899613374555
-0.017108284933007,-0.00661147444265274,0.00412448456807079,0.00321331317822982
-0.0155173471011334,-0.0177049278072711,-0.00154417718978628,0.00254215451590577
-0.00566543216278472,-0.0506516530431069,-0.0142021649558716,0.00114601666403506
0.0146437136871562,-0.078547748748306,-0.0277694381042725,-0.000439314772117582
0.0212179730526377,-0.0668652787075864,-0.0288189202407291,-0.0016693991025913
0.00996612581990698,-0.0203865447643051,-0.0151886694303582,-0.00209598401143916
-0.00179983003303953,0.0208577444444606,3.32585855566461e-05,-0.00177805424441959
-0.00823435845840201,0.0332661281684212,0.0055419489626957,-0.00142418553563019
-0.0098691283204136,0.0289137674383765,0.00403326033845613,-0.00147103918187732
-0.0042477495940284,0.0260077383697835,0.00320979304668611,-0.00184176712292239
0.00566953906665998,0.0260802588101563,0.00392653757401254,-0.00208866275189103
0.0102661652223766,0.0228148431116583,0.00335592643506762,-0.00175049232809805
0.00739530280861831,0.0131410357452522,0.00264930908123849,-0.00108286669887739
0.00331733194464316,0.00261627726280728,0.00248221174169357,-0.000477624604710719
0.00118794027331993,0.000986669969864607,0.00150891749979023,0.000178209726582977
0.00184252812310922,0.00472308527946773,-0.000277047541910355,0.000930557066903774
0.00591643784687487,0.00277783850199008,-0.00198229747593953,0.00149970119406931
0.0103974572103958,-0.00738744442600939,-0.00273341706238098,0.00150025057902278
0.0158321995222391,-0.0178055467074852,-0.00483785109878781,0.000914494585226022
0.0201958560681049,-0.0187280162868709,-0.0108311123864751,0.000247499898693875
0.0157322302112265,-0.0111614328534158,-0.0178172813717796,-0.000377699485677978
0.00388891803103297,-0.00305761413608838,-0.0207627929928882,-0.0011134854658056
-0.00815037472326432,0.00289938306910318,-0.017922985866775,-0.00154646588397338
-0.0148596788232827,0.00349935577211987,-0.0107847088597057,-0.00137283722077378
-0.0155495338011131,-0.00377054150809817,-0.004038404297919,-0.000680290504466135
-0.0130294554155377,-0.0136160935607896,-0.00355106900144455,0.000382168690760928
-0.00536711131042651,-0.0215000017095693,-0.00722061428211243,0.00125803610883315
0.00808904499342723,-0.0250238505364679,-0.00787207097885891,0.00158095589451741
0.0188229176773159,-0.0241362004270814,-0.00491241634884186,0.00169677607788513
0.0200324102035776,-0.0203132833194801,-0.0022352307852161,0.00179768417353228
0.0113472761781154,-0.0138980870299915,0.000289132243116912,0.001605322620768
-0.00230593617849084,-0.00516554413698797,0.00524393052900451,0.000986027520986425
-0.0163288966129987,0.00559487412581265,0.00904427715651919,0.000148524901763555
-0.0297796960512289,0.0166044146987565,0.0081203178001671,-0.000752378809328102
-0.0334779983351087,0.0255194297006348,0.00647485298169646,-0.0018101865075926
-0.0242389949312685,0.0290453957452213,0.00705894052303982,-0.00277622628814578
-0.0181788695634809,0.0251880279047118,0.00547659395347179,-0.00299995504960923
-0.0205965772354267,0.015400711273535,0.00255029939014862,-0.00232746826041147
-0.0203748739897223,0.00731795460387316,0.00554936678742996,-0.00111941929551075
-0.0140533699392857,0.010429942835304,0.0153343572059995,0.000390027443044349
-0.0109182131511285,0.018883170123487,0.0261673398902556,0.00233851228283179
-0.00967486334845401,0.0190330250921254,0.0293402570004917,0.00442503657475105
0.00220393653710654,0.00800444680422736,0.0204544388832929,0.00544695281137784
0.0149359518367236,-0.00903471460628714,0.00555910396346307,0.00448062398300684
0.0173514378873672,-0.0296726635657807,-0.00595730650270074,0.0018270845319591
0.0177379592600567,-0.0466970206410179,-0.011655105108753,-0.00120931992481861
0.0207591969212721,-0.0494169667259041,-0.0183251619202428,-0.00364801191761958
0.0228586670695528,-0.029391065488916,-0.0236950677843339,-0.00592778734017608
0.0206285460841416,0.0105628507546768,-0.0144622838738233,-0.00725993384419023
0.0164266942199514,0.0318903148226539,-0.000337221054708382,-0.00473157017441307
0.013584673566888,0.0102128859430347,0.00215803866095688,0.00084912238695045
0.0135446588826488,-0.0207606952163921,0.000562358238219741,0.00457018857383549
0.0134653158167713,-0.0273181972537489,0.00355483488716089,0.00446102443574696
0.00698938713710155,-0.01557405032224,0.00883989665748142,0.0029016466949971
0.00087053305994321,-0.00269740174345773,0.0128840075815477,0.00226110856933067
0.00474946470331386,0.00763228687582028,0.0152220900533587,0.00259744443241069
0.0129152433606789,0.0161947844771506,0.0170017308593458,0.00290778375161443
0.0180034963557446,0.0222120514327867,0.0182041369680262,0.00260190433092499
0.0173759242558405,0.0291134113983652,0.0199611097743125,0.00177807945935028
0.00420254667225848,0.0372732458418617,0.0214284477492328,0.000803518118850816
-0.0217506275645678,0.0370057133493929,0.0163018657512425,-0.000693042070918659
-0.0404028917148748,0.0229939677352157,-0.000778399372372698,-0.00323846142712778
-0.0390396567670978,-0.000656842004324067,-0.0250569740709095,-0.00675224408348058
-0.0279042626592557,-0.0191316373671528,-0.037841163248739,-0.0108111402409008
-0.0131581752609562,-0.0174242967484438,-0.0260207210675897,-0.0127864359651718
0.000548569610661104,-0.0125189068413018,-0.00642981197204532,-0.00867535304614292
0.00629078786729947,-0.0240134672124333,-0.00443231532967077,0.000607112860095871
0.0073935538199187,-0.0410835540324798,-0.0181098268253233,0.00825224902344691
0.0107586794530589,-0.0477340072798376,-0.0242139539225977,0.00941499374407597
0.0150703826085073,-0.0410818834390903,-0.0145336750416532,0.00604099762930086
0.0135771473394288,-0.0312857922526155,-0.00325709375416906,0.00266492831637407
0.00716092525131454,-0.0288995400937159,0.00092895697142667,0.00114415561697054
0.00101415645143349,-0.035395829072953,-0.000254433728376852,0.00088092366705506
-0.00228081972414385,-0.0422035229577197,0.000349263496809006,0.000877652821842251
-0.00509470370578411,-0.0348252592579155,0.00923726414907177,0.000664442369496561
-0.0136061157888621,-0.0125362891894231,0.0186422997876098,0.000259645473545771
-0.0293172406319299,0.0100779713197595,0.020210534803611,-0.000631849394638483
-0.0485853669509185,0.0246581294332273,0.0187766327711431,-0.00200161011381004
-0.0649296747596205,0.0317594834619039,0.0194559028556634,-0.00305577325941912
-0.0665406312490627,0.0267657205444153,0.0134289645056532,-0.00309968407748579
-0.0457724728290143,0.0125422669457843,-0.00430956511180492,-0.00267877396513859
-0.00967209651427135,0.0179445503941535,-0.00939306461237445,-0.00274963318866279
0.0135847783091513,0.0452107023705383,0.0110887933032312,-0.00170533434095028
0.00158167304120094,0.0530396747837718,0.0281246597727127,0.00220841092742817
-0.0255275162916928,0.0275638123248751,0.0224007083293555,0.00635553004010472
-0.0415722155468513,-0.00640259178573199,0.00574360256186463,0.00691687815807797
-0.0381625897664685,-0.0307439845173333,-0.00870388366679337,0.00380055567504
-0.0255639063537622,-0.0374392664888276,-0.013903893133494,-0.000323860031360842
-0.0291864373477969,-0.0239904897893317,-0.0128041815185435,-0.00302490149914044
-0.0353045375012889,-0.00965046437233242,-0.0168312490289426,-0.00382292648786705
-0.00909177967179391,-0.010441708639632,-0.0246019028139205,-0.00400609453971175
0.0364993342282581,-0.0201437203167884,-0.0255688176227793,-0.00365486423362729
0.0599448040523159,-0.0378198483015102,-0.0206951095015392,-0.00164911699764352
0.0502139672408241,-0.0604078320609259,-0.0137186066107995,0.000807387375509554
0.0260928108531167,-0.0533531511283297,0.00261804521979692,0.00136371873745597
-0.00840981141331881,-0.00459624759236361,0.0249853887732045,7.36850538524982e-05
-0.0517163345240226,0.0394267966006625,0.0357674595759785,-0.0012219284261695
-0.0758986073211167,0.0566433626624114,0.0291770001534082,-0.0016591647839206
-0.0619697742709159,0.0673627741322598,0.0198970880640051,-0.00197481297715577
-0.0245672551234682,0.0719640041422291,0.0201578396767713,-0.0022600245158724
0.00492597508071233,0.0564294752868618,0.0144297832890362,-0.00143932888395604
0.0039602167288982,0.0283570163059391,-0.00967550721885957,6.56733994456376e-05
-0.0184637338438586,0.0118681438033025,-0.0318605316606889,0.000560942995085761
-0.0302361329967472,0.00780426026827746,-0.0370629584030533,-0.000233016172484486
-0.0132938395498775,-0.00168063370651679,-0.0387912742491194,-0.00141184360817768
0.0164452527430861,-0.0158489483701538,-0.0387874832836135,-0.00265948019383826
0.0311432861786487,-0.0252136830530152,-0.0223325031214294,-0.00341684539396815
0.027814170470702,-0.0195148084648886,-9.72653897600567e-05,-0.00248949901562573
0.0250895291567882,0.00446228206667818,0.0082438219861803,-0.000327991453994455
0.0396095104279972,0.0269268917871485,0.00774999415015757,0.00117398251098546
0.0701044836719504,0.0304387658955394,0.00759138354222066,0.00126409733029978
0.095784139723834,0.0183131188264569,0.00808117745184634,0.000811581490583201
0.106508969675993,0.000657126051391302,0.0106134735221897,0.000567496609738813
0.101093162115655,-0.0151176221367106,0.0140091834365793,0.000491946357560274
0.0720696042468461,-0.022169293276209,0.0144722407727437,0.000299608690868311
0.0243644916479637,-0.0174678028498667,0.00785052399116863,-0.000381307009931067
-0.0156285584238966,-0.0126679188408294,-0.00195146243327605,-0.00182038532168415
-0.0279501441317043,-0.0163117058757599,-0.00660778626633497,-0.00332182555343474
-0.0221668614597267,-0.0278357814177038,-0.0132642257972699,-0.00349861200574899
-0.0135816986918464,-0.0454913950919178,-0.0268270071336492,-0.00258899682379999
-0.0115029372954232,-0.036199434018696,-0.03597936730724,-0.00232973094600843
-0.0174428031168546,0.0168090483798943,-0.0337284530902178,-0.00335866770933287
-0.0191465799315372,0.0645552879866435,-0.0285795685507896,-0.00430529299128615
-0.00918765623115746,0.0708574059432662,-0.0285494180383112,-0.00392219305600139
0.00884588238609539,0.0562780924233944,-0.0238505166997108,-0.00305688570244584
0.0228704974046811,0.0533674384951493,-0.0060726284634424,-0.00243642246117688
0.0212614643007627,0.0649488872518649,0.0143136008404087,-0.000702810518069823
0.011607989871708,0.0687575981865287,0.0216887006462841,0.00279122555463235
0.00497806250086632,0.0565463432959794,0.0178152752247832,0.00587667465832593
-0.00128946352865778,0.0410769464486548,0.014995906665041,0.00667359310006315
-0.0110573023499134,0.0320135604877734,0.0125360500754079,0.00589446088964934
-0.0172400925028643,0.02857039320335,0.00684970822122572,0.00472837335058144
-0.00948111959887244,0.0178054674572315,0.00378477329627056,0.00345027140914466
0.0107987041530851,-0.00224912699341726,0.00724377379969648,0.00218471136481024
0.0248626007696502,-0.0125882484819057,0.0118986308014259,0.00148118540448007
0.00927361313156344,-0.0165872504084556,0.011336057247683,0.00164581322267379
-0.0303040682657704,-0.0289735662721796,0.00504679556047017,0.00195017777834196
-0.055735491945804,-0.0338789691693806,-0.00164283015458043,0.00156343891466929
-0.0506693682086196,-0.0147682686185715,-0.00259189133394928,0.000861495515083074
-0.0391022326974369,0.0137518242143132,0.00122847330249477,0.00101421203248937
-0.0313111854167688,0.0180404041440782,0.00336881422789227,0.00223742403462486
-0.0188169194465874,-0.013379621508305,0.00113000494896329,0.00357859229884878
-0.00625499487952721,-0.0431347792356616,-0.0043908587603695,0.00421058982308762
