-0.113983461081272,0.0354244242547015,-0.0041012839351232,0.000372736725100807
-0.0870002520721423,0.0239299866521599,-0.00422726896558735,0.000431793550555933
-0.0434950128889936,-0.0123934937993206,-0.00421287522376755,0.000195333747833918
0.00136925195985257,-0.0931792728452326,-0.00445217571127235,0.000280691319136337
0.0375864638912517,-0.178443558503097,-0.00558156026956962,0.00078040722097922
0.0558461508070732,-0.190387159526598,-0.0081261549767199,0.0010411332926519
0.0571012709888384,-0.131381890861032,-0.0134636139723246,9.99243372258804e-05
0.0508692348759915,-0.0631221473126845,-0.0169365410490563,-0.0021458843783532
0.046016445468883,-0.011804738341719,-0.0131235874998602,-0.00448152392090729
0.0445755754196765,0.0312617245678165,-0.00671522709918505,-0.00560905293588713
0.0401654585648042,0.0793391524852529,-0.00164657837736784,-0.00508653510228475
0.0306992713378081,0.113085768104498,0.00154109376709548,-0.00292855194819018
0.0173046136091097,0.0899054366084807,0.000862457292334474,0.00153487319512608
-0.0115374653596498,0.00819489152616866,-0.00169246266125884,0.00885146106725862
-0.0589269664950174,-0.0750153551970528,-0.00255213119926113,0.0159312015360799
-0.0992577832168577,-0.119846060281503,-0.00231535751548011,0.0171053864120183
-0.107035336224598,-0.136777275528659,-0.00238749344157764,0.0110670445404173
-0.0810169433902938,-0.110546901323608,-0.00201649526977799,0.00227273452053006
-0.0535509461229469,-0.0537906678468784,-0.0020582803383538,-0.00426804095902904
-0.0528011621039112,-0.0436578834245775,-0.00314515565434177,-0.00674829077958033
-0.0587740585494644,-0.0671616797031178,-0.00333445963466608,-0.00662019648848607
-0.0434836628989633,-0.0558453761573783,-0.00216685631737112,-0.00610717482573553
-0.0102301616088762,-0.0246224405392451,-0.0010762880338094,-0.00583197931024304
0.0227786325058854,-0.0176130978741385,-0.000728464558252259,-0.00508000123400684
0.0562220572907107,-0.0170586223075334,-0.000295710528157028,-0.00371396651223177
0.0981767146124707,0.0206465797215525,0.000662491014186552,-0.00207621555277672
0.118588510110141,0.0637032654162897,0.00203446979498395,-0.000205990593994547
0.0859724793996483,0.0598207208842194,0.00336444463812738,0.00153874147145056
0.0215297750355117,0.0331096621825638,0.00353987823388892,0.00282533500568483
-0.0287009774217009,0.0137451234683767,0.00235598591756814,0.00393318480339392
-0.0380990266798477,-0.000916217743440556,0.000426171768634812,0.00494608000284286
-0.0195814867955325,-0.00908660833614973,0.00051332537633589,0.00543638543776758
0.00167517997625181,-0.013711227706195,0.00183024994695012,0.00516200047195651
0.0196374591846977,-0.0290973735446379,0.000868845120011907,0.00433975294146889
0.0326507347411064,-0.0555986779537462,0.00129730156649625,0.0033797109057474
0.0345883160996532,-0.0736963203825892,0.00576044018973384,0.00238824205850098
0.0288940998038112,-0.0726553494329356,0.00950977378276749,0.00108488931892819
0.0258273061427505,-0.0590893502105363,0.00964328345640666,-0.000317098667506743
0.0280383592715422,-0.0354226176126,0.00682778066085209,-0.000924799776761698
0.0330883320183143,0.00119928137479685,0.00103112889301745,-0.000484802821858535
0.038226478605177,0.0306270662252142,-0.00765543350103799,0.000431967085578318
0.0427046404061292,0.0172036717431144,-0.0150582836592757,0.00143266605946664
0.0415380330330042,-0.0181027483483767,-0.0139765191691513,0.00240778641364487
0.0280389886683356,-0.00401578818351779,-0.00545213360882694,0.00309130650944739
0.00748491120744652,0.0676370699027017,0.00259551788749223,0.0028999724571449
-0.00307331708285777,0.137297581479873,0.00748434309331189,0.00113454366067655
0.0148467020282858,0.160451787982012,0.0105088352702121,-0.00256150986750597
0.0589797844061514,0.121105324657863,0.0103816671012482,-0.00689541909016404
0.102075417403133,0.0409572755158513,0.00708338086255556,-0.00895236516277232
0.12703355371568,-0.0366535567797692,0.0039658548476854,-0.00708021806302866
0.135775996974044,-0.0827603859657036,0.00216753989599361,-0.00276951855034096
0.120673139401113,-0.0788081825815558,0.0026259039160826,0.00106436010524823
0.0754846392425948,-0.0485201825925419,0.00648177314610476,0.00265520986901714
0.0174361637612028,-0.0334841924803328,0.010260311937956,0.00189768857012914
-0.0182239052986484,-0.021813286746979,0.00920549821880795,-0.000495537604922014
-0.0188217028559101,0.000634412296867552,0.00258230024869644,-0.00317537363243734
-0.0159132909627689,0.0131509511670931,-0.00440439197849415,-0.00458225335519754
-0.0366637497744619,0.0254572658533996,-0.00781257165013144,-0.00453551445321922
-0.0718665285221823,0.0586330053555773,-0.00865211767745091,-0.00394948708754578
-0.0838183617713963,0.0835027595798097,-0.00730616536141218,-0.00306958642405954
-0.0524392771647965,0.0872269156334366,-0.00484203147328971,-0.00101480980834562
-0.0134990389331967,0.102988689528253,-0.00108042991172398,0.00335691139807993
-0.00288780959542928,0.125516471925346,0.00320028756040385,0.00909795230605246
-0.0163248259293471,0.107941203228777,0.00390391854953552,0.0121641019395862
-0.0405562690458628,0.0205700201330977,0.0018087079356879,0.00952639023225878
-0.0628894275807836,-0.0908063774737331,-0.001501913022986,0.00308535346515833
-0.0740891597035657,-0.126100528112382,-0.00599635643637123,-0.00276136778152917
-0.0745707155564504,-0.0780571620772503,-0.00853405998325722,-0.00536609916738052
-0.0643222776439292,-0.0252431602085779,-0.00767815302963356,-0.00491254334285672
-0.0452198412549635,0.00957142890802636,-0.00515215079719581,-0.00361365535086274
-0.0245839162919974,0.0439161811692564,-0.0026033085418248,-0.00340867976590649
-0.00139040214378251,0.0525308996865946,-0.00147190545611878,-0.00425384063096244
0.0266405466031675,-0.0215283316389463,-0.00315862379211672,-0.00503213381290057
0.0478473399900131,-0.150956180989103,-0.0065978483816547,-0.00485379169590341
0.0514001377047066,-0.193786491943063,-0.00889678000720834,-0.00357587439797683
0.0371804497526213,-0.0846564799237076,-0.00844160356976354,-0.00156609069841928
0.0191115937708218,0.0681675479074962,-0.00628828486528903,0.000645383545429651
0.00734863993432919,0.130345216174411,-0.00466051135886586,0.00254168692228998
-0.0158866316480457,0.089148093776116,-0.00458861438130305,0.00357462808790406
-0.0530546593689889,0.030391373259106,-0.00497447343858426,0.00363684161828822
-0.0761646836839994,0.00173392973164714,-0.00463011479893934,0.00332225871026741
-0.0800535275068478,-0.0154111348150356,-0.00306425939585444,0.00298877233188802
-0.0763094440900752,-0.0245443763482552,0.000823476759836613,0.0027372782272989
-0.0648755939705769,-0.0136796182526355,0.00500556592666938,0.00292156024233805
-0.0478793773493651,0.00128533276123554,0.00702352112026437,0.00362438407287962
-0.0273916615272567,-0.00047884117307498,0.00804825359922704,0.00388505319006803
0.00746381180654539,-0.0153954942657173,0.00886890571293841,0.00236620559478939
0.0467557567020478,-0.0289980307892471,0.00820032937290486,-0.000558221240019282
0.0535587717631881,-0.0261157893629666,0.00680459615131789,-0.00268317778692361
0.0251169958576103,-0.00480356291221086,0.00720202714174454,-0.00259625600392107
-0.00514203929262358,0.0162409676239745,0.0090379631953764,-0.000764829318623645
-0.018604894503072,0.0242614962108161,0.0106166942605044,0.00166971596400689
-0.0217199432314742,0.0178141399692014,0.00987263623122225,0.00346555942965316
-0.0220690460861307,-0.00286646088899198,0.00589158692215133,0.00388667932082891
-0.0183365758882847,-0.0287564244552352,-0.000264697957822527,0.0032787738016797
-0.0100597620915523,-0.052882134345468,-0.00712931741418163,0.00221217394298011
-0.000624073053258005,-0.0854739295903315,-0.0128352465348863,0.00132705065928081
-0.00870717294043114,-0.134356225202708,-0.0141539356517342,0.00127073668129
-0.046418743750239,-0.170158192670652,-0.0107468770747626,0.0015676799067859
-0.0797270668103521,-0.141203910605832,-0.00886834220859034,0.00106132536277421
-0.0755600603002809,-0.0520939539691791,-0.0110383339197854,-0.000547970360352354
-0.0510420952475117,0.0220092559755739,-0.0121627392351582,-0.00272536950039958
-0.0310463889819602,0.0377733539446694,-0.00853034763522315,-0.00481506186402206
-0.0100559709170542,0.0252091087233441,-0.00130756271845731,-0.00616567738752918
0.0250281176678885,0.0192170104323498,0.00577145595886178,-0.00635984467225109
0.0689636757583845,0.0102804607768623,0.00961599827491977,-0.00556573566012163
0.101908078831171,-0.012190395766908,0.0103748710114016,-0.0042327663592933
0.114464279360317,-0.00203908269864339,0.00894344804242435,-0.00239950552787938
0.113199215184772,0.0795802691414408,0.00677594172197369,-3.9282035610504e-05
0.0971698957325278,0.165139975437978,0.00546132314308037,0.00232943407658903
0.0622731498225379,0.155692319627691,0.00399840465421723,0.00402937928385001
0.0186257097867599,0.0683247437552092,0.00231186439953817,0.00451877897286862
-0.0201155488608687,-0.00951591265440416,0.000741267362606269,0.00364482126235325
-0.0438262543814587,-0.0453962822116915,-0.0014612312723449,0.00202138168899882
-0.0504035705157241,-0.0582437388765901,-0.00318601911347955,0.000521359691359751
-0.0467457343551529,-0.0593175775905122,-0.00415382868875696,-0.000502879421420684
-0.0380565266404708,-0.0472031245051011,-0.00500840069942429,-0.0012345047445009
-0.0284115778557985,-0.0288236520598403,-0.0052793788174245,-0.00176745312873938
-0.0186305896123404,-0.0151310310422447,-0.00656046587503732,-0.00218511187198108
-0.00830176209482591,-0.00722405502787185,-0.00757186789899374,-0.00273527241943636
-0.00161789875225806,0.00112503862422549,-0.00650175699545489,-0.00329953954453918
0.00176421178801672,0.0103120654407326,-0.00639332447424419,-0.00358824770595657
0.00505226993152186,0.0189689853870875,-0.00647576284490397,-0.00358325474901883
0.00748093025837342,0.0287689704203237,-0.00549312497999957,-0.00346943531328392
0.00815804161444915,0.0364269455356463,-0.00452895709928655,-0.00336495217675436
0.00848885960835977,0.0392451817081964,-0.00426938557767388,-0.00317142936392464
0.0123950363744238,0.0394185571691669,-0.00459717708981728,-0.0028956811078731
0.0194197749481152,0.0403554450622121,-0.00365335611566214,-0.00265939203170641
0.0242934822573891,0.0421037385526661,-0.00337312889779863,-0.00222061872000429
0.0238570796098193,0.0412482916899722,-0.00403963753392222,-0.000783082769136042
0.0217535166329582,0.0398603101492875,-0.0033288575968974,0.00185010804577074
0.0243565861387719,0.0375672730678994,-0.00265242895086571,0.0038594280212831
0.0287054558330393,0.0272379116401013,-0.00248542499811446,0.00356842450785898
0.0296430119739269,0.0138624625552227,-0.00199708628617927,0.00189455664881715
0.026690170702816,0.0114533273108567,-0.00184780808620178,0.000454019594266224
0.0230482081731886,0.0198780295334922,-0.00198179738056729,-0.000460568613144827
0.0235339941155806,0.0275663936283752,-0.00105645878482571,-0.00108486516013693
0.0259803873528392,0.0298647068149946,-0.000352937081257752,-0.00144035016519901
0.0255970293177145,0.028996445246662,-0.000424316903736973,-0.00154950726362176
0.0217606652589376,0.0260795724435915,0.000731769589870859,-0.00146470181201673
0.0177573860051938,0.0225829835958575,0.00232230896010398,-0.00123108545931812
0.0160013495379188,0.0202823549983171,0.00318506458059065,-0.000881639174428287
0.015473685259071,0.0177853207902279,0.00425569797221758,-0.00036171249516645
0.0149677074000206,0.0146586774918711,0.00509661443177626,0.000374288857576083
0.0138333962432203,0.011446120807967,0.00551524122024791,0.000942070663968498
0.0110994554764214,0.00929554948610409,0.00663307935050963,0.00118751030933975
0.00515650896078617,0.0121215667040887,0.00764108438508869,0.00146717879348906
-0.000105328814896499,0.0162642778598227,0.0078968811455154,0.0017242968012467
-0.000334508217030401,0.0150534066814634,0.00807260443039754,0.00150205504286836
0.00234487065729254,0.0091267051847492,0.00831883136559163,0.000317586584963161
0.00448253137424535,0.000381582154974318,0.00814750101546378,-0.00166953511744803
0.00435055177010782,-0.00780423993555867,0.00747007066393749,-0.00381909443848129
0.00448937631605162,-0.0138573116528082,0.00631868987801064,-0.00578082604885521
0.00411858899196418,-0.0212344275795852,0.00449995576261099,-0.0071109487091509
-6.41843998428118e-05,-0.0282947324665355,0.0031417876752275,-0.00733322491555681
-0.00408942848735037,-0.0314894479301348,0.00190443367081422,-0.0060821283448388
-0.00502123616952154,-0.031206332392559,-5.26980283538361e-05,-0.00266302599671777
-0.00723716367282355,-0.0220980577536673,-0.000677675105451823,0.00433241906521583
-0.0131084609355689,-0.00175791506456809,0.000926697648619434,0.0147940053571019
-0.0172228103865766,0.0190646884965878,0.00322617429238663,0.0235094234513401
-0.016612470587651,0.0315658979528063,0.0040138668605198,0.0239259256738476
-0.0156611868176858,0.0321461487580087,0.00430396090397648,0.0155092069777197
-0.0175216667619988,0.0199778154333784,0.00633589386609559,0.00419592322325052
-0.0155285700208908,0.00220852290742023,0.00763774380131252,-0.00296705986881059
0.00374837089081329,-0.0131242926942114,0.00689588335014393,-0.00344493850497065
0.0314857191602083,-0.0239097346392722,0.00663298035404303,-0.000605131474404475
0.0392626222400713,-0.0288110161224241,0.00669461565681665,0.000339528218648679
0.0239427439485803,-0.0188548903763911,0.00608337382097239,-0.00255231128120027
0.00512184147328108,0.00814688867425306,0.0049267217553506,-0.00737494159419818
-0.011753674193221,0.0272571794563275,0.00372311677555398,-0.0114839700485603
-0.0310818235868648,0.0197005177275231,0.00394888310094762,-0.0131307174048938
-0.0471067310598635,-0.00601058623885851,0.00504148379463948,-0.011794277256248
-0.0527500112542205,-0.0319480259297548,0.00675633207503456,-0.00820506565485022
-0.0487154401225375,-0.037432221397786,0.00928000414320358,-0.00330616094489742
-0.0422584083290123,-0.0224062999726939,0.00961873260936096,0.00183298647517398
-0.0361759418837512,-0.00484205231447443,0.00546091612299924,0.00598646997227111
-0.0258166912942526,0.00960913879370712,-0.000150094789622251,0.00869631429319342
-0.0134799877218346,0.0296188792148282,-0.00192582164573338,0.01007242831351
-0.00223438480690551,0.0522755027722617,0.0013817388989663,0.010212789777483
0.0121371576057383,0.047268904783608,0.00475431367439734,0.00937631356844986
0.029807553004619,-0.010178162338935,0.0056960019367906,0.00786949646137636
0.0494990407494827,-0.089359748342142,0.00809328579208684,0.00600348509117342
0.0604665376033688,-0.11804060848824,0.0102364573953631,0.00426736838467223
0.0348858368298952,-0.0834483841203058,0.00681625169499001,0.0029732868604632
-0.024145083930613,-0.0426423496260763,-0.000408232292986296,0.00209009760634181
-0.0732057539145662,-0.0209245747295971,-0.00594197566208022,0.00143790792252336
-0.089097997767191,-0.010870982598632,-0.00545740589486389,0.000829003862108624
-0.0854223251575759,-0.0181761262493278,0.000501992741197719,-0.000199645039446646
-0.0783336702605606,-0.0352481169648015,0.00569739171442791,-0.00195055883581407
-0.0690026061653343,-0.0405467457951235,0.00712225315589615,-0.00372725709567907
-0.0572591673195598,-0.0313377518461344,0.00615111647424507,-0.00472450702296312
-0.0417664581873332,-0.0113999602322141,0.00242315109444366,-0.00485184576289168
-0.0115559279817188,0.00793503757039984,-0.00469362078708481,-0.00432567598907577
0.027712248722692,0.0141435509336764,-0.0120288207443972,-0.00331323152958123
0.052022156107215,0.0286054951488742,-0.0137820861261718,-0.00198694171933262
0.0508260915854094,0.0509880664257259,-0.00798549553752579,-0.000900791767320418
0.0330330858912071,0.0430723673910531,-0.000521997050636994,-0.000834918555950643
0.0160744092806289,0.0032145483805744,0.00321549240404121,-0.00170895242040577
0.00898185294985206,-0.0462106334350566,0.00414164451853337,-0.0025781353847256
0.00833315167847156,-0.0862366751708603,0.00386578110285813,-0.00294334406627839
0.00568046951834126,-0.101433848063614,0.00339202364846861,-0.00311407203910666
-0.00615545484765787,-0.0950793170334468,0.00251887433814512,-0.00379189239401066
-0.0197805060750319,-0.0731838957531716,0.00212208689403473,-0.00543761148050228
-0.0229066670966275,-0.0319873196604163,0.0029454194387822,-0.00729411108005563
-0.0198614633908248,0.0143598515014463,0.00362436261737845,-0.00776952887951523
-0.0205272734407986,0.0342014014493939,0.00359115347321278,-0.00614527180777467
-0.0226455801478516,0.0288372639147853,0.00197467336675031,-0.00313592902132613
-0.0199157483890234,0.0259180222317339,-0.00147811727124582,0.000935175289215683
-0.0103785698587235,0.0269143365350784,-0.00568743014160853,0.00742850059788258
0.00396406987966471,0.0226657537416446,-0.00886373655285039,0.0155636295113724
0.0196430507617716,0.0106885934003707,-0.0107384521760154,0.0201704451737148
0.0347532673172709,-0.00409550493325159,-0.0109317908651322,0.0177854481450716
0.0435594423769936,-0.00302896891381515,-0.0072931611525098,0.0107461023501197
0.041248610794426,0.00891432445241393,-0.000851493864136466,0.00315818360124667
0.0339925253275757,0.0112586204518764,0.00459906591559564,-0.00320416609399394
0.0284387102899569,0.00821755578139558,0.00795006048532013,-0.00849139826278166
0.0246836211585675,0.00716645020503979,0.0105224754079998,-0.0134824171263899
0.0219509822198615,0.00181278317385532,0.0123454763995382,-0.0185802036288091
0.01943673130455,-0.00960036193951694,0.0124971696939227,-0.0221531545212824
0.0178251280854097,-0.0237302819179856,0.0110566974560548,-0.0212700228909243
0.00941634838795161,-0.0308093618698256,0.0112881463523566,-0.0151564348796261
-0.0121334738195027,-0.0302091029400985,0.0145356474185595,-0.00647778158754674
-0.0294909844448187,-0.038304947579362,0.0149726080485298,0.00169180731146101
-0.0293290191605556,-0.049778499709643,0.00846674906968888,0.00795753763342698
-0.0230858719209984,-0.0447589656664936,-0.00338508838482192,0.0119116046437339
-0.0180931273332541,-0.0169867517814369,-0.0156209085947121,0.0136218822935163
-0.00691376486711119,0.0210479670167361,-0.0228719629524202,0.0132072501974969
0.0144256805122079,0.0392239121421973,-0.021822395400797,0.0110431308994052
0.0422151409182417,0.0319976565492069,-0.0133197758828182,0.00785005819071272
0.0735830505719449,0.0251624098419449,-0.00452957620649212,0.00426229328548182
0.104423852100172,0.0292551062884596,0.000433398962429346,0.00105800635536778
0.126329771283629,0.0437015389300347,0.00444264461201404,-0.00121504195754856
0.140181691678249,0.0696945353795342,0.00518453858284337,-0.00264987656935868
0.133096922259157,0.116535025631621,-0.000322760936386756,-0.0031567931825029
0.0763261803767059,0.170887584324525,-0.00652322312838402,-0.00208575688553503
-0.0079997137822177,0.179770111959235,-0.00974422815279278,0.000167862704794252
-0.0700992555676541,0.131308723341143,-0.00863787050877544,0.00120601879877253
-0.109750682868471,0.0854333836405259,-0.00200361588546584,-0.000807837367829301
-0.14787033876523,0.0937384147438476,0.00555620280486387,-0.00434185692847437
-0.171638481661272,0.0994615187540622,0.00898080366949789,-0.00609882686476057
-0.152435964564661,0.0359666896852909,0.0082405463390167,-0.00492859784625076
-0.0940192772525382,-0.0444024600604548,0.00519027744005335,-0.0023591164146283
-0.0333558309242686,-0.0972458183335532,0.00100255819568851,-0.000212799722653929
0.0108944315589669,-0.118630384627374,-0.00227145176825103,0.000914258664878268
0.0436459683668816,-0.0913844250599214,-0.00384888999145652,0.00136604120368708
0.0572525038076059,-0.0445969642541297,-0.00638919961531271,0.0014437293167716
0.0570509412019738,-0.0148329357994123,-0.0104883808875499,0.0014245337057867
0.0641044750910783,-0.0130226442582731,-0.0135464890015513,0.00162330434747918
0.0688254283301176,-0.0370323390580407,-0.0137713533067182,0.00197300273775995
0.0564149593619828,-0.0560552753031629,-0.0131681135619984,0.00215979707144791
0.0390760910985955,-0.0596720107048608,-0.0129476764649849,0.00189904886677908
0.0240645126928416,-0.0506701130832977,-0.0115588380866275,0.00132775769415036
0.00309857367021658,-0.00939890021167736,-0.00844645629755994,0.00081113501232374
-0.0193901366732401,0.0571618002481451,-0.00539144899767316,0.000425117604481269
-0.03601878449981,0.109171605636158,-0.00555247473612054,0.000188473335696573
-0.0539905916757526,0.12866417993687,-0.00707419588200617,0.000154345987079231
-0.0730010201275351,0.126552560763467,-0.00631593853346974,4.52276012538526e-05
-0.0826516095394664,0.113170984189899,-0.00413045878318117,-0.000378006125320507
-0.0844673259666997,0.0872629665186135,-0.00233035955593519,-0.00101479975509415
-0.0899034585270994,0.0508991554543052,-0.00208793608892431,-0.00169977498547706
-0.103782859643628,0.0151018171191169,-0.00246803433575021,-0.0022672272886563
-0.11636435394894,-0.019343919345549,-0.00225613778004097,-0.00259627629298637
-0.11463398217892,-0.0515359242369235,-0.00191737965566859,-0.00234826766921995
-0.100547357950805,-0.074991958474904,-0.00331117062256197,-0.00132231181225035
-0.07781274454282,-0.0950635797000574,-0.00888567284236652,0.000279510684321603
-0.0408050803924194,-0.121587780464692,-0.0157639062429231,0.00205835491191439
0.000946684918509078,-0.145373976154028,-0.0182094720843374,0.00342137597793537
0.0270783377055654,-0.124653079955847,-0.0141891052987935,0.00383759316481129
0.0391301307111187,-0.0559379403060947,-0.00776140053435158,0.00307850193701839
0.0553636400502295,-0.0193976637156067,-0.00397124680783442,0.00186493756221449
0.0776295974502613,-0.0508936874336816,-0.00430076256766468,0.00133480926931448
0.101044687238371,-0.0756453353555881,-0.00656441385645064,0.00145737562015626
0.126377269533635,-0.0321827395107832,-0.00529326487946852,0.00161861300971799
0.129712691766866,0.037112404178396,-0.000605623409588522,0.00155350064178019
0.0854206501100093,0.0557698659001224,0.00169752806686557,0.000894327498416614
0.0115962129008024,0.0353438395776484,-0.000683885955936414,-0.000627682796444199
-0.0497410740234693,0.0418707832620426,-0.00342695457287529,-0.00264057440709318
-0.0731181166307263,0.0722965542009939,-0.00253384474919933,-0.00427193358405218
-0.0670680679245406,0.0830680367692523,-0.000824275727728653,-0.00490365816526371
-0.0550388435119924,0.0703118049479701,-0.000799455580905857,-0.0045339874537112
-0.0449927865108261,0.052851804956515,-0.00225513196207226,-0.00339355482948149
-0.0329638272672028,0.0389717660655437,-0.00244971582279814,-0.00175137233592848
-0.0183105325519151,0.0261982909298157,0.000100815150544187,4.74614684828761e-05
-0.00453066018621983,0.0169682726902235,0.00192873886413212,0.00157116485450556
0.00782098156028909,0.0149499177469537,0.00159290513412245,0.00248927600192823
0.0206473283486801,0.00106735744636605,-0.000477204578335856,0.00288815453616867
0.0332875276493915,-0.0541871587409496,-0.00310656082180361,0.00308885357743154
0.0445886752420047,-0.128881319418171,-0.00519203698671073,0.00313920333269563
0.052638596006126,-0.159218298865253,-0.00678610376863382,0.00287661975932234
0.0595311056630719,-0.160660462256114,-0.00772249333556839,0.00220596989295837
0.0683820683162282,-0.173256735768549,-0.00967704280920778,0.00124781709351285
0.0723586729721952,-0.13800374810702,-0.0116366844606189,0.000505072774122774
0.0636949451807244,-0.0295815851362358,-0.0094235843190293,0.000196668970805279
0.0490547988130537,0.0737483460894465,-0.00579811111454024,-0.000140753987455234
0.0367483489460791,0.115041641828699,-0.00421304023004268,-0.000862030989101766
0.0191431600897199,0.109380981298077,-0.00220908246295072,-0.00199074852621202
-0.00726742908775785,0.0941281891850952,1.08210936939218e-05,-0.00322717845071814
-0.0253244134934852,0.082395271609409,0.000630478755667115,-0.00396253772828561
-0.0108518220053774,0.0715355194755958,-0.00106077513761921,-0.00366715234577492
0.0272426758195405,0.0627212774221773,-0.00397440399050367,-0.00229337042619426
0.0466489815764986,0.0564094825249787,-0.00504576100815112,-0.000790982940322322
0.0367578219847986,0.0536416960913055,-0.00299697262927312,-0.000292814878740721
0.0248361658530242,0.0535816715115568,0.00138623383542634,-0.00091393692249257
0.0271698074879781,0.0483772920514966,0.00521006333987122,-0.00211441870628665
0.0380455624231431,0.0313685931117829,0.00606155462931507,-0.00309388533975762
0.0502926902281173,0.00863091558049983,0.00527889708141418,-0.0029684930121302
0.0649658626164711,0.00586531232577725,0.00521977030690765,-0.00139261574680734
0.0755416834801481,0.0158753067222282,0.00367339886599975,0.000817499660872843
0.0627239179371774,-0.0139122570361754,-0.000105541982289357,0.00198496401285662
0.0326366051069661,-0.0990379753461135,-0.00389383727858171,0.0012347054217419
0.0147291118347222,-0.200052047504275,-0.0064449069007936,-0.000428428725760235
0.00737841640104588,-0.244297160666605,-0.00402364356879858,-0.00118830756704354
-0.0134162882158951,-0.195999929325713,0.000921642394450911,-0.000486281559681674
-0.0463062740661386,-0.117527355063087,0.00244080902541736,0.000660169936145102
-0.063752755141542,-0.0712965192114116,0.00161770753807787,0.00140114675641461
-0.0566591745070778,-0.0517333416492766,0.00135036321305523,0.00169403886412349
-0.0493865024926499,-0.0357627536788991,0.00294162746953817,0.00150631678401955
-0.0555081063232537,-0.0130897056951376,0.00598961556335558,0.000780263387846719
-0.0564438019043497,0.0109558179669911,0.00846775583130271,-0.000286941015129318
-0.034903445817608,0.0245766828420893,0.00862040882001765,-0.00128190416596691
-0.00290686410394309,0.0280738558611778,0.00520020834712554,-0.00182402825730557
0.0154051140613683,0.0352037113250177,-0.000112827210506415,-0.00188935630432109
0.0135523543262296,0.0499548086912305,-0.00317341509872784,-0.00146822692722404
0.00497654081133716,0.056826271854265,-0.00428579715389776,-0.000422684505698623
0.00386346751350509,0.0491357162109221,-0.00468471176531213,0.00103593314521415
0.0130979001515389,0.0259625092574565,-0.00370187192360738,0.00238328591943641
0.0298331628415338,-0.0180764750065837,-0.00291399334276741,0.00299638694245563
0.0480154363987718,-0.0503174978358557,-0.00360165937426103,0.00299431062345438
0.0596216714252447,-0.0219734718831677,-0.00392411506462046,0.0035780648519674
0.0617005445505126,0.0336329324534474,-0.000957444734376907,0.0046582351533464
0.0542538879338437,0.0440217304257047,0.00313992291729967,0.00375918472144912
0.0320045999403386,0.00238973572639353,0.00371196968227539,-0.000421278923786424
-0.00397834013718215,-0.0458560345329007,0.00292285409590688,-0.00519747201456253
-0.0337617735629381,-0.0531872969507769,0.00348883890303182,-0.0073214459094248
-0.0454650221975207,-0.0266136340718771,0.0026258023196537,-0.00696018143675981
-0.051769351375253,-0.0107687047552476,0.000316672887930189,-0.00566948996564139
-0.0552563238812538,-0.0119771759767551,-0.000126379737192741,-0.00286598861338359
-0.0426332701928638,-0.0117130675180078,0.000299510608275745,0.00308383698682099
-0.0178306668853354,-0.00416504352791728,-0.000303610513880856,0.0110977395630498
0.0156872753046536,0.00371664140247674,-0.00123468561727113,0.0165696582414702
0.0661131540084716,0.00762759706345534,-0.00262778194559875,0.0154482128733465
0.103862429380197,0.0196294141730538,-0.00252895055175866,0.00870488685015017
0.0860346642775478,0.0441452890453432,7.46577078602866e-05,0.00129676843959092
0.0335845728967939,0.0741910167893447,0.00206541214979088,-0.00265953873836071
-0.00020208319796898,0.100236297794891,0.00210088728195314,-0.00276128814502494
-0.000137225522171595,0.102590171757795,0.00220864726829667,-0.00139907706954735
0.0144905331658125,0.0800963942914086,0.00313196861581116,-0.00088117418491675
0.017015285269089,0.0538881399976539,0.00257597662958937,-0.00176766487955813
-0.00566082741851979,0.0406948627125057,0.000922299112193863,-0.00332430913626345
-0.038304587830546,0.0424211645244627,-0.000764693238050681,-0.00451875212646035
-0.0614611353881576,0.0375452029883707,-0.00248724157227551,-0.00478244360162767
-0.0820978824507033,0.0117887902804722,-0.00200494224753624,-0.00421018689804199
-0.106066227019823,-0.00714908225138475,0.000810700383418838,-0.00340766259907036
-0.111735890154097,0.00513017427783297,0.00403829432626221,-0.00302774778533232
-0.0868723416435502,0.0290859486199012,0.00686855777366586,-0.00261935214846776
-0.0475757085818095,0.0381035658380503,0.00849113592416016,-0.000710431526307054
-0.0122877611054548,0.0320509089978717,0.00949728010752045,0.00326956144261896
0.0111403123837371,0.0265129941747838,0.0103289718526038,0.00756742729897324
0.023605633496051,0.0278721164120729,0.00999356802146325,0.00937189789674712
0.0338468293884801,0.0227007489174793,0.00988599596492785,0.00788594409424017
0.0449896888931232,-0.00250352536000103,0.00926958656801857,0.00465836667381309
0.0517441277657329,-0.0299652037138326,0.00763502811613629,0.00186826490970892
0.0580477545987175,-0.00990588005457162,0.00815570924409119,0.0011944081012432
0.0612377827934915,0.0517682516383385,0.00984450298287016,0.00248137128583583
0.0461553458364556,0.069040917836454,0.0104327985292191,0.00372983017601163
0.0169443237264504,0.0225244299306896,0.00971402446076011,0.00279878715199812
-0.0125421673083771,-0.0196504146617028,0.00702353162267527,-0.000628210250132937
-0.0350283748448727,-0.0280030109924094,0.00143008891185924,-0.0046043334348103
-0.0481633466978659,-0.0249021399249574,-0.00367099550570429,-0.00711107434752415
-0.0546360305710723,-0.0237567492049886,-0.00269632897927379,-0.00767880012351053
-0.054366828101499,-0.0203546119545107,0.00319151050916424,-0.0068181119536142
-0.0502701703773294,-0.0143807118680202,0.00909651089778742,-0.00532999433152614
-0.0490076117799624,-0.0106602171895324,0.0125967189410319,-0.0039763796792947
-0.0568913241155324,-0.00994061497914079,0.0132674067113616,-0.00291583505615958
-0.0725876394308918,-0.00784861768562985,0.0122935858232224,-0.00160318663547505
-0.0766970700567441,-0.00365710665232473,0.011470020508965,9.48106649772285e-05
-0.0607882610698516,-0.00145484777585368,0.0102325634964864,0.00160600972527073
-0.0422491763814282,-0.00159322525129975,0.00740022439505077,0.00243418655109352
-0.0308939914640195,0.00096462992961275,0.00537440325239635,0.00261878912665409
-0.0213269584981026,0.00842893355820687,0.00381757628611929,0.00269477212934568
-0.0106125281185585,0.0168999655647955,-0.000269078530013087,0.00270724714124508
-0.000708274695125549,0.0226624436491475,-0.00341485529948086,0.00187245108412318
0.0111751790181539,0.0210843420789482,-0.00365787722133947,-0.00055740782596245
0.0287503345994875,0.00479253546249028,-0.00285289189720738,-0.00400074708271538
0.0449872855884068,-0.0185766268661631,7.09354432897238e-05,-0.00632246383997575
0.0541816680711886,-0.0106954705541569,0.00513656462185989,-0.00604056194618481
0.0534685461898774,0.0402601807286435,0.0102062047936939,-0.0037701467192868
0.0370452097709491,0.0778836297274762,0.0124382019632445,-0.00104384938705052
0.0121472045667495,0.0660196845690658,0.0115796083129992,0.000770556027590138
-0.0111081353938088,0.0365764239874665,0.0101639695226864,0.0010434897670737
-0.0320072834020111,0.0195901708081356,0.00773927982691243,1.21637369469827e-05
-0.0454311847037845,0.0125143754766962,0.0042791816105671,-0.00212559408721163
-0.0460526047622673,0.00720490268311422,0.00216464721842439,-0.0052532951710477
-0.037750050201483,0.00307163473367792,0.00175386942526392,-0.00870493926862594
-0.0266108324796054,0.00148934346940075,0.00234786692985652,-0.0114343445833334
-0.0149758463474569,0.0011772853004715,0.00289667593955569,-0.0119409036309138
-0.00468855331429372,0.00193855768545639,0.00211718739375302,-0.00816680436245418
-0.000169058381634567,0.00236071389195862,0.000737761148098764,0.000671355268934588
-0.00261327974479194,0.00495466439073468,-0.00114285029873232,0.0123082027771102
-0.00166204347953051,0.0126800679340144,-0.0045791975611356,0.0219227848969365
0.0102654876027732,0.0194269625887337,-0.00881776152214826,0.0243113277475407
0.0268210650235092,0.0338273818208487,-0.0116569092903012,0.0178082140027616
0.0394815791251783,0.0700038364688149,-0.00967394125985924,0.00658078399092162
0.0400072644053159,0.101618666384284,-0.00300612129247371,-0.0029963616456672
0.0223837870209832,0.0960301887599999,0.00196919347202928,-0.00732855283726948
-0.0036702857169349,0.0723596287078765,0.00414455864622392,-0.00682731491583552
-0.0193145962930712,0.0612533195542316,0.00737841255751881,-0.00551226397841657
-0.0195503634340215,0.0578490777415668,0.00991976490201093,-0.00764797292029185
-0.00688651708502027,0.0478173901607301,0.00925455760802146,-0.0123988281738136
0.0123910094089228,0.0309475019651779,0.00677287604351432,-0.0149846978016223
0.0301704490358277,0.00690530181386069,0.00406541395290269,-0.0126781487328579
0.0425807226316463,-0.0187863864204303,0.00120063042049703,-0.00687008546054154
0.0366996581432391,-0.0273061087465129,-0.00143823372660837,-0.000392822622744841
0.0200753605402491,-0.0292880386364861,-0.00291774384868311,0.00486925210805246
0.0251085915580476,-0.0545552505304319,-0.00203540954489888,0.0081473292573484
0.0507261858971634,-0.075542249886911,0.000212043252047435,0.00948299543177341
0.0683240829749529,-0.0464327974479978,0.00218010837819907,0.00937032936205951
0.0690514361631528,0.0025154998325994,0.00407455931771579,0.00836645060011436
0.0598366375606596,0.0205427572306072,0.00498563858952481,0.00694802830256707
0.0380819710718885,0.0136020423877731,0.00495900352379288,0.00549054878600807
-0.000783634275544592,0.00579004278853611,0.00521022007817631,0.00422181962312573
-0.0496273911079922,0.00204518305300348,0.00580058014003178,0.00325002267892343
-0.0914070054251645,0.00127448182733964,0.0053528652340834,0.00267556268060377
-0.125941864593453,0.00846686510244774,0.00263888210419225,0.00242794760404427
-0.171988124179398,0.0218149053847057,-0.000988182203887196,0.00227911161940641
-0.203527404349522,0.0274413390966148,-0.00381617894529305,0.00206268886588572
-0.172650854079488,0.0196861131961275,-0.00368684486292248,0.00174896173525612
-0.0938757815320603,0.00132764701880246,0.000105805430553554,0.00114315208605805
-0.0178791908591564,-0.0205003897558409,0.00342993858422923,-0.000102262290575563
0.0323198677675251,-0.0324009392441962,0.00344247185140762,-0.00159549027248818
0.0732647852920622,-0.0552508455838257,0.00105363857856861,-0.00265496690221011
0.126792393542278,-0.116761947680369,-0.00282615598295232,-0.00324538204864792
0.172586606209147,-0.143900997517622,-0.00775501732423593,-0.00332240943366424
0.1759678538503,-0.0706946931942618,-0.0127432377394309,-0.00259822417465094
0.137504764784459,0.00622488027835577,-0.0138104108849997,-0.00141137192625362
0.0827587430368412,-0.011631549619196,-0.00693949919021477,-0.000496455067892889
0.0397070020063343,-0.0726408912719999,0.00288215772755726,-0.000199471990562026
0.0155136478665681,-0.0890720825373899,0.00736811350093572,-0.000644784369075128
-0.00298145412913577,-0.0595416476719389,0.00705035286014596,-0.0014042141145145
-0.0239271686442155,-0.030921694323751,0.00647186537399943,-0.00181901927720001
-0.0428028646489021,-0.0269696416732709,0.00603017645281711,-0.0018408488400488
-0.051228936640127,-0.0420567315302843,0.0045388164170406,-0.00156338791938657
-0.0477484194573439,-0.0502000198776362,0.00150774929269974,-0.000978029134766078
-0.0439505283828235,-0.0319522926252836,-0.0012485407342195,-0.00013440152544298
-0.0491348512952358,-0.00198124317686684,0.000229391402122924,0.000504868034224648
-0.0595777143319151,0.0165627239590844,0.00327623378254123,0.000486253912436511
-0.0733627257695788,0.0235949589232133,0.00360241532404749,0.00016423038842074
-0.0792947172823292,0.0246912533145442,0.00217985949563156,-0.000314568299575383
-0.0633205859650661,0.0217497571304757,-0.00121876969012808,-0.00111618130599287
-0.038298840891157,0.0249108821106007,-0.0072414275073148,-0.00177989076399446
-0.025198399635681,0.0306326908907136,-0.0140503319526553,-0.00179144592124742
-0.0267434334761067,0.0127456805131104,-0.018662274066453,-0.00107278013002962
-0.0284539104642673,-0.0343628785315049,-0.0195166378478671,-7.41661138385268e-05
-0.0178625375859013,-0.0880920425409017,-0.018455339375255,0.000643829014463459
-0.000114525458566217,-0.130552330613729,-0.0173627803037945,0.000868421010000909
0.0139256342847268,-0.144912949670501,-0.0142412819679731,0.000374457040605428
0.0219642263204437,-0.119398282868388,-0.00809701176401601,-0.000986476190704146
0.0247092446367901,-0.0704812212998276,-0.00132350322721249,-0.00267558774604496
0.0264360467631684,-0.0198924572832425,0.00290980810348824,-0.003762933540892
0.0322195613685519,0.0305107571953065,0.00303483317448648,-0.00400345450000434
0.0284205170958388,0.0641057364840671,0.00141749539052907,-0.00369229203094336
0.00910909273710803,0.0683921994570082,0.00150616575560962,-0.0029896818886685
0.000474506819899363,0.0626986594101309,0.00252272176710655,-0.00202785281682591
0.0135840770150136,0.0450014052512589,0.000782752475967069,-0.00101372221865324
0.0258264222759257,0.0183017264806153,-0.00271151708242581,-0.000118211874938279
0.0222504223077754,0.0109031692311824,-0.00430596247112307,0.000453677797797415
0.014824356303154,0.0278354829445652,-0.00526400949016516,0.000779779592770719
0.012061887090464,0.0512607232728396,-0.00631097882728283,0.00118430773588848
0.00964463419871026,0.0403799261469236,-0.00617032081160969,0.00156884198493163
0.0137872063881541,-0.0400210682456676,-0.0080194451558726,0.00172602533218043
0.0307854139150207,-0.141586614355935,-0.0113926455630903,0.00187510134585613
0.0513991799280881,-0.163275480443048,-0.0109982019788466,0.00213902632911974
0.0593760237589007,-0.0834654236572254,-0.00657362331533799,0.00206129906187732
0.0463799668608418,0.0341562480761643,-0.000961745246851385,0.00127134451385333
0.018742189046393,0.115369676699047,0.000493560871748283,0.000293083883700274
-0.0194407267643353,0.12341160651569,-0.00489760079254585,-3.06463734322002e-05
-0.0640286545646953,0.0974332339813637,-0.009678020796483,0.000282649347454179
-0.0909579663648647,0.0766692080038612,-0.00875640415893326,0.000571537132165912
-0.0836783828457639,0.0462502873458398,-0.00637227551730456,0.000406465101629193
-0.0581696264806884,-0.00110992935337749,-0.00538917336939028,-0.000214013270861429
-0.0371671563744186,-0.0356520455330984,-0.00420065097861256,-0.000738416111100313
-0.0243472455883655,-0.0317139723255544,-0.00387619973493539,-0.000523234878722185
-0.0121575448328118,-0.00733356414157913,-0.0031229610548958,0.000461960605520479
-0.00249933988734156,0.0126864209640453,0.00151899270162036,0.00163695140867409
0.000884203285488223,0.0224552682811797,0.00534749210383253,0.00219707452060515
0.0105312434628458,9.06541152926217e-05,0.00362792760530399,0.00198926019358058
0.0363506058590144,-0.0781943527180196,0.000281501200038777,0.00160093446329561
0.0659544448123429,-0.149681809070419,-0.00234475780692097,0.0014355742590978
0.0769090847211721,-0.119545521976417,-0.00504614788973372,0.00146167626157995
0.0609804988297605,-0.0332654049603873,-0.00489810474464762,0.00158587809400683
0.0366043586388608,0.00792879486786169,-0.00211734997750451,0.00154790791697292
0.0209241524722504,0.0139244159745125,0.00183540432409896,0.00114295633145522
0.00968405006056933,0.0265331090421838,0.00546113679870026,0.000642050794736824
-0.00520652669976817,0.0357637792142904,0.0032298287706345,0.000350999088263067
-0.0235931974723225,0.0339496539443515,-0.00416485275605518,0.000448072810026541
-0.0378152990445872,0.0374846535441096,-0.00876650998480701,0.00090329231056571
-0.0398567281905919,0.0485930590982813,-0.00723907598433234,0.00121272639752748
-0.0269209457137087,0.0494414052239573,-0.00333087671334972,0.000905607716211009
-0.00870664386299427,0.0354456597077539,-0.000511531938051596,8.26218233038659e-05
-0.000244188090973714,0.027180796602884,0.00166602231049903,-0.00083546014160982
-0.00539395288104358,0.0344629565746413,0.00331979934311088,-0.00150200069671241
-0.0138322520529298,0.0106001576533707,0.00341553202666059,-0.00168864882662033
-0.00726296474334267,-0.0811387207597455,0.00163857342488079,-0.00128922515195352
0.0149505188549538,-0.16145980858131,6.04757002217716e-05,-0.000452545684819151
0.0297112811976467,-0.141610076914108,0.000317523919684534,0.000219959717373991
0.0261248448164039,-0.0479521200255675,-0.0010539992751417,0.000269428520823576
0.0144622892748278,0.0535747276770563,-0.00487873648131882,5.37337306242188e-05
-0.00115598237797403,0.114667602357964,-0.00634419914792125,3.00578378752491e-05
-0.0219528479912681,0.109612433621227,-0.00359954377039386,0.000207388718464112
-0.0380823678029018,0.0671946248359589,0.00230983213680342,0.000238196419466573
-0.0375028624477538,0.036623609716414,0.00850917912894757,-0.000185172304985682
-0.0183528395022656,0.0279108902244235,0.0115847404342987,-0.000848254755672469
0.00889688720370554,0.0228182000216477,0.0129081485921829,-0.0013237733304898
0.0199534866660966,0.00428555248228932,0.0122601340862481,-0.00150184597498726
-0.00554077216586156,-0.0303147522889618,0.00784285507774725,-0.00133551650189094
-0.0526620728614,-0.0581978775431156,0.00314608976731635,-0.00066277145900058
-0.0831471639786839,-0.0594486353673217,0.000117031652011282,0.00016713450638385
-0.0787048365335567,-0.0341828775348223,-0.00353000200857244,0.000679224453979078
-0.0519285675782188,0.00635027490208651,-0.00767298279131639,0.000890988444652325
-0.0267118576782299,0.0343255220440428,-0.00869176459365904,0.00109716729892324
-0.0156324679204198,0.0346007384763822,-0.00688765158584774,0.00147447630365854
-0.0157242217066782,0.0293867738898981,-0.00567375353895347,0.00163148970963016
-0.0219107578543389,0.0394239089187756,-0.00495682958815055,0.00109046922197817
-0.0370445550630348,0.0420345997918083,-0.00657632122007663,-4.43690095210765e-05
-0.0551567760620195,0.0177741881905896,-0.00814382298479334,-0.00116953850856676
-0.0557964563468659,0.000665056591029341,-0.00332292709222135,-0.00195339397019361
-0.0367260877337023,0.00784023019608636,0.00421602170633808,-0.00254073678643136
-0.0182509621481492,0.00827345160955844,0.00952498370120858,-0.00278171208470875
-0.0120927179001352,-0.0170879796936129,0.0112644329558824,-0.00240079935965836
-0.00954473137582262,-0.0587307248861032,0.0100599974029475,-0.00154487954720421
0.00387569312254775,-0.0901646094949348,0.00917122523290481,-0.000690485237591294
0.0291853341411955,-0.0952970133387616,0.0100422223912679,-0.000168492805025356
0.0539216761477513,-0.094566980460088,0.012834866771322,0.000137105961506159
0.070246187228456,-0.0915839255549166,0.0141333862523308,0.000397015947970258
0.0786749781959099,-0.0268043459484582,0.0111087693306088,0.000689081547101438
0.0764929544077698,0.0976093466112934,0.00537692954661245,0.00114968776217056
0.0578889744352982,0.165038164182195,-0.00155733645790789,0.00157772820002774
0.0203492128857489,0.125670608251184,-0.00618607585340896,0.00171329682045716
-0.0340015889114036,0.0570755391037304,-0.00784822572682384,0.00188761817957947
-0.0818933583371971,0.0259762054278388,-0.010584878778075,0.00247637486165864
-0.104045717218301,0.0258615949240405,-0.0122314556032973,0.00329009642277225
-0.104549953577893,0.0193181882080862,-0.00832055310349258,0.00366320123622427
-0.0754464852451207,-0.0334014928017685,-0.00116511329754469,0.00296476347599557
-0.0256062804826473,-0.112821146561135,0.00332908780317096,0.00100279619930167
0.00724779202429671,-0.142183356845725,0.00325992985693231,-0.00155155406252621
0.0206397550514225,-0.112151890985384,0.00217482444927082,-0.0034637206846765
0.0312024979359255,-0.0775238280168546,0.000645499238660184,-0.00418374675729772
0.0333427612675789,-0.0611735474949469,-0.00213489757616384,-0.00387043072352291
0.025558574927764,-0.0532728763422935,-0.00470688309667021,-0.00274497847394402
0.0165253597651839,-0.0490519114869335,-0.00776713875253146,-0.00113463659816028
0.0169503200933041,-0.0338592026676684,-0.0106288166775026,0.000458477936927249
0.0221521464514818,0.0365496915728897,-0.0100197218622873,0.00180889361268382
0.00876081552636357,0.1399213806605,-0.00515557524715958,0.00285652173236148
-0.0182454956145742,0.173901385029785,0.00103986882064219,0.00311504209802258
-0.0268741718041739,0.124857968269693,0.00385110124467612,0.00224474706333196
-0.00698331913420612,0.0694017024630156,0.0026865667695587,0.000778686402344626
0.026376799000945,0.0412656265959914,0.000826030375544761,-0.000439649108635334
0.0623705705244365,-0.00521621600537442,-0.00144313768302854,-0.00109576198082826
0.0979032047129028,-0.0951483245817722,-0.00420094951591472,-0.00124614362628854
0.120741758453705,-0.146628972031397,-0.00496875641266657,-0.000792847822687473
0.115727828274486,-0.124702856774439,-0.00327317723507744,0.000152828838903143
0.0862738674974975,-0.108587040654537,-0.00113183099325466,0.00106379417914796
0.0504829134541113,-0.110337473181288,0.00094519709138876,0.00153621769478237
0.0157414198570791,-0.0706791664197687,0.00499843434530018,0.0013935887677744
-0.0173115368470607,-0.00465881775118419,0.00933633892089653,0.000731784121835056
-0.037870943668433,0.0346823153416598,0.00942676675356779,1.46945666276913e-05
-0.0392466179822758,0.0459324356865441,0.00650715381525147,-0.000167150877526927
-0.0272595076114136,0.0514068074490393,0.00288526870771399,0.000119074694532101
-0.00348758015645365,0.0551644710448215,-0.0012049705224765,0.000206804114425461
0.0298354607989933,0.0494558413063661,-0.00383949596507398,4.54906673961374e-05
0.0505008733936835,0.0366169804223567,-0.00404907030352516,-0.000220101937959206
0.0427006605329252,0.0257946678038589,-0.00257490930385556,-0.000638169214541388
0.020123810522341,0.0247564055589372,-0.000188980986876232,-0.000953961640237884
0.00303027054399359,0.0334095575208001,0.00116460894304151,-0.000927425661750231
-0.000829613059089174,0.0327993324786774,0.000298463177530364,-0.00065643266089979
0.00449565885809958,0.0145772956689315,-0.000603412310972591,-0.000474187743965232
0.0096951354569445,-0.00454704427061436,-0.000206217298172139,-0.000525429826994054
0.0113396710786837,-0.0180818582506005,0.000987950993873644,-0.000723213390602837
0.011620594768309,-0.0289101187331313,0.00247683636186073,-0.0010175800446116
0.0109040745494697,-0.0283842168723889,0.00174260850601947,-0.00132079962906551
0.0138086716642759,-0.00365686168191249,-0.00141076386111763,-0.00131063913223167
0.0228099713373415,0.033573477781685,-0.00391419009491857,-0.000973040536082848
0.0168683098343509,0.0481047216441852,-0.00320854080656728,-0.000667304622980649
-0.0207321220964162,0.0357426242972475,0.00138032995488769,-0.000484802686404152
-0.06430391530478,0.0219503442169988,0.00500666171640442,-0.000354716457969868
-0.0846729573044843,0.0106284722325488,0.00594231515934561,-0.000170311086215319
-0.0836914520323878,-0.00826674112837308,0.00762994730458602,0.000133461395774093
-0.0760662687472888,-0.0315210503844976,0.00903839127464392,0.000439905179522129
-0.0635474180846498,-0.0455724805049296,0.00873134066379017,0.000493167724538326
-0.0422804075981099,-0.0423520021961737,0.00791647421348374,2.85774108408314e-05
-0.0211175746140457,-0.0355387375780675,0.00754656587988296,-0.000818684896348276
0.00764952658807418,-0.0447332833835546,0.00653393242887566,-0.00143571274364926
0.0555161134141216,-0.0769811265985635,0.00357423024834448,-0.00153839181565681
0.100197165869205,-0.109479491568628,-0.000539091866886433,-0.00114218315679812
0.127007607335588,-0.0692111128978211,-0.00303098866822903,0.00018715395838934
0.137401985684246,0.0627521267055026,-0.0011818420507026,0.00228150551141475
0.122987386144874,0.160246733691804,0.00165713940556439,0.00336921431350465
0.0899930103745313,0.121908369254065,0.00163410482670557,0.00206900119264367
0.0592726886354916,0.030242851217568,0.00011212210110788,-0.000518747678986453
0.0352680116337335,-0.00632407782814977,-0.00224244355249865,-0.00218098910374575
0.0135826054220588,-0.0149954799804329,-0.00377605220610151,-0.00236613158873827
-0.00732751811721713,-0.0388279754114402,-0.00287251317553252,-0.0020741744631612
-0.0278659218158732,-0.0478642592405691,-0.00157854038754358,-0.00192274219287635
-0.0384946274633483,-0.0238808304822959,-0.00123771574321673,-0.00193265132648438
-0.0301792122428789,-0.00788335622058751,-0.00181542438874083,-0.00191282520764681
-0.0127097255916637,-0.038807764006642,-0.00457556298819855,-0.00146073557370363
-0.0128843178053645,-0.0780363724778945,-0.0081509408553748,-0.000440076452521451
-0.0438001929615805,-0.0723039663796174,-0.00790885941445433,0.000976398374582241
-0.0726300466196714,-0.0424989383056718,-0.00377443943828255,0.00235393157490262
-0.054471196387054,-0.0137204337409003,0.0011655446121863,0.00297401819705879
-0.00587890362037918,0.0320675170979447,0.00466192758825906,0.00245681604659077
0.0176070226526436,0.0738872352429033,0.00498205295721819,0.00120678593658133
0.0119760480847221,0.0656687248763537,0.00309864761312233,1.66877045126661e-05
0.0125830675389341,0.0187098566744959,0.00128249550333726,-0.000742339633243325
0.0281470889830956,-0.025434486862144,-0.000463587609900662,-0.00100721278100839
0.0409191963197267,-0.0461795062580577,-0.00190245626069364,-0.000761787226852536
0.0365421302778247,-0.046601969924776,-0.00219205392242554,0.00012883768409602
0.0233351004918355,-0.0322338209259668,-0.00330127049723499,0.00170068997276255
0.0258642037687233,-0.01084481175068,-0.00608672082816354,0.00257099072486477
0.0527392050254825,0.00101597313102499,-0.0100712115647976,0.00111142346226393
0.0828342842620965,0.00152714779668544,-0.0127854018059561,-0.00198654343001685
0.0938611667667617,-0.0041304417474111,-0.0104172285716899,-0.00475373680322087
0.086654506396929,-0.0128468157407908,-0.00490645940754147,-0.00615242075424924
0.0685722585207934,-0.0163830079965306,-0.00104017955851035,-0.00548428588188791
0.0448539783146398,-0.0115447301488029,-0.00101625257329048,-0.00116959071497058
0.0236351611547744,0.00373750294160824,-0.00110288321283463,0.0072346794460409
0.00449824102724616,0.0237708787814266,0.000946626731622862,0.0161653820395008
-0.0177378641297568,0.0319550806712834,0.00188002587084595,0.0197903335200673
-0.0363345790259012,0.0238723038236962,0.00176572890067169,0.0147704676869731
-0.0442862899909904,0.00831527586922483,0.00171414482106151,0.00293424403560818
-0.0476658596366016,-0.00523835298856919,0.000951206180807758,-0.00969956029379185
-0.0494781363901151,-0.00984855273993304,4.78773110523848e-05,-0.016634533586888
-0.0414647093465336,-0.0032006339128122,-0.0012924042575254,-0.0154815109223859
-0.0209735249038342,0.00608371336038807,-0.00303562601614132,-0.00937918826535856
-0.000512496201511087,0.00687207780551623,-0.00338517422215216,-0.00323314592617843
0.00418200461963791,0.00292048947172316,-0.00425771913001671,0.000487953448989288
-0.00685507370294219,0.0012380604068585,-0.00575783447490569,0.0020226477346138
-0.0191971421388552,0.00345521686266095,-0.00509650248563743,0.00254238757599371
-0.0224162748858391,0.00984214168470415,-0.00406281434259671,0.00289167139842698
-0.0168803550782533,0.017161717945714,-0.00325349341901023,0.00304369470532814
-0.00946044888489097,0.0230758922016316,-0.00229695356543973,0.00292258673476038
-0.00475259508466817,0.0260077679023092,-0.00234833327332894,0.0026763396835563
-0.00110703821445142,0.0262491202912629,-0.00165084222668632,0.00219409714683918
0.002431070690093,0.0288419810974737,0.000773786095468962,0.0015943196047218
0.0020455298393294,0.0354399337113401,0.0033061596237757,0.0010161578936769
-0.00355742064070459,0.0427637841398635,0.00427111546016905,0.000456579235879157
-0.00818359771053837,0.0528051599441514,0.00408737394201605,6.84978269608052e-05
-0.00749049720094903,0.0686339504863015,0.00373664827385711,-8.39674274187019e-05
-0.00379268026176065,0.0822879291374351,0.00265918884451694,-0.000221776347821452
-0.00151169339738522,0.0898076131732382,0.00183232881593661,-0.000519773090211468
-0.00454283483844959,0.10778916490325,0.00221874542369323,-0.000831904418436808
-0.013895399036239,0.145974940258857,0.00329979138511575,-0.00103928620588794
-0.0247185440927471,0.176337618183515,0.00420159418628866,-0.00125843830624038
-0.0286124470486939,0.168252082767817,0.00327149038470388,-0.00150575329869005
-0.0264630164657784,0.133290519025587,0.00100872729361175,-0.00151356697599481
-0.0242066646188707,0.10318878481086,0.000280089288817094,-0.00115599336930036
-0.0256081637080116,0.0794274814347549,0.00117972465685741,-0.000787287488944442
-0.0311830128263529,0.0460081196287365,0.00122680628210661,-0.000932310257514739
-0.0304857032524379,0.0185358632971373,0.000792522375776997,-0.00153964853164507
-0.0175433852851975,0.0180484653257875,0.00152725035214206,-0.00203519272524071
-0.00390365227275044,0.0276847917309825,0.0033232957286058,-0.00210731140896098
0.0014717918353174,-0.00976244248806149,0.00578096139600196,-0.00191713537349099
0.0114640388222462,-0.147158040055946,0.00612256421817388,-0.00165371948569661
0.0394647078707894,-0.297114563144313,0.0025856484345446,-0.00115671940316843
0.0695966930849455,-0.278853750769851,-0.000462051816064633,-0.000200137424294431
0.0787328805463417,-0.103291764663745,0.00134747241890947,0.000777980758639881
0.0738857344750244,0.051144997165159,0.00606018998360809,0.00107159380812387
0.0763657755182791,0.0989964501198097,0.00897188372279044,0.000695007945993309
0.076744446489587,0.0890657234639051,0.00983711652774373,-3.24800661399589e-05
0.0362028187355962,0.0893624685569338,0.0108814658942843,-0.00061938103353421
-0.048831827232367,0.0954218602993485,0.00981876519334127,-0.000463847528529941
-0.126720681128929,0.08211995227086,0.0047437044529601,-0.000252304019749427
-0.158854122347786,0.0695428412197433,-0.0012025161006051,-0.0014932955320608
-0.15412800242135,0.0685345373931315,-0.00467018161507898,-0.00393001901909163
-0.13676259236455,0.0637704175806128,-0.00328409021329595,-0.0055503905684993
-0.125118204264816,0.0545112373695948,0.00307382292480987,-0.00551581266974286
-0.117860558537935,0.0455886871091267,0.0101417071441471,-0.00540965695076396
-0.0867568909896532,0.0265179225235256,0.0130558266221253,-0.00624844398581605
-0.0289874534163291,-0.0129711150441264,0.0117267528999923,-0.00594762915109357
0.00851406775036637,-0.074993172605809,0.00984905533158183,-0.00232863716699102
0.00888976659733651,-0.149781026153833,0.00745319905600774,0.0030552837046031
0.0125108286817086,-0.186239059537056,0.00260160300061379,0.00621863688246594
0.0348030214995613,-0.166463523132429,-0.00302232936776065,0.00656356470481825
0.0471826657124653,-0.163803099475978,-0.00900710245676949,0.00734972578222108
0.0341271457708919,-0.191867729027825,-0.0138782947091198,0.00911785649112011
0.0184309203818596,-0.18368316443181,-0.0136390950529954,0.00946620350096512
0.0292052454067373,-0.131347932542321,-0.00910900318921594,0.0084908589559111
0.0663156170328737,-0.0638630437036913,-0.00473866346045097,0.00889482405119187
0.107514532399731,0.0152092628286551,-0.00278635958244917,0.0101925635203441
0.114323709595066,0.075859127240414,-0.00111375367108265,0.00799954278491585
0.0633109878342834,0.0791437967589857,0.00223874648980913,0.000928195788099426
-0.00773506043387071,0.043485894298859,0.00453989832630915,-0.00724244132452504
-0.0442013385927785,0.00745068999853188,0.0052989362418344,-0.0118862904436693
-0.0446362560749523,-0.0120261172721236,0.00618196000052341,-0.0114998666702731
-0.0446038151807237,-0.0196044818907972,0.00549608851212632,-0.00822788743443118
-0.0595002817142048,-0.0227752922401019,0.00410416758306206,-0.0049480848532176
-0.0754762681813286,-0.0223910396427251,0.00325899041209929,-0.00298720983176966
-0.0818903431803079,-0.023555630789728,0.00189315013192389,-0.00202711526689112
-0.0770156401439921,-0.0226721387721637,8.79406148873159e-05,-0.000992367379065543
-0.0612334857433832,-0.00465570991278018,-0.00238599507884199,0.000696659958238493
-0.0421284387750198,0.0274913191518939,-0.00646656904523971,0.0029006998964817
-0.0242356363122152,0.0519532767177441,-0.0111722834054139,0.00532153820530853
-0.00594494909182081,0.057251251027654,-0.0131916379062254,0.00758316038214599
0.00934193718206193,0.037743519565907,-0.0100807668298036,0.00908893403785068
0.0217983441819855,-0.0255352888206846,-0.00417581108301437,0.00937711832251916
0.0402583432918646,-0.126688563814771,-0.00048538054448629,0.00869734030607888
0.0611669385314482,-0.201651245406755,0.000529040709008528,0.00767007214806201
0.0674531569742004,-0.1894725888419,0.000912221801855977,0.00687171489757863
0.0487378000958461,-0.107263060029276,0.000844358481760239,0.00646648369816713
0.0153394273428592,-0.0262402401041328,-0.000261444298227591,0.00575975548704493
-0.0110106143606549,0.0182661771751969,-0.002301878021285,0.00406035227289644
-0.0246793967990807,0.0425184213396533,-0.00235988937262485,0.00150536528530134
-0.0361767182752549,0.0583140737412855,-0.000321699456870277,-0.00120332112890699
-0.0507183991988475,0.0646138959113247,-0.000680853181582577,-0.00352973793954654
-0.0606607518712957,0.0675123184827386,-0.0030979756579753,-0.00505712892670091
-0.0629730172122864,0.0692556688807667,-0.00502631870140052,-0.00527708388770771
-0.0597457632326339,0.0660290231981522,-0.00799925181344364,-0.00434372037818957
-0.0448482604726548,0.0543088391971119,-0.0111522284649681,-0.0029104750141664
-0.0152905562491437,0.0402970075990217,-0.010688620344379,-0.0015055162062762
0.0196497721534253,0.0503104903301861,-0.00636317445914535,-0.000803499900083667
0.0443571754435655,0.0738203114537033,-0.0023586664430963,-0.00111839747857241
0.0575729958189835,0.0694869728855819,-0.00116584879026793,-0.0020107802230924
0.0683587461894396,0.0434526051316928,-0.000981648648092307,-0.00298993284967771
0.0690884105646921,0.0169457158847556,-0.000626304188975577,-0.00327485244848976
0.0533781145830868,0.00720829536795881,0.000305880658477613,-0.00215463725936247
0.0206678662369883,0.0270640240469186,0.00229352952096263,-0.000412066481420183
-0.0269998542226723,0.0422639978172412,0.00403415985302225,6.29971435979447e-05
-0.0671254732312048,0.0205260654423827,0.00425767678213309,-0.00140768579079822
-0.0811407097201393,-0.0129424307142308,0.00449734345842218,-0.00345021255426837
-0.0721683990886205,-0.0202210613853879,0.00483689372488946,-0.00466144463561485
-0.0553197216508833,-0.00834608599389819,0.00358945498359992,-0.00469887342479421
-0.0427094166936768,-0.00645951277699656,0.00102671540113321,-0.0039808140724367
-0.0341927777736376,-0.024269880967952,-0.00134475470195849,-0.00320758938083204
-0.0231573478187121,-0.0558398036704749,-0.00412403830774419,-0.00259485987382819
-0.00902383119084329,-0.0779674950644494,-0.00738788052998268,-0.00209440746030236
0.0139101768349768,-0.0647183588717008,-0.00819101424113299,-0.00172501080696011
0.0588231875523825,-0.0243455513752148,-0.0067053196936153,-0.00145574629625852
0.094964993148709,0.0142767458048206,-0.00450317215814112,-0.00124772959109943
0.0772277335212427,0.0370206337763992,-0.0017917141710077,-0.00107442583687847
0.0286332365528393,0.0332325864140807,-0.000297149639956858,-0.00107861454759639
0.00282229462728179,0.00246076120709821,-0.000901914047651135,-0.00145984067094679
0.00459861860441792,-0.0200424263675842,-0.00037697123186838,-0.00211076343859438
0.00543287932749718,-0.00992983871924089,0.00166806031324386,-0.0026839585637686
0.000989358378259239,0.0142408519106163,0.00217739960893747,-0.00293997489340745
0.0127811347549784,0.0355661013169092,0.00228324645677222,-0.00289148782536288
0.0441566941977901,0.048580391522625,0.00441951264134116,-0.00270839588101606
0.0708118919065373,0.0476104226246766,0.00761328782855433,-0.00249914686795093
0.0835645387147089,0.0313072109824312,0.00957550111415751,-0.00224723425022341
0.0998299958678102,0.00298812870694357,0.00974322698884293,-0.00211040528891894
0.122313973244125,-0.0216222629507729,0.00832155099145948,-0.0020762502732334
0.134282277421301,-0.0319358054488789,0.0067323501346314,-0.00177866829865788
0.135104338550421,-0.0327282287367991,0.0050617222496703,-0.00118462884001924
0.129700454115787,-0.0262926072429492,0.00176751631900608,-0.000574886959512695
0.10588854332923,-0.0173068099695994,-0.00114145382524538,-5.52730666492616e-05
0.0628776907486509,-0.0126519281843684,-0.0018886215279243,0.000585229040226828
0.0204314337219765,-0.0113252629780348,-0.00285082471192521,0.00150140529656251
-0.00917722399846783,-0.0142358904965987,-0.00472785561227468,0.0024442325182913
-0.0311220940581995,-0.0161420134455635,-0.00466228373388842,0.00304749488107088
-0.0590872452208682,-0.00514908499634034,-0.00238387656635586,0.00299097421866514
-0.0823041496622559,0.0145183025576456,0.000179843640035283,0.00203667861916243
-0.0739793018423685,0.0278126295354991,0.000719819018100889,0.000480707177522469
-0.0385234339897709,0.0298156037035121,-0.00157595805983172,-0.000699640348030215
0.00371334636469178,0.0242677091670673,-0.00373362888677281,-0.000697150207409309
0.0397159751392401,0.013078250418098,-0.00371006710151225,0.000292704731498824
0.0597942121923385,-0.000577286511582537,-0.00182612673205663,0.00144909672668213
0.0648331662979457,-0.01275219563615,0.000575413510859065,0.00223696645744005
0.0625368898691973,-0.0211635929466612,0.00264389644315137,0.00257221696456041
0.0558890148369934,-0.0234826640034723,0.00394550607493981,0.00269106332154679
0.0450484288796606,-0.0214489801822708,0.00400135434203193,0.00297765090317354
0.0317798464463756,-0.0186207652818123,0.00303035581267156,0.00353816361533261
0.0149506877917481,-0.0133623184876206,0.00279903041802486,0.00393915335967326
-0.00706889724247837,-0.00389334458907576,0.00434896163099666,0.00369421888172847
-0.0313557628005908,0.00497520489942805,0.00499863620644202,0.00281749919325191
-0.0561330645315283,0.00744006035999435,0.00381775998146444,0.0016712167365473
-0.0779289385965906,0.00557468561730105,0.0020367510928535,0.000730293943507602
-0.0897917856159983,0.00552432729616396,0.000211571186061051,0.00016383472093222
-0.0884701311924141,0.00901339029590664,-6.7583354665988e-05,7.97181738402885e-05
-0.0780680067508717,0.0139307278050401,0.000222018983460531,0.000604150257129705
-0.0643738963465626,0.0182838763587792,-0.000917821325762775,0.00127315801570768
-0.0500360069943247,0.0212825274313234,-0.000744950873922784,0.00153053823579846
-0.0396713004178141,0.025528406875343,0.0010144089928043,0.00134049245571302
-0.0313724038374988,0.0381514881556066,0.00136994385162785,0.00103269258103921
-0.0145476999791144,0.0590786046482869,0.00202652317245362,0.000810111383229968
0.00582954416452799,0.0736739515119977,0.00250123161045017,0.000616742298466746
0.0111649644660332,0.0764920537307624,-0.000869734639409885,0.000582072383907892
-6.73432482584668e-05,0.0832776855078548,-0.00351987839245033,0.000606755925404929
-0.0121199353271042,0.0984360480072457,-0.00157814305403128,0.000249936854210473
-0.0153461584835132,0.104655368274204,0.00194779994833198,-0.000328286084903181
-0.0166551416779207,0.0923948027158426,0.00478085919868954,-0.000605087887832316
-0.0367800959000697,0.0695419370041586,0.00699975374723035,-0.000563760845191186
-0.0747006392746031,0.0493615588379343,0.00921469486866526,-0.000422118509418284
-0.0979952173232064,0.031357347830974,0.00898229356134945,-0.000208118216930843
-0.0965216421033772,0.00239062270127889,0.00622873401728495,9.527037858478e-05
-0.0860069777748936,-0.0321947190150274,0.00427162935312514,0.000476968004122505
-0.0700531779674007,-0.0479265183990388,0.00381498193543312,0.000758301685254179
-0.0472238054125229,-0.0399513925270815,0.0039552395162893,0.000714247706885913
-0.0275321109883485,-0.0216221957479593,0.00453116286197069,0.000433602831253262
-0.023813066402296,-0.000463709145511748,0.00590578599165666,0.000168136140518929
-0.0324041587595899,0.0133809637634864,0.00696731671624573,-0.000165903018831012
-0.0332849908757776,0.0221408679695397,0.00776995152280027,-0.000833968682581702
-0.017621773235904,0.0306431570157141,0.00803041991166842,-0.00192675101825685
0.00117251762908389,0.0170587461740368,0.00464078508522778,-0.0032429030804967
0.00517601029027504,-0.0207882195520231,6.53941000068759e-05,-0.00398486460397366
-0.00717362905321696,-0.0426236864187101,-0.00200627087676104,-0.00337567712340865
-0.0198979529539984,-0.0293691155058302,-0.0033952452163376,-0.00169910339230413
-0.00784796845659735,-0.00698726392989704,-0.00312739840438136,-0.000113584732725565
0.0227142304407628,0.0081480613587076,-0.000295903532475376,0.000495950260949674
0.0398801596621427,0.0215327124742835,0.000916698858365375,0.000293191873719942
0.0471999623030631,0.0377733920525785,-0.00216929251892898,-0.000102355133339144
0.0474776905747653,0.0799952795475908,-0.00683428282779757,-8.03881320752949e-05
0.0249956596791991,0.141526736139209,-0.00676591545001139,0.00119541012452473
-0.00837754592000244,0.145845565084662,-0.00140767865779269,0.00309503350012877
-0.0258186492715396,0.0682798071231825,0.00343421058168029,0.00290763499417722
-0.0130189152453529,-0.0163285278870021,0.00627817460981348,-0.000657841417448058
0.0184644399042948,-0.0433461283356321,0.00731493578759322,-0.00502201448393319
0.0401764753384944,-0.0214070130436483,0.00565711451522321,-0.00615629392696942
0.0420516006832056,0.00673866354513478,0.00369689625953862,-0.00306212090636969
0.0330177239221713,0.0200753315069357,0.00279674908301534,0.00131763950486113
0.0246957117985363,0.0237414533310017,0.0015062311553729,0.00354010525148967
0.0239599008499253,0.00396859232826471,-0.00226167190033685,0.00286729344101927
0.025374852460502,-0.0816694190219858,-0.00554434758854839,0.000832370988307189
0.00476203788662956,-0.191840501071654,-0.00408806744399874,-0.000909008308244285
-0.0547759771605692,-0.203933355045978,-0.00139246864235196,-0.00159310046812744
-0.114769042639978,-0.122553640738258,-0.00101511816064732,-0.00130976764717271
-0.122290043294371,-0.0563523236957178,-0.0034806104204685,-0.00052557369870176
-0.0867787147277753,-0.0238868152623677,-0.00755549731763967,0.000164632465026605
-0.0437713654211205,0.00463040313154445,-0.00951815705679146,0.000414382858570648
-0.000591452338541951,0.0169144984771375,-0.00623395625284354,0.000135917768356985
0.0386602284708076,0.00621121731244691,-0.000808183308812469,-0.000686062786220448
0.063476513648356,-0.0102051575582925,0.00219485698074478,-0.0015249331155594
0.068306299409838,-0.0292769734324234,0.00332111331654529,-0.00162522199255282
0.0521973721468411,-0.0529491445706148,0.00280421705476887,-0.000862018984218548
0.0338275646173626,-0.0394376363448428,-0.00137568862361875,0.000238936808224782
0.0307125194022177,0.0348009324210146,-0.00725844663748331,0.00108063650214307
0.0244983615557132,0.088363828960661,-0.0111180032399995,0.0016862301121913
-0.0018847357280921,0.0574188451703177,-0.0133613030492726,0.00227018258771024
-0.0427020320854219,-0.0078041866774346,-0.011921435617065,0.00259763910038154
-0.0857176242678043,-0.0451097151601053,-0.00547112880715771,0.00260608672698667
-0.110089175741431,-0.0526111640428566,0.000694075642714452,0.00215250391903722
-0.105845208418984,-0.0545227647326303,0.00395671433123408,0.00117743482110702
-0.082525069020231,-0.0572597959029461,0.00563015802033866,0.000383726114032558
-0.0474358482422832,-0.0445966954022846,0.00684846753274193,0.000262570179737086
-0.00651170187147193,-0.000639811055462042,0.00870851903838472,0.000844906199794004
0.0284242628971832,0.0750744701135378,0.010487161103368,0.00200619565591604
0.0472437523828192,0.151955005915497,0.0138566761551263,0.00296931220274822
0.0495785568695032,0.160057734170249,0.0200073744708783,0.0026218311737484
0.0425236783044123,0.0816741720578298,0.0224998260140678,0.000727881897519988
0.0383144931344016,0.00692452979356714,0.0174039209004088,-0.0015995201727431
0.0404963952297868,0.00298843824559814,0.00895649071845448,-0.00265305981100252
0.0376493894285534,0.0245712354100815,0.000928032450128163,-0.001896813350084
0.0307163342320694,0.0137028886042896,-0.00485416704532769,-0.000499999023115146
0.0310396094147121,-0.0230739106963042,-0.00702651867708919,0.000302241907969606
0.0369763087493013,-0.0887310941125067,-0.00672128349410285,0.000169234558045684
0.0363606435596172,-0.200733916428582,-0.0067673317729445,-0.000560819506213364
0.018450505822569,-0.284906109096359,-0.00923087012707964,-0.00114782111292876
-0.0158762241485218,-0.240193214542384,-0.011911548314309,-0.000835110273784423
-0.0548060547294032,-0.104381130778955,-0.0120466664653725,0.000273274429140349
-0.0878590977064425,0.0101532863748564,-0.0108812235821581,0.00124747868051756
-0.111579073986848,0.0693366499572148,-0.00830333324989212,0.00160531180227415
-0.128790970679762,0.0976298241918815,-0.00417799601470153,0.00158601658566913
-0.134300810872082,0.114418943374114,-0.000214873951960879,0.00158907748786239
-0.113812438230356,0.126223663025681,0.00373291040118727,0.00151252592617949
-0.06888567928388,0.129448970843208,0.00657054222933606,0.001238624765651
-0.0139773580615332,0.116920708097436,0.00796346818800303,0.00115467564849363
0.0447481418107631,0.100948736230866,0.00918046070543298,0.00126171201926907
0.0972530328216078,0.100187530797898,0.00956376017915626,0.0013952676468275
0.124341724576597,0.0740980689940075,0.00725146511466861,0.00171954977531844
0.125545922039261,-0.0152188983814861,0.00255583080507467,0.00215438685460174
0.115424446343045,-0.0979218091232635,-0.000916999715533863,0.00217192470034457
0.0953011916694757,-0.101973466026348,-0.0032711029716866,0.00153383191474582
0.0611281137660324,-0.0680323396330381,-0.00829288781698555,0.00061225883981646
0.0247955794756797,-0.0556163858960664,-0.0142728195898903,-0.000564876176188475
0.000289111717969401,-0.0516155313236887,-0.0149833233956321,-0.00346984340779041
-0.013320370280921,-0.0374538717119699,-0.0109202682643017,-0.00920620139042382
-0.0200217401995828,-0.0286083510770843,-0.00694137644420538,-0.0154965216618651
-0.018958902692919,-0.0307295681370121,-0.00464545134537608,-0.0183478392387026
-0.0114820311978541,-0.0327611640621179,-0.00418278342300479,-0.0163114426433889
-0.00226345478136756,-0.0302284486382675,-0.00469512871865312,-0.0115882357308176
0.000634353419956673,-0.0254609602019952,-0.00533610718975103,-0.00643182848083029
-0.0101267222698584,-0.0194999498234139,-0.00638896091013991,7.00319634745761e-06
-0.0222404493061269,-0.00486424435095546,-0.00852713425365349,0.0089410588588917
-0.0141258025119801,0.041524579526234,-0.0111666169587244,0.0183198039065985
0.00343962412179276,0.0953137367761057,-0.0112968336643436,0.0234310707456429
0.00524239113252872,0.0936468929329626,-0.00850186501544828,0.0200073893938718
-0.00527488799770083,0.0517360098511034,-0.00566546399438704,0.00921647662059415
-0.0011136265999499,0.0157263858317438,-0.00499984820332633,-0.00109719739273675
0.0320315225778382,-0.0266629220377578,-0.00656277094776449,-0.00374667295901603
0.0703972634445294,-0.0795265625917624,-0.00723619887793292,0.000143631393187357
0.0826006085576022,-0.105796360066903,-0.00636887656903576,0.00375511420712085
0.0682170135170898,-0.0887025610775374,-0.00700039232871553,0.00260987931763013
0.0559447976604892,-0.0509056720888374,-0.0078109543088017,-0.00232796021988721
0.0628660057121779,-0.0145295798407471,-0.00577653839464171,-0.00718475356751637
0.0703395437951359,0.00593180690118908,-0.00420457928923593,-0.00922193086374932
0.0588834541498865,-0.0095507938781262,-0.00626596066169503,-0.00842531726575964
0.0314092083757895,-0.0412018485889604,-0.00942095741916239,-0.00668546968460729
0.0063185356894903,-0.0444838418763939,-0.00975950709416537,-0.00544593386931035
-0.000721146614652959,-0.0215046467724241,-0.00639178406079903,-0.00443804120842144
0.00435658283008233,-0.000517896140010118,-0.00364215698223004,-0.00321159076145757
0.00989938907883836,0.00880962493563592,-0.00290257352435368,-0.00172129375400386
0.0109649454664621,0.0135401554097445,-0.00182983346669888,0.000119486693633958
0.00768968069840765,0.0192347331873113,-0.000560173520754854,0.00211916119337286
0.00609249957778243,0.0256273581131342,0.00134786289309179,0.00403688017273755
0.0108711487328635,0.0287544376800806,0.00241655992830838,0.00580998573931185
0.0205840286039036,0.0236588130476397,0.00206487771319922,0.00724791632815476
0.0298342057061926,0.0132806032649828,0.00128093444672855,0.00801562932319451
0.0345010201408184,0.00324132475606718,-0.000447982146107095,0.00803184811949751
0.0329819145986771,-0.00471650432614833,-0.000277001923570547,0.00751319877483668
0.0288404301368708,-0.00889174490207643,0.00152427201575559,0.00661146929412521
0.0265703436415904,-0.00903144844161061,0.00121551227961837,0.00548824234339187
0.0257355264912377,-0.00966617426168562,0.000148161631815122,0.00420024839327787
0.025149408798832,-0.0146366463531025,-0.000274313705231842,0.00286752916629916
0.0244730447129552,-0.0211786892381865,-0.00219290655482513,0.00176269725480905
0.0237464141423427,-0.0239591880266668,-0.00474080021482471,0.00109477526119182
0.0229915508007719,-0.0220383398693021,-0.00491269548664878,0.000838495820591444
0.0222709814591077,-0.0202588096382655,-0.00394648117901351,0.000396813335969512
0.0205890072729893,-0.0205139683033219,-0.00417664570129464,-0.000698093643951636
0.0155635317639453,-0.0210448471881439,-0.00551795876067733,-0.00192139327057145
0.00974124282646464,-0.0205926245023165,-0.00628467462965633,-0.00259897479286888
0.00616870308387168,-0.0179484440697688,-0.00599753627392,-0.00290478545678186
0.00184553886558835,-0.0148604607210742,-0.00568646594646857,-0.00319324662754869
-0.00335956365241988,-0.0121584885196952,-0.00384083880879971,-0.00347286548782988
-0.00607601949362959,-0.00981052859329393,-0.000594526001393614,-0.00355262726064738
-0.00784878815613316,-0.00846433384937704,0.00116089355142448,-0.0032412942530994
-0.00983958229211009,-0.00787581214859072,0.00155700716471314,-0.00274098934070366
-0.0100660717340757,-0.00837658714534023,0.0021744063747197,-0.00230600879892662
-0.0108389259138768,-0.00849080406803884,0.0024262651278927,-0.00191918437979324
-0.0132035421632181,-0.00755293585685966,0.00198473999569073,-0.0015473286270866
-0.0139941416546254,-0.00695125403383489,0.00205360568884646,-0.00103366024828258
-0.0125305835797997,-0.00578092185494531,0.00254422510421721,-0.000491918952916456
-0.0112394737589506,-0.00131405808584418,0.00222730656062402,-0.000362168120022527
-0.0132030825755478,0.0115701229334548,0.0022328379142976,-0.000636628825590063
-0.0185911976342539,0.0330441182575779,0.00296379196327903,-0.00091739890420958
-0.0275302118978432,0.051235065577929,0.00200830276819829,-0.00101607356050099
-0.0435022105518374,0.0572449547091854,-0.00107760360360979,-0.00108696394051968
-0.0632936836745506,0.0575840921207438,-0.00332577746232912,-0.00123294620604097
-0.073689228057581,0.059439996503192,-0.00261896692928151,-0.00156731300944696
-0.0682188277150058,0.0583946636301436,-0.0018727466922101,-0.00210641550463476
-0.0566239651451247,0.0506977779899233,-0.00157774098543378,-0.00253147596304054
-0.058063246591486,0.0459694299892926,0.00079127687005971,-0.00275518522435583
-0.0866269037505,0.0554827940174305,0.00258254011914008,-0.00300956643142206
-0.124272744557309,0.0663199421973113,0.00280676537962095,-0.00321348606428137
-0.137032184332381,0.0585916656526748,0.00334779379654505,-0.00308487453634811
-0.121759653759041,0.0233790973612056,0.00311280579545547,-0.00292933407902647
-0.089710210354005,-0.0599045017476352,0.00162965642539716,-0.00369591869824578
-0.0417434132279233,-0.157399404389529,0.00125769774042815,-0.00559295364886643
0.0164636988447839,-0.162113611316654,0.00446097875346139,-0.0072843456355566
0.0734152405448129,-0.0709382248222608,0.00716355530373021,-0.00751565806776574
0.115213165675326,0.0103996013478881,0.00604768131427886,-0.00649081211231855
0.130133163392635,0.040956251489678,0.00506229503486872,-0.0046551117210289
0.127481872347882,0.0493085465077785,0.00486749192080051,-0.000690386719967575
0.12937120603431,0.0532622728054464,0.00248150045283605,0.00704660037819325
0.145768233433611,0.0622483562234497,-0.00134786498815937,0.0157129865735511
0.152586063366362,0.0769162020856756,-0.00515207208468692,0.0188482459871397
0.114678351567865,0.0636543184317762,-0.00966765392854642,0.0138636313350421
0.0360198059875311,0.0246018363004614,-0.0116530173447308,0.00456853156726494
-0.0584697281041443,0.01712405252969,-0.0078383138969344,-0.00388241194478153
-0.143377033087143,0.0504126328366135,-0.000842347164668099,-0.0091409798956629
-0.181812389476684,0.0670565037030063,0.00517016669642518,-0.0111004298714818
-0.170992081528487,0.0375622266482717,0.00716954511830098,-0.010601033080581
-0.160196666306072,-0.0310161986457464,0.00635541891806655,-0.00870535129601404
-0.165772669797399,-0.13013870749259,0.00523087789684361,-0.00606929945788338
-0.153226616846677,-0.193342023229582,0.00336902738784357,-0.00301461942983485
-0.11011283977846,-0.157315722896291,0.000649692836969089,0.000157329502438105
-0.0542088458435331,-0.075628260775386,-0.00325457880964962,0.00333163222915025
-0.00152220213009319,-0.0350603152104404,-0.00620520802733106,0.00667796539631657
0.039645325867476,-0.0405638739532295,-0.00475043271862265,0.00951006181588441
0.0722715977838525,-0.0467577674714548,-0.000862390746505385,0.0104061744888055
0.103087593324794,-0.0372115808650315,0.00303279512773036,0.00891134900682314
0.126014984484494,-0.0242776294073125,0.00542432259913693,0.0059500958383192
0.135073139830512,0.00678123424594784,0.00552838828972679,0.00323660030517774
0.13985693629438,0.0717361432495389,0.00524015305740558,0.002381842679475
0.141218157991443,0.113158355964158,0.00475485419392211,0.00373921956515679
0.122794090411413,0.0771541150251383,0.00437342526519979,0.00568017968762535
0.0870617435554804,0.0140233654864794,0.00368123349318325,0.00553986113175291
0.0507398097806161,-0.0138705842263359,0.000829502456529485,0.002413205797268
0.0174690068150864,-0.0237151821503056,-0.00307386589101697,-0.00176858867341161
-0.00932824927626764,-0.0432235973632476,-0.00636484876630596,-0.00447785370765185
-0.022148735037101,-0.0598592815250647,-0.00886334259687158,-0.00489880966877307
-0.023636734113524,-0.0610054415462737,-0.00957957506387544,-0.00391480612344592
-0.024372237921561,-0.0520575330643678,-0.00651204162994224,-0.0023763670750703
-0.0259066691254298,-0.0456085831675377,-0.000767867449728015,-0.000725051691135656
-0.0260109294773564,-0.0493228212699601,0.00365971007013667,0.00061324107388195
-0.030010528629528,-0.0541358507635602,0.00450314853927765,0.00173683531593812
-0.0324886875179754,-0.0452212768954181,0.00230098093728726,0.00250003688137367
-0.0254277994403652,-0.0220057811467098,-0.00168423449358147,0.00238327099383546
-0.0195164266337479,0.00259058732302722,-0.00509364628163587,0.00173638748334828
-0.0221484151149792,0.0197622557796545,-0.00512397684332146,0.00125141798228381
-0.0239592523537198,0.0292037423756275,-0.00221427726229375,0.000798610990746996
-0.0165753074730272,0.033018823055247,0.000987646369400098,-0.00029112446826451
-0.00354812247680754,0.0368935674802466,0.00390103081326909,-0.00204570404806532
0.00437155414229936,0.0438893692330249,0.00603433126362844,-0.00382070986641466
0.00457107088328026,0.0525461957921571,0.00613792211980814,-0.00484625968153886
2.47482821815245e-05,0.0592526838715106,0.00695378928201356,-0.00468267424794067
-0.0147309874655591,0.0517131178154471,0.00796978435489642,-0.0039918788142636
-0.0332421451546945,0.0227312642437659,0.00581806525344995,-0.00362122187673531
-0.0354177604779744,-0.000953264310094834,0.00350107215251569,-0.00352597378151254
-0.0236429113932791,0.00836812789816763,0.00230419165713921,-0.00328776557887695
-0.0173738987773566,0.0299881749858058,-0.000165034264803373,-0.0028482890588077
-0.0205165633955954,0.0339481363599375,-0.00283303909038235,-0.0025501731316497
-0.0222206403888916,0.0240433387309554,-0.00233446353021964,-0.00229914841100405
-0.0166636797874278,0.0181237598763811,0.000320876435211985,-0.00145521486612383
-0.00450184579525149,0.020906901612051,0.00107283021157866,0.000370523201582097
0.0125813877602454,0.0213412705778157,0.00186345270197619,0.00242545660331258
0.0278672230882545,0.005315475062615,0.00454107355794781,0.00288215629500935
0.0371646288682289,-0.00775096805897821,0.00514576898935169,0.00139136486638224
0.0435400711594921,0.0221238542565232,0.00132414579273064,-0.000160681728963078
0.0410908489343751,0.0723390070697415,-0.00523363377279468,-0.000485693171863907
0.0234765681849195,0.0842618011579577,-0.00902353714248018,0.000127651966980434
0.00080034911814994,0.0578201536705169,-0.00626184210243674,0.000907773612514172
-0.0168365446968643,0.030807789078352,-0.00213660432232558,0.00152373202794861
-0.0289848771943489,0.0166328404065558,-0.000760025168418914,0.00187141933188607
-0.0359887492822346,0.00450757274310244,0.000223378338731612,0.00123589528901809
-0.0368610225747757,-0.0080945013166907,0.00242573168170652,-0.000518294596340163
-0.035566883917832,-0.00785474609002423,0.00522531285369266,-0.00266236029006693
-0.0407670103884436,0.00730127533859316,0.00604312303125623,-0.00492080518746525
-0.0515194871763864,0.0229017453870968,0.00504475784563495,-0.00672673427724896
-0.054921297251736,0.0292607522144255,0.00437142136832507,-0.00706978485480213
-0.0469809215745652,0.0262897759426243,0.00254659732090377,-0.00566723561261364
-0.0400914083044253,0.0206792273940316,-0.000447793280182667,-0.00287363979220178
-0.0410561165104475,0.0186208838111992,-0.00243103343544883,0.000619800877401015
-0.0389783328084258,0.0207478899271758,-0.00253782820860031,0.00401722416213911
-0.023632186472141,0.0293525410414607,-0.00182538444554884,0.00681730216878833
-0.00308004093167971,0.0507245212557119,-0.00142677307972102,0.00873670600707641
0.0112165056750592,0.0799834809282064,-0.00108060930615784,0.00952603707430872
0.0226259780981684,0.0916946373510764,-0.00101596193089059,0.00880232402337726
0.0386311150944062,0.0684216593773934,-0.000645412255294986,0.00625615315981814
0.0541544574653027,0.024428736540219,-0.000794464537734115,0.00248117434780083
0.0589898710678969,-0.00479417767976793,-0.00212039894594859,-0.00105043181314622
0.054182428072039,0.000373899328753119,-0.0039618774719724,-0.00335016831354202
0.0456963661319009,0.0191473179685088,-0.00569321961593602,-0.00434934520451586
0.0412229493129308,0.0329421138997387,-0.00561196532186239,-0.00371649034549181
0.0360347360029674,0.0589400714406273,-0.00387459661204509,-0.000889707814637762
0.0142074268842162,0.0959857906541657,-0.000899650523714724,0.00389495409488227
-0.0169866485739731,0.0965037744119964,0.00184323125625008,0.00892208936536241
-0.0415517676110807,0.0161010509311088,0.00269387616317609,0.0110923543669352
-0.0664343061569962,-0.118056845266052,0.00243791439121444,0.00883731389478758
-0.0996784666125659,-0.195663562278848,0.000173802389191947,0.00426491172600738
-0.118740523888769,-0.140908037969598,-0.00128545638852003,0.000601537505630977
-0.102922730635174,-0.00965588801450185,0.00239202917099825,-0.00104114560335229
-0.0677124066623596,0.0972111536121514,0.00674244805611968,-0.00123265293761827
-0.039899153858558,0.148963947480894,0.00868689291792629,-0.000845652708040563
-0.032437920538777,0.163180238001351,0.0104964428268613,-0.00101424516186818
-0.031982016052298,0.156159649634175,0.012817401832126,-0.00220886238344907
-0.0115168511115445,0.131864807499475,0.0136436778998903,-0.00385148054067807
0.0243923497071638,0.0893171460634593,0.011602807501632,-0.00521610486782111
0.0428248919353151,0.045568397031191,0.0101685574080019,-0.00562215967468679
0.0324986544670065,0.0394095774109162,0.0107870840709103,-0.0047123144712201
0.0032310628330612,0.0671889084077967,0.0100078620233826,-0.00277737810117572
-0.0372061457485868,0.0668515493044753,0.00666694915822586,-0.000349372130227454
-0.0683602313364177,0.0266492778130008,0.00304155635279174,0.00190846129061968
-0.0710654210184939,-0.0223494651398574,0.00137752490251122,0.00333974990216629
-0.0504574581575022,-0.0803621549494802,-0.000389766506675665,0.00393906548426429
-0.00936229491204832,-0.141641785539775,-0.00389627250054877,0.00422272142566707
0.0440829509324167,-0.16401832970669,-0.00673087359122994,0.0041267632041199
0.0703234276507654,-0.154071920905187,-0.00904366842245871,0.00285789539537986
0.0531827859951187,-0.15380476800584,-0.00793345037208426,8.77049947606966e-05
0.0266650920496054,-0.110065910308886,-0.00184927088367922,-0.00318442807160834
0.0138282504022694,-0.000414554440636677,0.00211251452237878,-0.00561477244657896
0.00552159914446382,0.0709155886061734,0.00131086751737142,-0.00713152909603041
-0.00991577806063317,0.0624497808385533,-0.00204398462866639,-0.00744596358453125
-0.027846073084138,0.0397680532937875,-0.00444131015747548,-0.00458868217496913
-0.037580309337498,0.0352543142253432,-0.000834422504280428,0.0023016820361657
-0.0392551955377308,0.0289679115009064,0.00680116236937733,0.00996228604771088
-0.0340960039968466,0.0145171580213938,0.0112203416299525,0.0130347296801594
-0.0228791089138385,-0.00495606275891497,0.0110762307830962,0.00972463369250998
-0.0130749992885945,-0.0243405883939518,0.0100093150195145,0.00351615270731584
-0.00662702545197137,-0.031687978491229,0.00887979462520322,-0.00100981193163083
-0.0112775253063332,-0.0380964055617442,0.00514025621760059,-0.00262396311461563
-0.0315937606868977,-0.0548547468139928,-0.000496711719932075,-0.00298822835154699
-0.0537913821555309,-0.0696111525109058,-0.00261649346750063,-0.00363674525352503
-0.073143979871803,-0.0775908521951127,-0.00121721657502669,-0.00507209769123597
-0.0862676671933601,-0.0803382296837878,-0.0013983844641982,-0.00712251467517182
-0.0822888051571252,-0.0799772566452658,-0.00319935878536774,-0.00937624371915493
-0.0598832008552952,-0.0846726354263233,-0.00528558888868772,-0.0108628206194978
-0.0227716312361199,-0.0939889741058593,-0.0067785572298154,-0.0102548890698857
0.020132179226999,-0.0980492958807375,-0.00497393947533543,-0.00754440353926569
0.0595005621511176,-0.0834994821504972,-0.00274821094868151,-0.00412699844026609
0.106376456195712,-0.033894092068702,-0.00472813321742209,-0.000807608700264972
0.15527060748264,0.0205022506153083,-0.00971044979108794,0.00339034641108888
0.165894360803517,0.0157606818905276,-0.014755333920067,0.00981130764169614
0.134439912668431,-0.00175778547718804,-0.0158344357326631,0.0168553155263597
0.099997196522611,0.0518079685362618,-0.0110880080614983,0.0195973262192861
0.0814619500355895,0.10962650360518,-0.00449741030191804,0.0154904403061692
0.064208651484593,0.0886544867888791,0.000135688953263831,0.00772069401782807
0.0282608995064644,0.0292157738399381,0.00257135248733913,0.000730014513374906
-0.0140219363269128,-0.0130358582447556,0.00451382769080195,-0.00385301809586997
-0.0344293183449213,-0.029395079491029,0.00648597157049624,-0.00631582287033883
-0.0340307879050452,-0.025697219427748,0.00713028309588156,-0.00697871431372594
-0.0296737409406719,-0.00978965995876078,0.0075234179041856,-0.00625637936407944
-0.0302379825271834,0.00998203913267571,0.0109226942745924,-0.00506648560675297
-0.036024773030945,0.0200796320295561,0.0157305492808024,-0.00407149990391887
-0.0380451683490098,0.0123133923924629,0.0170963468154134,-0.00339712625040262
-0.0226784504671792,-0.00744920032768405,0.0142623622016855,-0.00299876391805789
0.00785599650344995,-0.0292950308055387,0.00958115621305717,-0.00282693559780138
0.0327992005164293,-0.0467934306488973,0.00460642953756277,-0.00286287332041686
0.0352711303792633,-0.0590614740560966,-0.00129201367148965,-0.00268055188409616
0.0229006417326873,-0.0488248397231344,-0.00933511409893256,-0.00118072987059826
0.0204953970268143,-0.00113037025327424,-0.0181109931643008,0.00207598095023187
0.0380776085114189,0.0520994889282771,-0.0225054884080025,0.00569451625123698
0.062896012786854,0.0722060282433561,-0.0182154316880368,0.00721011810200689
0.0797943584424675,0.0612375528419199,-0.010061349568608,0.00512909944052694
0.0869728344056282,0.0434802407917354,-0.00633883011857688,0.00098153284703438
0.088886650517792,0.0345490412867518,-0.00709464438852009,-0.00183717005013143
0.0886143626685318,0.0321358367302496,-0.00849199945048084,-0.00179900032310515
0.0918443292675716,0.0335498158594383,-0.00857203456350794,2.76783574821067e-05
0.0967287105907084,0.0454982075249062,-0.00315619618059056,0.00165657970157083
0.0892318006928744,0.0652105503598125,0.0092541589742231,0.00117713235427633
0.0614055663424934,0.0765164326922072,0.0194145143807726,-0.00166490885716557
0.0235815459851334,0.0733464890084743,0.018113879413393,-0.00474140376142665
-0.00396599068454964,0.0635065928673469,0.0100979996937516,-0.00569272994854086
-0.0159761843282514,0.05096475390035,0.00601186662875411,-0.00427423198377408
-0.0209451016053219,0.0372282243208433,0.00457344910305394,-0.00194837688565973
-0.0209564930997433,0.0287899116249062,0.00101559441946195,0.000112945805525748
-0.0147830708880866,0.0223010184745146,-0.00231145003420372,0.00146895536793986
-0.00704179256000575,0.0126160040348878,-0.00331239811238867,0.0018335164307305
-0.00503907926112069,8.87366420253971e-05,-0.00305682371229627,0.00112898875652761
-0.00526639714510098,-0.0516944821754644,-0.00427180958281159,-0.000391140078151193
0.00451829717446157,-0.153244945774361,-0.00719598613648097,-0.00213284738522232
0.0241383396611411,-0.201269693776411,-0.00909563627460003,-0.00341285179741401
0.0373023694958963,-0.124926495641473,-0.0101812559862685,-0.00397874665122061
0.0362152095529222,-0.0104425474850717,-0.0136037567284813,-0.00374028906040774
0.0315778634462744,0.0414067449154209,-0.0169037198415769,-0.0025718859354518
0.0339260584500673,0.0492455777366457,-0.0148281771371921,-0.000841070811761801
0.0389636150393166,0.0645501088118664,-0.00945889984860493,0.000893565199169544
0.038429886555078,0.0727662654969729,-0.00546713043161684,0.00217090863229943
0.0327939047703751,0.0553805030467458,-0.00415924151392048,0.00249298389824277
0.0376216353134869,0.0209073510387166,-0.00373252552991257,0.00177838656211521
0.060137109993699,-0.0344209659887671,-8.62819715575485e-05,0.000720863784948949
0.0647559999037878,-0.0850644434283915,0.00569033011097325,0.000252360777566013
0.0329100366500163,-0.0810386146242333,0.00732962896173172,0.00101723866630017
0.000472414554397116,-0.0390424826347739,0.00374934377268659,0.00307972602512552
-0.00564715675574973,-0.0109045844429942,-0.00092658169407784,0.00512229061253843
0.00282809718589706,0.00127156192382327,-0.00200743045972474,0.00514693990622578
0.00408252488891954,0.00759369717545396,0.000752940797787136,0.00254767953899688
-0.00433900478476026,-5.87882368844987e-05,0.00224621098726147,-0.00113875416967654
-0.0117772285719597,-0.0137955084743401,0.0012108686429802,-0.00366991308157773
-0.0190370602585715,-0.0177872469195516,-0.000117138894228626,-0.00435760321045385
-0.0324546497241738,-0.0128504023157963,-6.30141583894198e-05,-0.00403597411777012
-0.0543853465381189,-0.0121886474563585,0.00269089160303552,-0.00361762328045051
-0.0801384577506719,-0.0231118810102114,0.00525376203632511,-0.00338060821439456
-0.0925233027802679,-0.03768798523921,0.00408047576006277,-0.00302857229043293
-0.0853962855043822,-0.034794998266228,0.000182626396290903,-0.00231447455498751
-0.0790125318985253,-0.00451327330736162,-0.00523643544868351,-0.0007933475722257
-0.0806736060443644,0.0223544563753493,-0.0127641509358815,0.0022370184682816
-0.0550244231647252,0.0190123474576043,-0.016902671217307,0.00626145824288297
0.00616042553894802,0.0165372030578382,-0.0109295673058938,0.00867209401399126
0.0432973700604547,0.0303480601149308,-0.0008576554242705,0.00700470304619576
0.0270020822315558,0.0194622148982173,0.00744307659446168,0.00262373006290178
-0.000776359567065361,-0.0207960775094947,0.0148711225793753,-0.000573691968439042
-0.00751435830631043,-0.0210058688560452,0.0186749913104531,-0.00091481090061457
-0.00674853314889792,0.0528138632304909,0.0183932549305109,0.00037832996657393
-0.0230612202014064,0.125523218108284,0.0173076840488992,0.00181079071648156
-0.0586750226428692,0.137316976563712,0.0158919245356277,0.00291120723950542
-0.0913810400264345,0.114141034793888,0.0144918615875338,0.00312531757488503
-0.0978329513964103,0.088928685147506,0.0142757680643745,0.00169797956899296
-0.0770572291865383,0.0536740499157176,0.0139270097857816,-0.00106899515120439
-0.0358644814627539,-0.00846198138925619,0.0119455248981209,-0.00389203345105746
0.0119385170847985,-0.0576521289404562,0.00787769904095074,-0.00545790211922161
0.0295206350170643,-0.0539167338798607,0.00296212217707133,-0.00543248378881041
0.00164414833542853,-0.0361112630451737,-0.000773869107326391,-0.00424354607428821
-0.0400134336771594,-0.0451742973961583,-0.00587447167530746,-0.00253129103150335
-0.0616828165583649,-0.0762593833339464,-0.0135098696613998,-0.00119876828836608
-0.0522700059374573,-0.10493685561175,-0.018873086332269,3.90235502089097e-05
-0.0186727723419231,-0.104703486262314,-0.0191316809187053,0.00247458867950912
0.0180957279413248,-0.085961022226939,-0.0146655472911726,0.0051305048515901
0.0366588293034185,-0.0635427562686964,-0.0074906102844243,0.00554446901839221
0.0272106904818024,-0.0265501122392012,-0.00283110322496065,0.00350185717571384
0.00271058802477558,0.00357976461244708,-0.0021096539905295,0.000835453222414458
-0.0170858617702016,-0.00680313572226882,-5.85695165351546e-05,-0.000913623932963935
-0.0299075738570403,-0.0395739456765657,0.00395402605559665,-0.0013033978732461
-0.0377349615523553,-0.0515088414567387,0.00477339613381462,-0.000631200626837107
-0.0310497081333265,-0.0318850549370851,0.00155099760459096,0.000748288254303128
0.000869734543485413,0.0200082444235876,-0.000265398812238171,0.00306209846695539
0.0448328977993137,0.0847795439284823,0.000741228896864529,0.00652050867375251
0.0741348787290511,0.0967934866574434,0.000106345633360387,0.00932982852686347
0.0849827921657371,0.0366398686062116,-0.00117359401237888,0.00819609927639952
0.0925084474006787,-0.0515368776569702,-0.000146145382993423,0.00268631017175983
0.103033960728578,-0.109600383553151,0.00123701064605897,-0.00446355028408634
0.107490534889214,-0.0887065629082457,0.00139765476079318,-0.0117910347492883
0.0971914195488971,-0.00874531087982412,0.00060303709551651,-0.0184688813128225
0.0708713375332087,0.0366253905710389,-0.000927450206935675,-0.0216478327211491
0.0369709021669849,-0.0063658243522365,-0.00303566397629505,-0.0192419183325122
0.0303486799739905,-0.083522211517162,-0.00706822917249613,-0.0125263447525001
0.0728297403030705,-0.125365507840995,-0.0114469294807086,-0.0039125147635806
0.120937651355639,-0.124667923705035,-0.0127292739485165,0.00635148710000595
0.130241220735231,-0.10515598036703,-0.0106557362677912,0.0178304095555992
0.111761333661383,-0.0799775203014332,-0.00719173595316428,0.0258843417849494
0.0875867640591615,-0.0571893432434243,-0.00459786228640731,0.0257463598497193
0.0635562940310582,-0.0443158732968844,-0.00134667571499414,0.0183978513732495
0.0451342358148588,-0.0310467629537752,0.00321422609076598,0.00860461512865869
0.0360787683168286,-0.0109118823714708,0.00725054253319047,-0.000515283015829694
0.0285995125706065,0.0053735458459,0.0105815758746006,-0.0081335907076435
0.0115252831712039,0.0137648570810397,0.0123308270826001,-0.0132062533997094
-0.0155660223355352,0.015806288117051,0.0115467718904761,-0.0147618606378425
-0.0338060779538253,0.0104766811333685,0.00920557676316283,-0.0133131141938878
-0.0221368977460022,-0.000331268039005114,0.00812402032672212,-0.0101455004170801
0.0177754217551388,-0.0155897501794406,0.00935308473985322,-0.00643924385333165
0.0627635589324791,-0.0318675942989707,0.00914878096450111,-0.00302706099264856
0.0907160605079935,-0.0444104598419304,0.00566518485644417,7.70113705602857e-07
0.0971450063446021,-0.0572487150701692,0.000604150694179916,0.00280393758525661
0.0878583138776203,-0.0593996114780851,-0.00673617979006991,0.00468958456894262
0.0679268916948412,-0.0286752370221841,-0.0142436200594644,0.00448013665429399
0.0414203502668334,0.0184769393128474,-0.0155614970702449,0.00208488044533134
0.0154005242218913,0.0436086925191212,-0.0115410483697898,-0.00057704222154061
-0.00490356243492213,0.0421825809221944,-0.00665548524218603,-0.00140311681066973
-0.0209845354122704,0.0357177594650297,0.000925870188633084,-0.000545795459646654
-0.0329722945976116,0.037786077121075,0.0105212205701962,0.000382414510735399
-0.0387135114350303,0.0463120510426885,0.0160438800759855,0.000362653123467442
-0.0418095745954091,0.0529698783758514,0.0165218907747996,-0.000541680874661271
-0.0460060762956364,0.0530770637869544,0.0149148917518847,-0.00192151499833007
-0.0479381193046837,0.0478478750867051,0.0126828861625988,-0.00301893624019532
-0.0450879706212322,0.0488523828039228,0.0106527134169284,-0.00293807990583748
-0.0427030615419286,0.0670172732276751,0.0102626831297279,-0.00207284951964367
-0.0473203443424152,0.0902358396466837,0.0116304722495933,-0.00161893514347694
-0.056320075391998,0.100694084336262,0.0123486730706995,-0.00155715387229691
-0.062313866174548,0.0971672880715526,0.0119931397273193,-0.000900611709851136
-0.0644821006100997,0.0823161114862239,0.0130241065711719,0.000837414799083382
-0.0656065834870561,0.0598067927301757,0.0150955348855687,0.00258695702754692
-0.0649853190419167,0.0392386889527683,0.0146531246966363,0.00195999848851543
-0.0592424354281768,0.0299213445374926,0.0107069389100399,-0.00171101849472806
-0.0492055714154735,0.0299425150331128,0.00676486639830534,-0.00528166364969379
-0.0406319295706164,0.0271360477481036,0.00696448395565582,-0.00398566568209447
-0.0354674027813378,0.00638465117453461,0.00940869917226643,0.0032105055308899
-0.0290307084764866,-0.0666120358410727,0.00803351564520719,0.011139542237993
-0.01428035395035,-0.176751440386165,0.000744776476376179,0.0137115849624133
0.00252510416955511,-0.212985511437973,-0.00811138362671018,0.0101013101852504
-0.00336574367523386,-0.137150043157415,-0.0121570296497368,0.004288686626612
-0.037613703761435,-0.0423670781905729,-0.0109183838502104,-7.02004152217366e-05
-0.0739648670674698,0.0133784851126278,-0.00786096168415383,-0.00246449360679157
-0.0939100246782095,0.0512290647999353,-0.00358010090302137,-0.00418782334298002
-0.104434732730318,0.0804505495113481,0.000372554288023933,-0.00598546118077646
-0.115265021007893,0.0947547269873368,-0.00079217395934562,-0.00713333666276488
-0.118466596115829,0.106873434549953,-0.00619752179708455,-0.00660466188528212
-0.106078247443845,0.122704191584594,-0.0107303684638676,-0.00411046142770932
-0.0798187297266537,0.127726355027651,-0.0125216165107815,2.25768605968627e-05
-0.0451035701260506,0.109097200943014,-0.00921601369952794,0.00439400839766661
-0.0146899184898406,0.0807362649691511,-0.00106606739902358,0.00646964500115157
0.00389154575677107,0.073722427232502,0.00683489218842909,0.00532972009567646
0.0164181153304006,0.089023030482197,0.0104811687617202,0.00324353193593298
0.0282932074340611,0.102791142645181,0.00953721939381177,0.00231582666369341
0.0297603964636292,0.0884776580173583,0.00691042717226226,0.00222282484038998
0.023067703201366,0.037828392185093,0.00288793865937323,0.00281925902098959
0.025780941971713,-0.00970643108189623,-0.0016053540933268,0.00499593804091128
0.0357764666099416,-0.0481109147671697,-0.00347109635253152,0.00808344122990714
0.0465361031408466,-0.0985888002202191,-0.00533849657967234,0.00988093598530385
0.0450149426264578,-0.125762831645266,-0.0103870619633011,0.00929757251982634
0.00836762756380729,-0.129391660313502,-0.0154668927805943,0.00686321690083091
-0.0556808888193365,-0.128092811482294,-0.0154190645281666,0.00355216598339541
-0.112585548102846,-0.0875647451012872,-0.0103978509519313,0.000172177509062874
-0.144320596846786,-0.0190306570317294,-0.00483121006139997,-0.0027047392820702
-0.148966150034595,0.0239357191046348,-0.000906571477066898,-0.00461443843666247
-0.123536197835902,0.0362336625293901,0.00161581625891871,-0.00533022268927729
-0.0744793910690644,0.064150775721539,0.00302221672558135,-0.00508209557146958
-0.0257752368384651,0.10879369332101,0.00337379191030093,-0.00461533516507948
0.00397981107832633,0.118555258907837,0.00336944841725147,-0.00489198468867254
0.0254404087715746,0.0960259115670732,0.00264018230738197,-0.00579889463319959
0.0521074793034094,0.0744158910365904,0.00109168655797803,-0.00603403516681334
0.0748320058569102,0.0619187571418492,0.000523353307465321,-0.00524165602333343
0.0778583326705016,0.0643567587036009,0.00132365760233225,-0.00415090363932601
0.0696113271872755,0.0876764885557363,0.000614330211244416,-0.00242097919349994
0.0795669822509605,0.120106630558335,-0.00341334538301371,0.00115324476619689
0.110099321240703,0.130608276393356,-0.00656306488134385,0.00594855197249507
0.117779713884292,0.0984524110526698,-0.00741843351468437,0.00826833291398558
0.0807255174107084,0.0504576290926831,-0.00735310903561108,0.00467130105472259
0.0362114856135269,-0.0030904490799987,-0.00503851287401343,-0.00305321109697835
0.0142704252199342,-0.0874993498068151,-0.00287065758393395,-0.00949606640809773
0.00131740167346397,-0.158024899918507,-0.00491268826762534,-0.0112880509166368
-0.0173403136839029,-0.139702858660037,-0.00984904224005233,-0.00844570358987287
-0.0305062537734396,-0.0475286346324006,-0.0118007528559947,-0.0033451546763877
-0.0263398339742539,0.0415038514231176,-0.00905646136550821,0.000300996487041244
-0.00712823837319549,0.0783158967793267,-0.00609965025632419,-0.000187509090193382
0.0175178988121573,0.0562775880707699,-0.00234825337482811,-0.00452076642112351
0.0388861323986956,0.00203298136575992,0.00551538977738259,-0.00981534966004084
0.0492837303365003,-0.038223284318492,0.0119144512262813,-0.0129573199437313
0.035523270336687,-0.0577813381146617,0.012068851906452,-0.0126378974922143
-0.00276620501572621,-0.0780055800253887,0.00903130499689433,-0.00937879783373316
-0.0474261645541414,-0.0853009742257676,0.00588515000501483,-0.00438571655542526
-0.0789726503219197,-0.0562269752636909,0.0050668859731597,0.00202636203914276
-0.0814127942576297,-0.00443015211104053,0.00671035679042188,0.00998740881472414
-0.0544807788245143,0.0362924408529938,0.00717577235409145,0.0165584272599601
-0.0236101309019289,0.05108514747455,0.00481966369403911,0.0158868583275537
-0.00860504993511205,0.0463775530971203,0.00211475451026746,0.00618098527944278
-0.000938158320565652,0.0271422469812238,0.000307979473303736,-0.00690171097834268
0.0092116497142454,0.000785546809764191,-0.00129503372733908,-0.0161571055130224
0.019401951898921,-0.00495523932411988,-0.00380064500032162,-0.0190589909101372
0.0304522620277753,0.0406563977215297,-0.00899322616316453,-0.0169255142388386
0.0513846893458112,0.100179797668692,-0.0117258140279057,-0.0111943840383055
0.0764000121947905,0.0658083653996151,-0.00880448159685569,-0.00322748279040678
0.0876333767194789,-0.0661609254017395,-0.00732866655015279,0.00426518073293356
0.0866214902854173,-0.149893153328784,-0.00959533955166448,0.00956510563720285
0.0764166844186727,-0.129034390175298,-0.0136303536521536,0.0148169013946914
0.054829278894463,-0.07956059099848,-0.0180018371996291,0.019940315992813
0.0391490398280828,-0.0290856451853798,-0.0181761002059243,0.0182113766092029
0.0443812642566899,0.0372097613117646,-0.012315282157643,0.00641025768016162
0.0500731473421365,0.0809405602046549,-0.00504055480041949,-0.00872257129114355
0.0276724668016099,0.0468306147557645,-0.00142049519887279,-0.0188832699338579
-0.0123503662195885,-0.0303588822008083,-0.00214296317939821,-0.0222543677995997
-0.0413587857550653,-0.0647376799758121,-0.0032850667482831,-0.0225863355183368
-0.0502971592975496,-0.046170668936182,-0.0024944667461826,-0.0215924241845685
-0.0472805389154411,-0.0227454034497181,-0.00382096593358314,-0.0133366636054611
-0.0417825967678415,-0.0160916360779344,-0.00679184093697945,0.00672751340139113
-0.0346171131379198,-0.0138082132987642,-0.00702772786428422,0.0295935350084294
-0.0245049906277442,-0.00541798154224071,-0.00571990736051484,0.0395948913296476
-0.0118775493558625,0.00522742700620238,-0.00422035553159414,0.0337290043491673
0.00411337456010254,0.0158026566342046,-0.00224890500138849,0.0250608043117614
0.0232927258716422,0.0318758331946401,-0.000241932803060423,0.023771660768192
0.0398448839807533,0.0490319631900452,0.000711057794236523,0.0252600202726037
0.0464160474606488,0.0552078813681424,-9.36862852075558e-05,0.0204622651056233
0.0447917301599348,0.0514538978589422,-0.0011458626425424,0.00856053571889174
0.0463675961466632,0.0448735571834492,-0.0012208343510037,-0.00426509505607399
0.0562843439364041,0.038749183484033,-0.00138330806632242,-0.0119234739791408
0.063869208363212,0.0334946852256656,-0.0014557852674038,-0.0123684214961932
0.0595266238347041,0.0274114180352915,-0.00110218088193973,-0.00844930149349068
0.0503249743035239,0.0202609286777863,-0.00154296644771507,-0.00508665913966577
0.046572527986344,0.0105160784358887,-0.00194921582439959,-0.00520176732840567
0.0470751857677482,-0.00399550710535493,-0.00170688052410492,-0.00767527658704405
0.0486076706883846,-0.0205575087448174,-0.00276038003382935,-0.00914889380342118
0.0486179041095803,-0.0265550110648379,-0.00672649138350139,-0.0072690747689369
0.0428447189696569,-0.0106587202411614,-0.0122466572814472,-0.00204896206921915
0.0320832083220181,0.0126373488552441,-0.0168926378357925,0.00461480521150327
0.0241846793444313,0.0240759124347261,-0.0186339645630983,0.0115791402410318
0.0258548933211596,0.0300609995986592,-0.0147928393916473,0.0182434865469738
0.0327601050488132,0.040452632536326,-0.00536558319319272,0.0217718283067573
0.0352851490108851,0.0494493256118374,0.00341649244124625,0.0196924028034177
0.0310809010512738,0.0516701180090366,0.0068419102025441,0.0138168347784137
0.0243379014448458,0.0498551886175386,0.00888855881483562,0.00831170749420919
0.0181751244056795,0.0457800384345766,0.0103618480147675,0.00524586688739501
0.0132412465508556,0.0404546411357003,0.00903886068494344,0.00341531496430862
0.00980752977758181,0.0344942961380997,0.00769007340454886,0.000976488673637037
0.0085901546300916,0.027836351689463,0.00666900721652704,-0.00213285128447131
0.00670041540042849,0.0199647984869088,0.0044920824806567,-0.00451813624866826
0.00139497742201334,0.0119228952901071,0.00115605442815512,-0.00478755314640933
-0.00410080323270029,0.00774952518140909,-0.000829337535059309,-0.00277594611065588
-0.00836078700362396,0.00569322410760815,-0.000657803402295167,-0.000193678557284098
-0.0132085244305694,0.00421264763930229,-0.00129505536014198,0.000311696704938013
-0.0165249251636113,0.00755271933128313,-0.00114697091065162,-0.00265198785924249
-0.01686514243389,0.0105641984388876,0.00034434879593699,-0.00822705837430753
-0.0168639589277045,0.0055376532803503,0.000321945111188301,-0.0145290579560443
-0.0142485177021052,-0.00287539120179142,-0.000347640699310865,-0.0199359491391792
-0.00450087584140983,-0.00710490942112203,-0.00118883443629962,-0.0224960642137981
0.00431734218217998,-0.00563505209494036,-0.00293669354631022,-0.0200372411075505
0.00168922554985734,-0.00212731602185769,-0.00345889081251361,-0.0111100459570694
-0.00713182394902264,0.0039578326636416,-0.00144230056318058,0.00155000645430294
-0.0138226185024913,0.0145706521082993,0.00029110576173519,0.0082867729137083
-0.0155852003522423,0.0226180996931076,0.000207232845810779,0.00291205980828831
-0.0130047405419689,0.0212961271480668,0.00139386521077382,-0.00924824241547413
-0.0108825005769967,0.0137509748464167,0.00415983644258739,-0.0220900904860672
-0.0104367330190621,0.00424781230138733,0.00547674004182258,-0.0396371579058584
-0.00759829040254412,-0.010183303812512,0.00592022062401392,-0.0658189577687739
-0.00322009018404423,-0.0306134863952439,0.007116004515983,-0.0892091572636675
-0.00199721517607242,-0.0462912722073626,0.0073514676881073,-0.0930418798853015
-0.00309136694414268,-0.0453586467533023,0.00533243282831746,-0.0723310821426631
-0.00453826680954967,-0.037612112830361,-6.70770502585391e-05,-0.0350226149372202
-0.00362959096225918,-0.041423285818468,-0.00776551286154154,0.00571965727898759
0.00216400006014668,-0.0529061748315652,-0.0112119164830503,0.0445530093459565
0.00870012348384006,-0.0571305945314992,-0.00908441699764794,0.0890514006542144
0.0129770089360433,-0.0454275110290953,-0.00545374189422515,0.143195240503881
0.013663489546105,-0.0120733837914475,-0.00112785110764228,0.188514068894971
0.00893296230839844,0.032169275393543,0.00173550872748667,0.19298948536496
-0.000472492124823927,0.0563123851773838,0.00123398741137794,0.139817809174912
-0.0122627520669902,0.0500469595943742,-1.50611707241932e-05,0.0421756142776118
-0.0226498912031246,0.0361737572518102,-0.00144204032116818,-0.0656699569205145
-0.0279026503817243,0.0312127263515307,-0.00321032604574749,-0.150278523406779
-0.0245396228043399,0.02913630905649,-0.00501792790978786,-0.192952320766424
-0.0150361460614678,0.0195042877570228,-0.00699967600590912,-0.187746509786693
-0.00710396284294348,-0.00047576771227769,-0.00746287991990741,-0.142819801057931
-0.00303588898528574,-0.0262584556685176,-0.00526188498414615,-0.0809541127067821
0.00167026741773324,-0.0482523597627435,-0.00147410498077763,-0.0239641075201237
0.00263389576956452,-0.0587568547164142,0.00124934769930793,0.0199944615620275
-0.00560870071882286,-0.0586073246699981,0.00212460006401261,0.0515587551999899
-0.0164433896419603,-0.0564143094773958,0.00310933655290549,0.0724788960586494
-0.0272401680570275,-0.0549752187518275,0.00462012776448883,0.0831402283088873
-0.0329074277554822,-0.0375846770994671,0.00549924934711584,0.083156542882084
-0.031847392406919,0.000161420635566477,0.00606282484383126,0.0740579148258852
-0.033330891867356,0.0246767251169559,0.0059370140284441,0.0598456434132044
-0.0347219681160847,0.0174511952181043,0.00451135806934087,0.045441119817461
-0.0289612307475986,0.00609995361715944,0.0034355477465607,0.0347069369582433
-0.0166002941833968,0.0119079189214519,0.00314885839167837,0.028174092718084
0.0016660718681319,0.0184210522258285,0.00257414523827904,0.0238223081903867
0.0202639251046834,0.0103932589622638,0.00121207779291462,0.0198984330022992
0.0354750130095179,0.0113065577347776,-4.81093530721073e-05,0.0159080896674841
0.0439085246747352,0.0295205054124363,0.000523276320080094,0.0121650322781525
0.0360951518673822,0.0251190902133415,-0.000210059466312845,0.00866087277319573
0.0185841522210469,-0.00194285921612032,-0.00405855228492033,0.0048321454217419
0.00634628579009157,-0.0115204282393694,-0.00577023842363394,0.000889299745022484
0.00245877751029604,-0.00195510791657564,-0.00464010404737845,-0.00226239686794947
0.00270595073040082,0.00789170517698278,-0.00379551640604624,-0.0047436723076225
0.000863029847690509,0.0108368435342774,-0.00366390964259791,-0.00753743561128594
-0.00337163462947446,-0.0253854735915545,-0.00404761296833227,-0.010509041029695
-0.00449380500226719,-0.119478492731554,-0.00564782418239397,-0.0124235674037134
-0.0047764449693774,-0.189313898670086,-0.00783336033335871,-0.0124248591631322
-0.0127185551008288,-0.15053890190585,-0.00657036556316862,-0.0103251793200646
-0.0318920914024887,-0.0379386465403146,-0.000263592242856369,-0.00716602636828623
-0.0545998955817364,0.0556171636680259,0.00747346408257154,-0.0054360774715823
-0.0632115665182567,0.085122682328101,0.0131269600533256,-0.00690425671728774
-0.0501915114882221,0.0685674220157485,0.0162007075294089,-0.0107789887697124
-0.0271541164386451,0.0421017397961326,0.017135510763406,-0.014632679915395
-0.00601195710727866,0.0223146732467027,0.0161518611354524,-0.0166572711868278
0.0114238640863286,0.00458503297688585,0.0142035947559076,-0.0165461786615417
0.025588475374081,-0.00823535952493029,0.0118705186502882,-0.0149848889843106
0.031528203775676,-0.00664013276556521,0.00950085462847973,-0.0129011147855398
0.0246167671178616,-0.000458529485182213,0.00847924499406162,-0.0112164255386365
0.0101686358552745,-0.0042176711110492,0.00898898072471529,-0.0107794104521731
-0.00719030308606772,-0.0237874930764978,0.00926313366247283,-0.0118392748031048
-0.025434984806523,-0.0692134609193953,0.00897115034767958,-0.0141605296512905
-0.033357783499156,-0.132782704180149,0.00758785316493748,-0.0168744067718456
-0.0206070044960194,-0.186400199415529,0.00488280392027246,-0.0180147414925955
0.00445632470241675,-0.196970982383987,0.00455050758920411,-0.0163024411936694
0.0188000059217197,-0.148777919474526,0.00642745177375595,-0.0130156811444946
0.013251819669878,-0.0771452724728476,0.00674759836219778,-0.00981094452879332
-0.000847607761314364,-0.0264251100065895,0.00570829709748996,-0.00642900484098237
-0.0106317654434153,-0.00698017249813235,0.00442221480309446,-0.00163988161684621
-0.0112536780937502,-0.0237453567270248,0.00184582373362155,0.00416291506751328
-0.00239514143646331,-0.0738235592096912,-0.00207795495949915,0.00712555691306173
0.0167132806270785,-0.117740131088606,-0.0042815276654131,0.00305630225077325
0.0355631020497228,-0.123754454008606,-0.00293266460090678,-0.00765549160087945
0.0347751346633514,-0.106230892161891,0.00204941710906381,-0.0196982420801815
0.0139321075635878,-0.090481715970897,0.00888781884653275,-0.0271381996797179
-0.00964038967916468,-0.0845430542558495,0.0133280028952041,-0.0278285398884903
-0.0233261317706063,-0.0830156064438925,0.0149489199745934,-0.0239865193522943
-0.0257041441302193,-0.0794783194810113,0.0164431722873864,-0.0194019903468494
-0.0220055911094548,-0.0741337079402733,0.0174913564339377,-0.0160785784325198
-0.0177195498353944,-0.0692525923761634,0.0181390693185526,-0.0133937360296508
-0.0165191789442428,-0.0632059660833675,0.0198593329023503,-0.0099617456290684
-0.0188278819375892,-0.0548218661020406,0.0200646686348694,-0.00592140002266656
-0.0206542242840005,-0.0511633006898111,0.0169315694993584,-0.00268184574480091
-0.0204486399560258,-0.0524111409949995,0.0135331848490459,-0.000533729644486399
-0.0209623229668836,-0.0459289804253944,0.0098304009663852,0.00174114558729118
-0.0214950264952815,-0.0313426779078593,0.00335082504715798,0.00501596477373796
-0.0161065447346992,-0.0297261180432889,-0.00368486741133348,0.00879388055390128
-0.00396841874483845,-0.0581416227541094,-0.00738860948971943,0.0126968867183103
0.0019927611571429,-0.101753842638912,-0.00527940234311035,0.0182750779965453
-0.00425216996658567,-0.132619720761874,0.00106119774716939,0.0260961554960095
-0.0127376096003582,-0.139136476752794,0.00707621604082183,0.0307620326047979
-0.0171842368532479,-0.127264286280082,0.0109957468214766,0.025545065978844
-0.0181353596936076,-0.110177307370131,0.0129048645145854,0.0125878976165543
-0.0169389005577954,-0.0925411508911372,0.0134498221765674,0.0003755927294611
-0.0145506327429947,-0.0716614020329076,0.0129999191996619,-0.00643642331356289
-0.012834766042932,-0.0510820252512289,0.0111996634761192,-0.00769844364513605
-0.0145040547507044,-0.0387564404904732,0.00934199575349669,-0.00241642615391914
-0.0153855576788202,-0.0332793732585166,0.00648517600953398,0.0116796490750478
-0.00153352799971007,-0.0267314910499378,0.00156402525473228,0.030356017859751
0.0208761261085714,-0.0181828465084906,-0.000563028634698141,0.040196989370201
0.0246065301200932,-0.00740631672752016,0.00222272275518521,0.0328452992406118
0.0078540393723127,0.00663277510224296,0.00585266228947578,0.0149687641926212
-0.0092483805304256,0.0201774213556495,0.00734475156308486,-0.000880442583046225
-0.0198066605753175,0.0279470920758804,0.00923823491101389,-0.00816265053482856
-0.02707318884291,0.0217064850255852,0.0133450634001845,-0.00882840803890441
-0.0293267855734305,0.00277643224081689,0.0160608751111192,-0.00797936597566057
-0.0278913796393007,-0.0156105504376409,0.0164109945059266,-0.00788905485195685
-0.0275273349792184,-0.0324005777792241,0.0166039947266558,-0.00765131719739234
-0.0328072069994263,-0.0553580821585421,0.0149433293559989,-0.00602886673785832
-0.0437238330194907,-0.0734383357277484,0.0111358966675347,-0.00287526470836675
-0.0490302474442428,-0.065635481370277,0.00898267739050834,0.000710712719820619
-0.0449453921357603,-0.0412191061034566,0.00800663842691123,0.00332386974767555
-0.0391253360974094,-0.0252346343308282,0.00701909284944007,0.00516906142669018
-0.0362644606825965,-0.019271615286143,0.00761012371977406,0.00783321692431771
-0.0380817983010625,-0.0143246255026907,0.010085223628445,0.0111927345672563
-0.0435775568169382,-0.00925474178898257,0.0129397025998273,0.0124599123744807
-0.0494971235275439,-0.00664969673218145,0.0139471875857863,0.00973957664020782
-0.053874337270888,-0.00647760368404889,0.0121319583729229,0.00487656961990053
-0.0549224286640078,-0.00750561943340198,0.009228616753782,0.00171626424010517
-0.0525092746249568,-0.0111950408124949,0.00718657325656703,0.00196773889310741
-0.0502414943032187,-0.0174863404351814,0.00554626945551199,0.00427019771625624
-0.0542457280484193,-0.0192609663115784,0.00448320248212919,0.00667167074111515
-0.0610259360533931,-0.00941332208256303,0.00547634673518406,0.00777583538695525
-0.0585944355703161,0.00668446040686237,0.00891984047053537,0.00582434469853761
-0.0492494561430661,0.0151079810213617,0.0118807678602542,-0.000851098022427768
-0.045556832121675,0.00770461361228776,0.0118190995687003,-0.00977555170672627
-0.0485635460272092,-0.0134432765755637,0.0105498467578572,-0.0148533161998017
-0.0463783796060658,-0.0377530096037164,0.0104327227499275,-0.0136632338453232
-0.0424028629664101,-0.0525507357769844,0.0118633220139647,-0.00958225962815712
-0.0522255560123275,-0.0568930807939901,0.0116679747277722,-0.00662692762204717
-0.0711371982936507,-0.0570423382153707,0.0109172729621403,-0.00574588060469207
-0.0845009652070882,-0.0532569469829795,0.0129965106916598,-0.00563064344432936
-0.0832688027452456,-0.0504616343140116,0.0143567985224303,-0.00461046619923162
-0.063995171979802,-0.0542656543754451,0.0140752435588299,-0.00164739550957937
-0.03714150630502,-0.0564713301098708,0.0137133823175515,0.00247221047501312
-0.0152098077243907,-0.0493138789117799,0.0117700762395615,0.00552323114793501
0.00521426917478043,-0.0294179551949873,0.00708642046775975,0.0065217482991985
0.0228837268077945,-0.00278887961588525,0.000485095032287155,0.00608013461263939
0.0233196968778046,0.0109121057960936,-0.00614552954692341,0.00489940788153624
0.0035758961781975,0.00992830414914633,-0.0097538154929116,0.00356989082451938
-0.0243444244162137,0.0375366470964781,-0.00843437894304675,0.00353529581953565
-0.0445838897428946,0.111971540297523,-0.00488736956573074,0.00583234362895236
