0.0911229826399942,0.0904218303687059,0.00674856062474252,0.00178330615984139
0.096684839969393,0.109799745071973,0.0103332371861812,0.000908881798715773
0.0738231186863071,0.107028177967751,0.00780951739270285,0.000116791387763541
0.0452204309489011,0.0786737242384626,0.00031461161597372,-0.000637533246727036
0.0208487975584958,0.0446878769495279,-0.0078245272335442,-0.00227185983530103
-0.0135097703722533,-0.00946636352385663,-0.0132499331882782,-0.0054580496582787
-0.0547830233535409,-0.0998118289028501,-0.0144107892136086,-0.00889017347458704
-0.0888253510058565,-0.164566975942842,-0.011132183534848,-0.010029054131642
-0.104366496146608,-0.145098940374215,-0.0050240552139981,-0.00807255369850052
-0.0826942373851685,-0.0806168123772916,0.00244824181051045,-0.00408440870214792
-0.0310269976168246,-0.0256651154822451,0.00998264252770448,0.00012702944197081
0.0116754742700625,0.0132559291594999,0.0133555893575125,0.00270588779089574
0.0259476627160556,0.0337994118052986,0.0121321007099278,0.00334494243409103
0.0243996624159934,0.0364107096151877,0.014063275798575,0.00350376957485979
0.023721056077183,0.0349030282548761,0.0192828948496547,0.00469032732065726
0.0397481703455008,0.0371569873874607,0.0197984613833582,0.00705490506439897
0.0612088576826163,0.0422755091672083,0.0185673467533674,0.010022825209216
0.0572534314542775,0.0374937722858519,0.0204381632840927,0.0129026215628915
0.0335388336612595,0.0153109816224855,0.0207497356638397,0.0137720216017639
0.0194784106526317,-0.000962329613358966,0.0173279053518632,0.0104180407512971
0.0196731776122725,0.0133981105503978,0.0122178958926138,0.00360782351412617
0.0159476710359853,0.0476032228108142,0.00492293674358203,-0.00305174975103353
0.00979074468646104,0.0741386273626943,-0.00484924667666263,-0.00743146629970534
0.0138946133259629,0.0860228612235914,-0.0136496955919454,-0.010261463045312
0.0173499589717751,0.0953964267653763,-0.0166287068170499,-0.0120284535296473
0.00587661137708831,0.111042123280972,-0.0100224754590625,-0.0114190655208463
-0.0153924512320246,0.117327863270547,0.00146506560646614,-0.00745587188733276
-0.0363927250388767,0.0803984762769794,0.0077925839512872,-0.00192016132231763
-0.0472861384103791,0.00225448488981997,0.0102204799959248,0.00217043476917976
-0.0418363808102794,-0.0632823166772908,0.0148870175579782,0.00349810829452917
-0.0237561250220339,-0.0716786544778977,0.0212559830516089,0.00313116243204376
0.00869377334303684,-0.047687417146331,0.0279371377066586,0.00324519326648332
0.0416578476959104,-0.0555007637998649,0.0316433428679659,0.00455293948081557
0.0345755503320062,-0.105272739169468,0.0295696622847377,0.0059571142869633
-0.00714407553079862,-0.145924940139419,0.0249243761661279,0.00681867460380163
-0.0404831836389897,-0.135456934595204,0.0225316717732635,0.00739363359433157
-0.0454219510039212,-0.0810250021757715,0.0211108629032008,0.00760883294914061
-0.0148276239448615,-0.0204589484315053,0.0133107624590933,0.00686302097753168
0.0217185179803959,0.0189003365547698,0.00357277876593628,0.0045428616431494
0.0263081725886264,0.0240261755425977,0.00256620919261522,0.0010488278424417
0.0213325934805709,0.00971229330100596,0.00669498253777818,-0.00195963349070253
0.03104607537517,0.0136742629138453,0.00929017721502031,-0.00326546399523073
0.0367056692588913,0.0440301612928123,0.0116948958335162,-0.00274944154182735
0.0204424036623951,0.0737440065892189,0.0149412581059149,-0.00103110946897436
-0.00445489295345388,0.0781472773043959,0.0159417620051245,0.000620919729291884
-0.0189900080934697,0.0597443878076161,0.0148672822179524,0.00152005777291914
-0.0351751174183526,0.0351214794064724,0.0149391988256656,0.00188415470406296
-0.0584056161649119,0.00943470666154998,0.016178015963556,0.00191880651720716
-0.0760244177810302,-0.0161924491875508,0.0170219910439734,0.00141777943849579
-0.0891806579579275,-0.0307980122704073,0.0176261337155907,0.00020685305920442
-0.100886001287563,-0.0327307773843225,0.0194731772206189,-0.000974832421905424
-0.101636969908452,-0.0328188465973828,0.0216798201664453,-0.00110282720120395
-0.0712420673509369,-0.0321267757334279,0.0210787023892672,-5.17841818922561e-05
-0.0178117941154909,-0.0282305656814055,0.0178653205598773,0.00139095468234231
0.0236087223888783,-0.0223607126837091,0.0150875168264547,0.00203932087148042
0.0477298711757239,-0.0131518265415116,0.0143066107604878,0.0013072589328913
0.0669034638429698,-0.00266078100168418,0.014352903045041,-0.00013323505798964
0.0825640635362672,0.00455156530246559,0.0130970526577248,-0.0012157674180315
0.0850297112997667,0.00821022997379475,0.0114736187442781,-0.00158038553537954
0.0562625176213649,0.00572959285260171,0.0099580138326659,-0.00134548227733021
0.00655210734222632,-0.00793889273590023,0.00609040126233842,-0.000767694922515449
-0.0269011583209881,-0.0266154151191074,-9.64150069830451e-05,-0.000563684536280911
-0.0346234837062711,-0.0390410880587859,-0.00531985613233194,-0.0010568900525686
-0.035126053617609,-0.044983295285986,-0.00813086518303992,-0.00152736170855716
-0.037752358787772,-0.0540711535723426,-0.00922336873053409,-0.00125718116652691
-0.0352729898225922,-0.0678359562399433,-0.00922849220279945,-0.000637656784674855
-0.0289049903709559,-0.0701088472864884,-0.00934900863320318,-0.00140877501602485
-0.0316202474474539,-0.0487422936554435,-0.0108362231644288,-0.00493266260403784
-0.036123167103577,-0.0138519740669922,-0.014213806674628,-0.0097260485634867
-0.0173195702438083,0.00801136441522651,-0.0154540912214428,-0.0120322747447104
0.0287462220144896,-0.00223068509551723,-0.0094892744403028,-0.00975379878586283
0.0740203891168113,-0.0314609431368928,-0.000402214942535919,-0.00412590618990324
0.0915637936282706,-0.0513508319317465,0.00369544750439353,0.00219499307650371
0.0818236158528317,-0.0542754218810986,0.00389001938741642,0.00776528577195295
0.0650928914126211,-0.0441426522837741,0.00275049624287233,0.0130772641609988
0.056625359803629,-0.023392414449365,-0.00144368409604934,0.0164680736538964
0.0551247602062854,-0.0026137048467782,-0.00408627868684267,0.0141526027400377
0.0503200039073733,0.00748141700050757,-0.00132249449283848,0.00695434205653254
0.0416661621943389,0.00919173065443234,0.00247018180802314,0.000975578897977454
0.0464028356546535,0.0183680953330839,0.00315653024425376,-0.000294202027559106
0.064874532204983,0.0410337268064738,0.00106901482695665,-0.000228118402000092
0.0738190054548221,0.0597039968242392,-0.0017741850783973,-0.00286259362611337
0.0686371181339146,0.061096569651489,-0.00441123160367638,-0.00779471130223687
0.061778196627596,0.0556947349424886,-0.00707569701254619,-0.01285219670427
0.0536291218525374,0.0541117792961291,-0.00664559775183697,-0.0165609640171958
0.0411997590987766,0.0468234019281597,-0.00354159770908543,-0.0172095489601524
0.0304740184605398,0.027255743167602,-0.00180096382866727,-0.0127591988208806
0.0326978012666887,0.00524260330305759,0.00311094383149556,-0.00357084553466404
0.0486945612054566,-0.00543101188201335,0.0130769765889828,0.00577370626867272
0.0555894014207198,-0.010353801114532,0.0188969851762165,0.0104367665574711
0.031358291275357,-0.02894532184275,0.0129164583715038,0.00944854817959423
-0.016247189457363,-0.0493948529688722,0.000865644707633683,0.00376377105462483
-0.0525720284412651,-0.0463747344520145,-0.00764743390874342,-0.00510211355154604
-0.0532951760942633,-0.0200593070322257,-0.0136918290976557,-0.0131590548432908
-0.0317056135464539,0.0205409206169964,-0.0220712142782229,-0.0146000658985309
-0.01382275140295,0.0642894269149578,-0.0282318174187018,-0.00810943583913811
-0.00120490791351553,0.0869584878737681,-0.0256999960460191,0.000328342665554742
0.0116097520038406,0.0745157041282344,-0.0179631347631406,0.00494016377938411
0.00255201617679686,0.0515565930974016,-0.0102138479696835,0.0057592168500502
-0.0393155378970055,0.0405317884032355,-0.00517190213238031,0.00527183696921303
-0.0692951470950029,0.0284863184177436,-0.00264424186538234,0.00482135813288172
-0.0401668296984876,0.0120865087960678,0.000473827498029299,0.00486922567770584
0.0192345565545595,-0.00320284126549122,0.00235096661176215,0.00609237675924599
0.0440931277801234,-0.0312193593154525,-0.00304822594767764,0.00826776837890888
0.0350186890677324,-0.0609669891110575,-0.014414587147278,0.00886594214964774
0.0393098717451518,-0.0530601130409735,-0.0239831430298969,0.00607989571129047
0.0552676825588575,-0.00507562243515143,-0.0255682531824668,0.00142927651168929
0.0510446600486502,0.0471761405677163,-0.017727061437223,-0.00313957161510973
0.0282611325878374,0.0702172588583767,-0.00979731278332602,-0.00793343836843977
0.00114091220753937,0.0578140085146526,-0.0111312987868341,-0.0135939998573784
-0.0307889554228251,0.0299186641475643,-0.0178514598575553,-0.0183835970079927
-0.0607235592237262,0.00929950005747025,-0.0229855595248605,-0.0197479805130014
-0.0649413300896688,0.0113647165646825,-0.0233708341244975,-0.0174475724958848
-0.0434870171154626,0.0270492567402127,-0.0172591143844916,-0.0118169230782644
-0.0195279256388084,0.0341422400917245,-0.0082251312553233,-0.00215741156828774
-0.0082821738855224,0.0262749040630391,-0.00456834352190221,0.0100055068071773
-0.00582796767946825,0.00602908345646944,-0.00960437317455966,0.0201463343043769
0.00370618980215777,-0.0165064633192086,-0.0185093162183749,0.024075271482913
0.00865459145399657,-0.026020421051004,-0.0242554849959188,0.0204586975319817
-0.0129752496496589,-0.0247747904757633,-0.0232744094502003,0.0118126377041564
-0.042326475669918,-0.0234414591719726,-0.0196785933668241,0.00265953823170393
-0.0544241206440531,-0.01804162638782,-0.0173303729006779,-0.00345930986227427
-0.0551908045619171,-0.00612966534916087,-0.0167512182482201,-0.00502322579422427
-0.0451241736911582,0.00639744072269886,-0.017961265645012,-0.00321750788915775
-0.0170883409234633,0.0122586294596505,-0.0188087409477236,-0.000529515530737678
0.00433048990431316,0.0026828208474269,-0.0201101715727939,0.00137862511543402
-0.00828662685323063,-0.0128996654267973,-0.0210383985198157,0.00195365976343319
-0.0302001418556385,-0.0136251501189237,-0.0198898666477276,0.00198067817445107
-0.0204591683953256,-0.00468358644290603,-0.0189556809237536,0.00246774243197722
0.00795898533091113,-0.00940176810319534,-0.0188539225410459,0.00338768929249026
0.0181115193575041,-0.0275560298665123,-0.0204538731168942,0.0046583632768497
0.00159771092636217,-0.0378466107408448,-0.024055919880915,0.0060346938747168
-0.0283705403000226,-0.027572542394599,-0.0249454493583326,0.00650678878673525
-0.0434405780929861,-0.00400326352657807,-0.019118827851123,0.00608746653583382
-0.0247764286980349,0.0196942930169897,-0.0102558785770896,0.00583162760224778
0.0192517823323732,0.0428528484939333,-0.00587060461157791,0.00581829988049174
0.0621067924531203,0.0566164381939735,-0.00650742676828433,0.00527837303591531
0.0773082158531366,0.0443668238378479,-0.00545175373594419,0.00436330961589055
0.0679502432056778,0.0088107241840255,-0.00333065718411363,0.00383380647475221
0.0529254117692604,-0.0220282173221265,-0.0065771549177266,0.00336659779429762
0.0396414642458065,-0.0280300723401098,-0.0113806632313307,0.00299088824798892
0.0376226272056303,-0.0347524759461197,-0.0115949608827489,0.00387755302535384
0.0551445209174844,-0.0660904793293118,-0.00901897891504367,0.00539370162730026
0.0595669317701151,-0.0995261024055463,-0.00838716020374909,0.00566861599954463
0.0134443321251394,-0.101323706721322,-0.0105835022946608,0.00506208791186593
-0.0402030752561401,-0.0586002930556222,-0.0115313645675433,0.0042728861369215
-0.0395580451335659,0.0125078637045102,-0.00942810227578383,0.00183421042240496
-0.0108179101297757,0.0694287651235755,-0.00630804032865118,-0.00330144005419064
-0.00452199495857388,0.0809851835273876,-0.00375753920585929,-0.00985830751644324
-0.0131098669158306,0.0536456422888121,-0.00453330764707148,-0.0150937919649253
-0.0110720902812927,0.0237290579851926,-0.0113511700677936,-0.0160428179925746
-0.00354338799722251,0.0304353750230594,-0.0179426631008522,-0.0115234810686501
-0.00845332019636476,0.0575828804355273,-0.0167164020215281,-0.00346321033103567
-0.0247584354532472,0.0338794343880399,-0.0129819256748638,0.00438247135552821
-0.0381141305911535,-0.0525408070935534,-0.0134614188598865,0.00866900100516627
-0.0489356946832088,-0.115594244880139,-0.0148644002500106,0.0084858158915613
-0.0597767406343911,-0.0950873931709631,-0.0105918131766743,0.00551856568207092
-0.0513488413602932,-0.0176898612653719,0.000480123056977158,0.00119697495400049
-0.022304240395131,0.0522991693107106,0.00987858281707929,-0.00485053068744283
0.00620299107298143,0.0727498079042186,0.0114916725121146,-0.0113889484696768
0.0249532788175875,0.0568815822730586,0.00893487668869465,-0.014021571335832
0.0279069526884843,0.0335334163283089,0.00608053666119518,-0.0105972469329707
0.00730826061750288,0.000978123220742338,0.00328533882940561,-0.00442472386797491
-0.0296603097974471,-0.0535310103623339,-0.00175911774176144,-5.45467239511082e-05
-0.0624311397636434,-0.104433998372321,-0.00852583434911522,0.00124701215376826
-0.0679746621408585,-0.109633420379462,-0.0118808810572216,0.000717817936523535
-0.0355782986110833,-0.0738786606748393,-0.0110194008169839,-0.000783990842010273
0.0181249473943663,-0.0338506585063602,-0.00954241770075124,-0.00293185389873857
0.07265965672026,-0.0113312704681045,-0.00774035687328642,-0.00452499378213148
0.114599464242001,-0.00696046185783089,-0.00480089968506307,-0.004175432763811
0.122870244880243,-0.0223322936787961,-0.00428579661335647,-0.00237015204835275
0.0860332317023584,-0.0505572786253961,-0.00828232458078712,-0.00155605978337638
0.027430491952098,-0.0620876568265617,-0.0123978556929611,-0.00382210476760737
-0.0196297075794361,-0.0443115565569521,-0.0114131833539948,-0.00867634652376183
-0.0458805482029186,-0.0126519307906361,-0.00606666872178823,-0.0133299114726505
-0.05734042810531,0.0175947557282088,-0.00119310787689538,-0.0147902416816136
-0.0544116708956471,0.0449318369477665,0.0020946633052436,-0.011973712674636
-0.0352096342132455,0.073657608347814,0.00704178906868599,-0.00607415054234378
-0.0146855528654774,0.0898189849935216,0.0140583610064665,0.00100432292649605
-0.0125051026120725,0.0761937668642761,0.018434452885805,0.00755328023727055
-0.0323691076605201,0.0447958052723073,0.0177960714060238,0.011915971392643
-0.054225578329939,0.0224356297383512,0.0150583059455307,0.0130848612107917
-0.0456124327118666,0.00965422695859955,0.0117304500669349,0.0111011401711929
-0.012105532155709,-0.0151206305894928,0.00592326096104636,0.00586512003706705
0.0102967094041427,-0.0431417543948556,0.00119843969284463,-0.00195684107399942
0.0134482683832915,-0.0448492489274359,0.00481092053099202,-0.00827562796742069
0.0148775095964411,-0.0243292780281639,0.0134596999853571,-0.00926151667339747
0.0242877261882471,-0.0138306229724296,0.0190530120282053,-0.00620881856792202
0.0282558792507881,-0.0312474728671777,0.0203908120951109,-0.00233835142912329
0.0213790546428311,-0.0568721686703332,0.0198665304654373,0.000921801978698375
0.0137749353325505,-0.0674747754013379,0.017963587863099,0.00349417964560588
0.00633850304653837,-0.0707628651506342,0.013850344350891,0.00527540470021402
0.00540953551351235,-0.0721901640250028,0.0107773680694077,0.00559135285357332
0.0192738967311915,-0.0627593222497073,0.0119854792125265,0.00447088423495705
0.0401853898337242,-0.0447260574809529,0.0142430637342415,0.00311118223101039
0.0497173253630974,-0.0198822615507319,0.0143502108463892,0.00241079387969926
0.0415513198759796,0.0181831521663749,0.0120559227077977,0.00258781335512923
0.0190873215289333,0.0528748400950302,0.00896691956947722,0.00359288796393667
-0.0128522747375351,0.0602220808563946,0.00789756018618024,0.00473790164700036
-0.0332511839522241,0.0468015921917394,0.00801387693161169,0.00467143555623205
-0.0249306291289893,0.0348927986799471,0.00992532184977927,0.0025456692018978
0.00489974232046691,0.036034156662163,0.0160861783659817,-0.000570681446105595
0.0324608521739086,0.0429533355461895,0.0232509620532749,-0.00195074437069424
0.0306766870287484,0.0428410366486492,0.0276654596374856,0.000368189078630131
-0.000141084246668224,0.0348952421067975,0.0282057866741453,0.00507845042157936
-0.0229369144057557,0.0255997049240986,0.0257858638384892,0.00852084517586277
-0.00665950311758976,0.0152909513646616,0.0233040088431048,0.0084057086614353
0.0244308265288187,-0.00620050535775994,0.0219655615860729,0.00565601790536031
0.0147197671237961,-0.0447453309329833,0.0213411293252324,0.00264090038831103
-0.0328622871727514,-0.0779625291611842,0.0211110469766521,0.000848474901806779
-0.0676315488294757,-0.0837518896829669,0.0201837960017089,0.000334694149395407
-0.0807649504945541,-0.080570173454853,0.0153416079602082,0.000154127823062858
-0.0934737945985053,-0.0996834910161864,0.00780493324253664,-0.000941399712286988
-0.100922234966115,-0.128272684508521,0.00479161103045246,-0.00366305314359699
-0.0798012696362972,-0.106738486290931,0.0100677728047157,-0.00713588038652585
-0.0259457871880161,-0.0245727145134359,0.019946994130959,-0.00897273547481212
0.0300421001712542,0.0590861664020405,0.0255034809978408,-0.00744516349033384
0.0517259159050439,0.116812097025209,0.0218707172401577,-0.00329044966706715
0.0366735718501769,0.148584492481073,0.0156846193531927,0.000871219718282641
0.00926766583916529,0.147403327659186,0.0161378486112367,0.0025824198701819
-0.0105259627297752,0.118808734648304,0.020355573537592,0.00179354103626979
-0.0157725497368301,0.0591215461071278,0.0207855194465844,0.000984073938311266
-0.0103613437062693,-0.029102862789931,0.0168664214992534,0.00172289443836381
0.000719876186208201,-0.101584279839574,0.0123730823809429,0.00283909087812631
0.0182356903972138,-0.116423097965627,0.013147348995865,0.00303419721058405
0.0324835547498522,-0.0828822297890096,0.0183974748760194,0.0026386408682914
0.0362844701660785,-0.044202862247771,0.021168195585552,0.00256086746220623
0.0395647498958728,-0.0376106529932118,0.0200752585628915,0.00266169296037185
0.0407907688279347,-0.0542165080559977,0.0169390803682489,0.00214246860251344
0.029218897671769,-0.0371419007798306,0.0111304097862996,0.000900143431148936
-0.0122169614695644,0.0238978737721717,0.00357597542938997,-0.00120011810155894
-0.0904633884415382,0.0654985224825947,-0.000170031203990856,-0.00396230943214316
-0.159415582795327,0.0635012724633277,0.00105886300450427,-0.00607494596781144
-0.162779483062944,0.0564475716248688,-0.000470988660411077,-0.00683591959791386
-0.101582253356041,0.0582339157828847,-0.00389632498741358,-0.00668777180374248
-0.0249380622153274,0.0460720019339696,-0.00076705021898444,-0.00618674617650951
0.0249369127057823,0.018356443359464,0.00701054771848869,-0.00521455471217652
0.0432816164064736,-0.0075834968408315,0.0130102030224235,-0.00298500831438601
0.0420744612737837,-0.0273953092151222,0.0159002840560484,0.000240626300743292
0.032651078219943,-0.0372229484808455,0.0168348121486382,0.00290317008789492
0.0260763849181736,-0.0287662139406158,0.0172701058019423,0.00411579230213796
0.0259552363396237,-0.0082390604192202,0.0193725933743896,0.00461038791260274
0.0295969392542933,0.00714194738273166,0.0211152746711108,0.00542761493684769
0.028584067416237,0.0109710676953236,0.0193514169087299,0.00612275931066806
0.0212248404935777,0.0174179462572698,0.0170498929090596,0.00535253272336325
0.0156191444803803,0.0386327879444952,0.0179300695033712,0.00287938279480951
0.0101429721220279,0.0604599656870099,0.0197902887907264,6.40876052860565e-05
0.00990841005543611,0.0665861094011777,0.0169729590899457,-0.00170696426736436
0.0264213129440535,0.0628963267621436,0.00689894530161963,-0.00253989971762675
0.0461120132667503,0.052423508758213,-0.0057874836491779,-0.00388957320516903
0.051855438034341,0.0361667844018169,-0.0141652923385656,-0.00627011307971568
0.044959270391571,0.0346789745390012,-0.0165444758127256,-0.00775217379553639
0.0250990248364336,0.0548948093683724,-0.0143019122034557,-0.0066908702338021
-0.00542055839745161,0.0753870375201554,-0.00964311846585953,-0.00384776177582391
-0.0334148961617262,0.0649430452600191,-0.00640519208861331,-0.000357616907138468
-0.0439970363694959,0.00992611719857346,-0.00900104026874214,0.00336972189575225
-0.0295016091246995,-0.0554043478941276,-0.0161724992293765,0.00651718641629998
0.000383837072861944,-0.0890761749997516,-0.0218278314607747,0.00808134551430294
0.0220683850041219,-0.0756171088032961,-0.0228159118822727,0.0072408688627717
0.0264851785200948,-0.020455401559802,-0.017314280927445,0.003787919392318
0.0291574238050961,0.0394863522179745,-0.00823930833675771,-7.17025252199724e-05
0.0380866959884776,0.0613041626153792,-0.00337074844598926,-0.00151916994944159
0.0433191314354414,0.0405333469665925,-0.00537654612365826,-0.000672299971442829
0.0343995443385485,0.000535819849210362,-0.0129918122043309,0.000634765366634555
0.0124542534407742,-0.0353396870302108,-0.0235043535295041,0.00096409813161822
-0.00760359523199658,-0.0501109040599751,-0.0320570549153136,-0.000830187072502741
-0.0157284693114913,-0.0497294468154258,-0.0337551355789295,-0.00497978704478835
-0.0216708653514971,-0.0442242815459711,-0.029083295967507,-0.0102959728150486
-0.0370700604338475,-0.0205738781720518,-0.0247487433545626,-0.0156755205744478
-0.0557788244790794,0.0251229678842555,-0.0264514213031112,-0.0193043422172443
-0.0618649155824763,0.059431168491838,-0.0320988490281047,-0.0178220979004704
-0.0491573194482382,0.0548397326514152,-0.0323626196426178,-0.0101520415564126
-0.0250542091152864,0.0359563821826108,-0.0243146556814089,0.000513840275422742
0.0101042860252233,0.0319733364822746,-0.0159023037782038,0.00936822426838362
0.0544974730115248,0.0316512966868707,-0.0124839247391347,0.0146151661237958
0.07950746585503,0.0169957341530097,-0.0110473915543029,0.0186923502364501
0.0664513929675405,-0.00613882407788824,-0.0094229713577082,0.0220599549830721
0.0324199554751009,-0.0230468728700534,-0.0103364162083752,0.0207638283408632
0.000102456895043831,-0.0337873248132963,-0.0148372961949702,0.0127765906496615
-0.027479325539199,-0.0431180672516792,-0.0196544238507436,0.00141768320232375
-0.0576455905113881,-0.0423002623464442,-0.0200623133731961,-0.0077473069227224
-0.0789011313530989,-0.029681450971121,-0.0181762034871367,-0.0122040677145558
-0.0794410482562354,-0.0258487296353498,-0.020792508805165,-0.0141521716693814
-0.0718136035307332,-0.0435606359123172,-0.0255022881762128,-0.0155916814743276
-0.0594660392406743,-0.0625458705139718,-0.0287096391590711,-0.0143644478804726
-0.0380717083256129,-0.055121689489297,-0.0301380912269557,-0.0083299786533633
-0.0133027627115901,-0.0254502414927097,-0.0269896035810495,-5.43755375823924e-05
0.0185394129111458,-0.00733064409720219,-0.0205061423825233,0.00614056242928042
0.0548586709350152,-0.0201451825494318,-0.0143938731231749,0.00774666573770751
0.0715926169521078,-0.0443815646075506,-0.01014956864019,0.00454746754886213
0.0631461384284307,-0.0600979816836165,-0.01028039204952,-0.000939470499012134
0.0531493973952807,-0.0668386201332646,-0.0143612943746224,-0.00537697651615716
0.0394369191087351,-0.0624705621434947,-0.0159263998993566,-0.00703066744802297
0.00670973929142071,-0.0462676065110077,-0.0109359561191839,-0.00468345552057925
-0.0289415247146094,-0.028846937959765,-0.00315892871985844,0.00186410801275893
-0.0477152911796333,-0.0145122404006665,0.00120253181552636,0.00921112753161305
-0.0425449151425589,0.00480519602881587,0.00246700115700316,0.0127090456941655
-0.0174605421699528,0.0287295424329851,0.00528654614403863,0.0119057885448274
0.0170323407535439,0.0523990314642732,0.0100608900099534,0.0103660692752071
0.0512579645364467,0.0697860015735996,0.012026240494001,0.0107334186425457
0.0717237269834463,0.0721428856730657,0.00879329332104378,0.0123245271092877
0.0747317318526714,0.0629148363330261,0.00285291838813331,0.0127395849292916
0.0686279125632606,0.0518766551162083,-0.000882223020567188,0.010719598384625
0.0549346570350955,0.042693560508707,0.00196190314689124,0.00675876378089817
0.0340092230154077,0.0334068598288284,0.00657411134771877,0.00162853316848925
0.0192378079408794,0.0187305467336015,0.00634374344366459,-0.00389626534308188
0.0143100471437556,0.000196014940036557,0.0024611062953793,-0.00933356991111565
-0.008568102197311,-0.0130100348594248,-0.00157820213481759,-0.0156402142716067
-0.069247970818774,-0.0198446383188726,-0.00253461393811235,-0.0210708841382377
-0.133996762239036,-0.0168019155613324,-0.00101138912533292,-0.0187978969947896
-0.148932309800476,0.00517837757557671,0.00169193867355409,-0.00637167272598026
-0.10508629198795,0.0313515069639541,0.00613168892410434,0.0091266175721046
-0.0361791277262859,0.0338676982994174,0.0107124855259752,0.0195858252050641
0.0225159777233574,0.0138754152009985,0.0126997208605974,0.0227268876819856
0.0621447963226668,-0.000443512473370815,0.01167124037459,0.0201156084118907
0.0884851246003964,-0.00133744404494407,0.0101661882828596,0.0141298205740061
0.0980260640198266,-0.00951985327461782,0.00729675082090844,0.007892792675692
0.0896591226775884,-0.0230357166771337,0.0012623831304948,0.00365363041302402
0.0732272714388624,-0.0206838972806271,-0.00605065561944478,0.000449210168132276
0.0549045520602193,-0.00875118118410514,-0.010761660996053,-0.00346860245260813
0.0262018284381713,-0.00583093862826714,-0.0110489491859516,-0.00736846619962892
-0.0143155729062077,-0.0209724221230793,-0.0102297519048575,-0.00943023576472435
-0.0456553076665367,-0.0526480683424198,-0.0105872293094251,-0.00959429453281929
-0.0529486212835333,-0.0678694230473721,-0.0108958430428062,-0.00901591503584867
-0.0508462961744742,-0.0379856471134574,-0.00815940046096422,-0.00759556099620364
-0.0644028612670031,0.00888370357685708,-0.00278547986550887,-0.00496180089329216
-0.101060342234566,0.0280941145521479,0.000132044629840504,-0.00245796405049716
-0.142235663057,0.0118360303385964,-0.00207290726034733,-0.00140831381437855
-0.153426582572483,-0.0079128801717815,-0.00669145568776215,-0.00180154536763551
-0.114003018656473,-0.00582556329507373,-0.00886007535975418,-0.00268050417911655
-0.0440413344085702,0.00870131634743984,-0.00849112774509597,-0.00269373547712097
0.0186928401343205,0.023812338567167,-0.00629889611557473,-0.00152931053149895
0.0497785746060895,0.0272821173161053,0.000744814077489674,0.000652737456086406
0.0410719078389191,0.00130856296779626,0.00882412389078608,0.00394604506970294
0.0127319456169135,-0.0479367110594382,0.00963516280871791,0.00670628612521788
-0.00657698284096531,-0.084193481219354,0.00621046423752925,0.00605956324081023
-0.00858414242540952,-0.0804591293837406,0.00803351069493131,0.00122819096933109
-0.00178849383108665,-0.0523400649675107,0.0137555196916057,-0.00563228312979693
0.00892345156505291,-0.0298625331222403,0.0178482237887222,-0.0111245464581579
0.0268370176385343,-0.0198933122069764,0.0206458212442256,-0.0129986273950963
0.0352869990475245,-0.0138000024411314,0.0221165587532875,-0.0115622777676807
0.0180501786241977,-0.0132026949526454,0.0195779553393504,-0.00781005443061798
-0.000566907054683458,-0.0234669156183448,0.0101794381950616,-0.00244871323731967
0.00152797964981655,-0.025114320393803,1.02525256133051e-05,0.00217937321262193
0.00427549347949378,0.000871303997206065,0.000690600509604761,0.00411424344223572
-0.00421826903521019,0.0263437335512601,0.0106531069437983,0.00458113821639987
0.000122727136436185,0.0162701531648929,0.0177560450967436,0.00502670847102959
0.02369421428063,-0.0165652657526048,0.0159275967630999,0.0045337012634566
0.0425778078075726,-0.0391212146770442,0.0102516406483049,0.00201939196269263
0.0421945163597012,-0.0411474748418266,0.00935670276616047,-0.00158226277137693
0.0256702802398454,-0.0381548206308593,0.0132736364968573,-0.00462673381565227
0.00255806031313814,-0.0375918203147632,0.0167509733376863,-0.00631802626664699
-0.0264403835604644,-0.0301215535138211,0.0186857915618279,-0.00632131806103151
-0.0529281118282838,-0.0124494104482361,0.0176802334613331,-0.00476451810232249
-0.0443431707004725,0.0175526360386418,0.0143141742404455,-0.00277198159633253
0.00576029077953836,0.0545169912657859,0.013999294712136,-0.0016232730138607
0.0541510355706852,0.0709585513338173,0.0166088542431053,-0.00163392179255979
0.0642364148901973,0.0540708123497093,0.0186552196062814,-0.00234816327606858
0.0458236942074283,0.0289534241867028,0.0202534912391036,-0.00318444303734525
0.0295561602066575,0.0267258972667282,0.021937535436946,-0.00369930841237383
0.0302037386264217,0.0511010861744563,0.0224274795417938,-0.0033132064296328
0.0432865664028373,0.0802780158065181,0.0194565267212547,-0.00153678217997131
0.0552950403480916,0.0995944903104024,0.0156316902043792,0.0011838104343482
0.0556876668516327,0.109547358636208,0.0154783796013509,0.00374348000850765
0.0488269672055958,0.103080413725465,0.0177431255884351,0.00529554741180135
0.0436282915022357,0.0769503764372853,0.020574911189338,0.00560014221372588
0.0383451241290374,0.0500004005607771,0.0222422679041784,0.0047835505233971
0.0231768992949261,0.0352310706953827,0.0207214762435373,0.0033702799070012
0.000142094283398932,0.0244439964418861,0.0179824592167237,0.00215409805341298
-0.0152770731977511,0.00436565416773907,0.0153686040093277,0.00147746043528064
-0.0148262867369208,-0.0136221047541963,0.012143581448643,0.00098721646175868
-0.0025623166976508,0.0048589424812483,0.0107717499531808,3.00013161366728e-05
0.011697537851997,0.0468535053090834,0.0122238599308337,-0.00109490894635041
0.0172397787805481,0.0554691353666429,0.0123445204178625,-0.00142397317977581
0.0108744659165609,0.0381043344746305,0.0112091550553608,-0.000794471038808926
-0.00900679114813409,0.0452465422917951,0.0123520296363018,0.000393460440244775
-0.0379189274515209,0.0687171464293462,0.0126957713151047,0.00134134838246196
-0.0461103816868427,0.0781965115027171,0.00849582350637785,0.000985047762513177
-0.0248490605735838,0.073879819493405,0.00216256423253565,-0.00123477934587376
-0.00737642604516319,0.0685476974217458,-0.00140344259865885,-0.00465042028092489
-0.0114537210223748,0.0629413207168046,0.00156403891841227,-0.00663481047202992
-0.0244082540486275,0.039852762988113,0.0084360380375384,-0.00405359940104231
-0.0394917920362289,0.00111636288439981,0.0132071164889169,0.00288343189672102
-0.0634435149950121,-0.0266040170213396,0.012844900291529,0.00982228886785759
-0.086451602981131,-0.0382994311259445,0.00827161156781989,0.0122365189100042
-0.0819806247992802,-0.0468518057916583,0.0033628413012712,0.00864828880733898
-0.0511301188617734,-0.0419379975843658,0.000501570774221131,0.00111150996933491
-0.0165373940366624,-0.00337250237291459,0.000711846937058893,-0.00634864140299901
0.0200628336446736,0.0526469370267429,0.00333466707035613,-0.0106285083952492
0.0486044239197509,0.0890780967229951,0.00576198771892657,-0.0111215715257136
0.0340346002838249,0.0866152913187409,0.00501356901713001,-0.00918943396297978
-0.0220129378573324,0.060032848781976,0.00027666487433769,-0.00605185218042206
-0.0692114839601901,0.0519986592822424,-0.00537520022902587,-0.00191518395522366
-0.0735996536232369,0.0668277654461673,-0.00901209136979086,0.00257977549168072
-0.0437852713529735,0.0738609517365167,-0.00720396594227868,0.006446898593024
-0.00700266818138603,0.0607621769403524,0.000790554525946799,0.00945522431305193
0.0134054660221774,0.018057925582737,0.00952439921610777,0.0114273654193005
0.0192931638070595,-0.045591916497252,0.0141888653636176,0.0114752460792218
0.0318518363988626,-0.0919770605805288,0.014233041853741,0.00903215964235572
0.0539411503093036,-0.0898034686696152,0.012153223781537,0.00474203094661971
0.0660169293959606,-0.0400568154738262,0.0124995492441934,-7.14221565462705e-05
0.0550309356300814,0.022898512391267,0.0154603500366093,-0.00409836133040381
0.0295653761091743,0.0697698802182987,0.0165990374433701,-0.00648190127442256
0.0112142717330483,0.0873904014096458,0.0144051278961745,-0.00664446268688884
0.00563935206101207,0.0525549063547324,0.00850199865075498,-0.00432591716733888
-0.00518528687003919,-0.0258779337496519,-0.00138697459421406,-0.000524130808441805
-0.0309894311697044,-0.0797256573247874,-0.0110647861775727,0.00265562037646558
-0.0562285438586986,-0.074255545520907,-0.0159168718661126,0.00416659918653642
-0.0590281647686428,-0.0628008022088136,-0.017481617428551,0.00459628068730911
-0.0360546064876571,-0.0753584713057207,-0.0163643238423614,0.0045692698616648
-0.00916688501766548,-0.0611969744079331,-0.0110995394841252,0.00468971555445706
0.00301447197212106,-0.0117894668391669,-0.00780162682740672,0.00486687832586524
0.0188502637321592,0.00979841612575279,-0.0130499940716149,0.00287982732680661
0.0520852150869641,-0.0209017976955382,-0.0227009420048345,-0.00277671153211767
0.0758235145127925,-0.0615369807380161,-0.0269800975524857,-0.00971605010518214
0.0758755813979197,-0.0668907727168156,-0.0237528574998181,-0.0130698053456154
0.0589891830851271,-0.0328630022429159,-0.0187399427856567,-0.00958781042389385
0.035593786068265,0.0134494857050243,-0.016833907711974,-0.000760289027131099
0.0178374556763152,0.0445291884558278,-0.0183575950775295,0.00788029523423098
-0.0142117044145019,0.0531387051003496,-0.0168216698770068,0.0113122754160194
-0.0739187309991348,0.0444995534149503,-0.00998906186146019,0.00955827301082201
-0.114176840669948,0.0205477024684957,-0.004685940238108,0.00576768615714666
-0.100428582990841,-0.0159696332025087,-0.00579602815387388,0.00144635788675403
-0.0608179647444845,-0.0514102345282002,-0.0138271337295951,-0.00318282695965613
-0.0112597612715667,-0.0618350516827061,-0.0234255379241444,-0.00644307664379807
0.0597575711185644,-0.0461768027605017,-0.0289413900615139,-0.00669331977607798
0.124992310953172,-0.0312314147280187,-0.0307769573148262,-0.00496744404177968
0.140358459562945,-0.0328707319490688,-0.0292510970395649,-0.00283375326630593
0.102503869667647,-0.0485071450997906,-0.0247508187586629,-0.00012179966057864
0.0484063231700304,-0.0702080859777153,-0.0189963134163927,0.00294687217596533
0.00762854953228788,-0.0928043575012208,-0.0152743037449793,0.00455066809338095
-0.0242536623738373,-0.106909791132768,-0.0156546842518253,0.00349072276103721
-0.0450722821109759,-0.0993817194223344,-0.0167692403520881,0.000615589266156714
-0.0506590980550237,-0.0748858084542065,-0.0156640536513238,-0.00177919728430748
-0.0517142345878307,-0.0550598746453129,-0.0148437793569469,-0.00242894906851317
-0.0467529266459219,-0.0470307765634645,-0.0154361966166028,-0.00310161935282731
-0.0314093548693963,-0.0436968423773645,-0.0121158822319274,-0.00549605584352671
-0.0113805918104954,-0.044294317158221,-0.00609674450573096,-0.00743536999087065
0.0063481771746704,-0.0438140267156142,-0.00528292641118242,-0.00559642292240032
0.0188383538639633,-0.0325664857048025,-0.00848209978990492,0.000201284388741449
0.0264665797085682,-0.0133558399430929,-0.00908322530181499,0.00714380510470547
0.0281271520384149,-0.00360382279924489,-0.00865237901753844,0.0119468350646903
0.0276175192211741,-0.0122969287800641,-0.0117679687096854,0.012729039564525
0.0291043650367222,-0.0226317282422378,-0.017685650245373,0.00916948696138578
0.0257422026033332,-0.0167587209448039,-0.02466663368269,0.002176741276076
0.0158189627073777,-0.00609924893536412,-0.0288736244294958,-0.00607003252082394
0.00744395172319498,-0.00993965538597591,-0.0266757154268462,-0.0129914459631534
-0.00244416230262008,-0.0222911981036763,-0.0193381237796957,-0.017940691248717
-0.0211215748849911,-0.0290988673019864,-0.0120227914918923,-0.0207884398966847
-0.0390123065644481,-0.037209990787093,-0.00968702737408626,-0.0193114893579373
-0.0404222576645354,-0.0535258473890122,-0.0107423054959442,-0.0129973275947005
-0.0270737367119158,-0.0636973434111134,-0.00988278298279065,-0.00449100194586982
-0.0114480761390429,-0.0638122706295771,-0.00767601862285687,0.00375372074439901
0.010477609365073,-0.0660921514899926,-0.00954014477937524,0.00909950825351548
0.0379385878738344,-0.0731640693262283,-0.0114287464322104,0.0102456195906011
0.039454752452188,-0.0772953316047013,-0.00657579519480482,0.00993110155611054
0.0093299587025279,-0.0621323009447638,-0.00212253764115915,0.0108825921821298
-0.0146904140852755,-0.0188736768414424,-0.00320815658955301,0.0121057870852045
-0.0149113086071916,0.0292038496420313,-0.00354877994646218,0.0110617246172154
-0.00311297973795666,0.0596758540923078,-0.00278714817818346,0.00709952420052349
0.00590909703898656,0.0752340924035367,-0.00489466098421995,0.00152656025779198
0.0101205568157621,0.0777271025188704,-0.00947370613956981,-0.00433673286245303
0.0147062850083669,0.0676671060879493,-0.0154609287407365,-0.0099723691975061
0.015874098840141,0.0576372459990405,-0.0204836648598059,-0.0149317377873348
0.0187453778550542,0.0545974024710777,-0.0215565008396254,-0.0168007517470631
0.0333600446920691,0.0518751575632683,-0.0194124342223577,-0.0125283270809561
0.0445640182912464,0.0404245125526249,-0.0180421471852815,-0.00436337124639685
0.0291752635479011,0.014607737059939,-0.0167754069181518,0.00178683263186297
-0.000189970277033408,-0.0145184730001147,-0.0114293902276955,0.00486860636002385
-0.0160346537384793,-0.0316216187592874,-0.00525375472866862,0.00734396672003388
-0.0171211306939957,-0.03537403821957,-0.00369210451481772,0.00898406640869089
-0.0103325821350631,-0.0306928531677284,-0.00477339803480534,0.00813812404786515
-0.00118303220667214,-0.0172662723792149,-0.00578816912589535,0.00481422512773193
0.00338454307390706,0.00410826678181645,-0.00771405432322741,0.000583500199673933
0.00927614834892416,0.0234085844853821,-0.00982498236351445,-0.00250454651508561
0.0163474503248321,0.0353773863740612,-0.0107980662391791,-0.00359693792786616
0.0098624575354349,0.0439521735009973,-0.0111119209937742,-0.00335445632124267
-0.00158452379967969,0.0519614250286186,-0.0119509427559945,-0.00227493204856983
0.00233474842401925,0.0587628048097181,-0.0114133475835355,-0.00054354028811384
0.011515757135492,0.0632204247999731,-0.00811065807070556,0.00167613515397696
0.0084432938720332,0.0610225916261495,-0.00761416872320498,0.00404839082332805
-0.000781157745245356,0.046429106672784,-0.0123228166338724,0.00540017484110853
-0.00713391359344845,0.0294429669913399,-0.0166885844684945,0.00479581991315851
-0.0130606981037493,0.0300080912610314,-0.017628105374833,0.00300903049154985
-0.0149989480050227,0.0450669533428819,-0.0173276770851212,0.00182810025516791
-0.00903524700363668,0.0548252653059614,-0.0180192917130264,0.00190127188553716
-0.00346254540091441,0.04782981503351,-0.0191197057072371,0.00225639794344744
0.00218288464141287,0.02820231641281,-0.0180309051304608,0.00205999070518115
0.0129957316836661,0.0114982650756539,-0.0160458951555681,0.00169528054853827
0.0213297512035759,0.00611907220969412,-0.0146916157221528,0.00173137398916597
0.023315949248187,0.0096570693085227,-0.0110395952335596,0.00180120817005021
0.0241231334441529,0.0134000111113722,-0.00510666857443007,0.0016370610451759
0.022991179830381,0.0112049445366964,-0.001307656668623,0.00222565317026957
0.0157314745775376,0.0131363096124261,-0.00157517355939518,0.00430162599324975
0.00808832116447837,0.0237269292447151,-0.00289588611141555,0.00679600268104096
0.00676583872325502,0.0295774499122699,-0.00370312024513121,0.00809936923665907
0.00796241753405074,0.02545061687617,-0.00536922612332967,0.00732971924156541
0.00955638000569551,0.0226660600721919,-0.00748710290102037,0.00453737900796608
0.0115504525687689,0.0286767264503513,-0.00819818939322021,0.000834726831424852
0.01049210284515,0.0370027705870705,-0.00778433479371866,-0.00233521353944519
0.00435212846294174,0.0381552028547027,-0.00707622603644121,-0.00380043103226884
-0.000670647244091136,0.0290326535636802,-0.00530780751235751,-0.00309534181954291
0.00691545227359763,0.012424745275273,-0.00337697846768193,-0.0010662509510066
0.0177023713940859,-0.00380001974684361,-0.0016235950531289,0.00100944951264536
0.012184922318447,-0.0153735419591596,0.000512751029268942,0.00236379752284859
-0.00352411730252546,-0.0261619319237079,0.00253468194136358,0.00221624025622247
-0.0200210637043953,-0.0362892329478904,0.00528365672568995,0.000282618055526089
-0.0418580572855679,-0.038506942037091,0.00791352557136347,-0.00200571197562278
-0.0577241787108766,-0.024081718123966,0.00934722393208642,-0.00278052811275397
-0.0471107127401331,0.000348788961423936,0.0109278061079196,-0.00216787537728606
-0.0134376984507116,0.0148597792876089,0.0133534197211849,-0.00170391378633922
0.020252466528412,0.0148697521538957,0.0156775404061638,-0.00156073282421796
0.0380089315102788,0.0177068860173876,0.016366343363471,-0.000485113399074422
0.043562895918578,0.0362987859966968,0.0165366032448144,0.0021363900428727
0.043110494771083,0.0592204361372323,0.016262897785255,0.00584391366400278
0.0324147941636502,0.066922611637728,0.0141247832011532,0.00935395498963054
0.0121161296930023,0.0532951604853645,0.0103863469745455,0.0108746921548899
-0.00933701730706054,0.0178071958149284,0.00526128335361916,0.00957292279346798
-0.024192522821374,-0.0349305573383531,0.000870871489248522,0.00587222729930434
-0.0321778042815227,-0.0757874729756128,-0.000221603489929677,-0.000477502397289735
-0.0398258148971982,-0.075503167858012,0.00146524441632481,-0.0106240664224902
-0.0492909808153431,-0.0516437655763622,0.00222641102540422,-0.0230653118967809
-0.0557647052332862,-0.0401386391263719,0.0013848689071829,-0.030600770513947
-0.0501848946163309,-0.0390653373236154,0.00278755900029839,-0.0264603890204877
-0.0351732996721536,-0.0341667140860975,0.00685039512477132,-0.0131881764451594
-0.0186220068130791,-0.0226513409618617,0.0111159283334224,0.00162303075897843
0.00844315646649197,0.00241496667588896,0.0155000560721483,0.013891444216914
0.0458671261619108,0.0388569035016078,0.0235474926368189,0.0214492108719225
0.0685699398672077,0.0654831539304464,0.0339662418876679,0.021585642671619
0.0634654873764467,0.0560430948077386,0.0395147399568821,0.0150714060567558
0.0433859782878339,0.00710922337226285,0.0397574720638089,0.00649893360336646
0.0214324353955244,-0.038618655750946,0.0379662223256613,-0.000989484041446227
0.000657485218400693,-0.0304713610450922,0.0363382874961244,-0.00703350585377614
-0.0146725049512893,0.023562773200218,0.0400219404795984,-0.0105105652217477
-0.0200766616411333,0.0845683475954857,0.0497923640275031,-0.0098012921639106
-0.0206525142231663,0.141568154561599,0.0582685834014126,-0.00683680639813839
-0.0231780238510671,0.179645001555528,0.0620447774109045,-0.00516206798213113
-0.035360787460887,0.165908485013401,0.0632875285101614,-0.00471263830332453
-0.0623284976130404,0.110880304243241,0.0607232936912047,-0.0030491721489704
-0.0934604755757122,0.075157423686754,0.0536592050536931,0.000118551362733237
-0.0988862886817702,0.073364987135799,0.0459629029298783,0.00241399292410099
-0.0572492088256294,0.0580894931676131,0.0397770297806314,0.00216174641689876
0.0133009409067824,0.0227264809853043,0.03394530802017,0.000717877914794891
0.0768193867079034,-0.0264430837745623,0.0269810509832164,0.000559185050028687
0.0949390144461157,-0.10601507942211,0.0150653960927808,0.00180258507258494
0.0552255301060186,-0.169067770533718,0.00308534095023229,0.00185305734000941
-0.011632236897773,-0.176964601843252,0.00066834823175109,-0.000873307044758886
-0.0693534688108696,-0.161020104931641,0.00390867519288747,-0.0048576367006885
-0.0922412821468243,-0.125091996301388,0.00560412854036513,-0.00746147114340107
-0.0815632070601141,-0.0625151501613348,0.00424335484941949,-0.0073097814018639
-0.0635800608861338,-0.00489543289529057,0.00482401746656915,-0.00497773961038784
-0.0395490013692788,0.021080241835095,0.00952636965498118,-0.00154617064533789
0.00450619086234036,0.0258096444382502,0.0141128594773097,0.00205528716946382
0.057207906751853,0.0387039186932927,0.0187004961795482,0.00475647766414382
0.0922140778941553,0.0645484921007544,0.0243059299089986,0.00634144734720375
0.0914577415752747,0.076318473925762,0.0301352725614857,0.0074343368405027
0.0628646886614642,0.0590546300429333,0.0354242985564935,0.00787846139837362
0.0233735480822414,0.0307713889282946,0.0384007038515076,0.00659409562324819
-0.0166145270014494,0.00939306136698251,0.037989972029146,0.00370340317005407
-0.039663349146023,-0.00722527544554762,0.034034620382012,0.00102806714677323
-0.037235451326526,-0.0235973024336854,0.0294067698878131,-0.000668897425198048
-0.0345297310430551,-0.0359820261994135,0.0280387875544003,-0.00245093442421801
-0.0627814741865054,-0.0429408837944611,0.0266403697549914,-0.00426673628846792
-0.107629622777911,-0.0514642619862684,0.0193414059892331,-0.0048902220625172
-0.125253865782574,-0.0660391698281241,0.00680491527760211,-0.00478079716629091
-0.0989615014184523,-0.0841782007898593,-0.00603456593441079,-0.00576164098284943
-0.0466460581017053,-0.0902117680007502,-0.0146503291531287,-0.00869348511862524
0.00229268504865278,-0.0701364433594993,-0.0192593620802483,-0.0119196608872835
0.0319439468083956,-0.0448935321399527,-0.0231086134181887,-0.0121292929063117
0.048351734982151,-0.04128359527413,-0.0245667413659177,-0.0083713183256907
0.0550972685868628,-0.0524830736907111,-0.024066798527317,-0.00395937095996737
0.0408349873757595,-0.058865177242849,-0.0240430493753707,-0.00183231368283097
0.0140506066199573,-0.0607249931180919,-0.0199963468320805,-3.20418797004011e-05
0.0148674324091323,-0.0701810170614805,-0.0122475735463793,0.00435146712544666
0.0518988657763324,-0.0772451299087347,-0.00693470478508463,0.00997061523870134
0.0777586404745089,-0.0663705162520866,-0.00592068621780725,0.0132038704246597
0.0562373957641947,-0.0405710145607954,-0.00678085057221617,0.0125189615151673
0.00542785590661633,0.00332558774818759,-0.0034491888275786,0.00938044127779318
-0.030471227717853,0.0517009556792008,0.00328864623631446,0.00509059295158911
-0.0339021858774843,0.0626152983454944,0.00585461867732434,-0.000969580919248807
-0.0276009440860392,0.0291490670341998,0.00459618695800299,-0.00819807150702779
-0.0329974615758505,-0.033507924898912,0.00280309059286565,-0.0136923502638329
-0.0460295607933897,-0.102494969032779,-0.000469118630374011,-0.0154167724157903
-0.0483231033896606,-0.118945229814588,-0.00161760170459747,-0.0140818834705899
-0.0323708032024916,-0.0842429169024881,0.00215671437508159,-0.0116282106864213
-0.0132006288813099,-0.0722680630790675,0.00487388020279502,-0.00820290194227759
0.00883219492508964,-0.0831830171526775,0.00370224339404229,-0.00336614360507126
0.0418220199822839,-0.0629831176123016,0.000982153873196452,0.00185955513786733
0.0631438424326694,-0.0179031341073115,-0.0037617181998626,0.00777134383229523
0.0665403970990846,0.0265332395408782,-0.0106834180101781,0.0152869381395267
0.0744139881590213,0.079187194046445,-0.0150917555443432,0.0219659739797157
0.0848381222347635,0.138415438246717,-0.0123249934265211,0.0234722336972988
0.0891348433560687,0.182647569492017,-0.00664455160991037,0.0184873305239188
0.0991345999396401,0.200115191334959,-0.00510529723170503,0.0105027879059747
0.1205352444301,0.195763381707417,-0.00513514613613098,0.00424468471540612
0.127950404419019,0.175917506162262,-0.00348189238487765,0.00112098882781982
0.0975906641654913,0.126567266098564,-0.00125013817920158,-0.00098892790595481
0.0490641187327977,0.036009347591584,-0.00175275511462301,-0.00475956636744269
0.00484364130669768,-0.0594128719892533,-0.00765711902387722,-0.0113869280826263
-0.0326928305155985,-0.111227685422585,-0.0146170232253974,-0.0195210324857034
-0.0486478891938535,-0.110655427447244,-0.0179557416844035,-0.0251241701873643
-0.0494757722548755,-0.0814460916021898,-0.0162189082918673,-0.023704414268776
-0.0630219093735131,-0.054794704444732,-0.0096900261924101,-0.0141729277572208
-0.0812463311662164,-0.0426255376288845,-0.00301267841810615,-0.00115169640697689
-0.079217690926076,-0.0342329504647932,-0.000103524822689452,0.00845462360285799
-0.0477053069521138,-0.0118489982730239,-0.000974873847467004,0.0120932563916849
-0.00124714857557526,0.0197553502856056,-0.00551125502057896,0.0121443708624147
0.0358316318619499,0.0399559566350427,-0.00988844904719646,0.0109853358235905
0.0525572930366441,0.042608958336383,-0.0128150758375434,0.0102589100208365
0.0560142676657874,0.0356077742986632,-0.0172167746331188,0.0117711438590675
0.0643017764045421,0.0321230707680999,-0.0211141860722329,0.0152892306135486
0.0724794619143933,0.0316358214874231,-0.0223401967976404,0.0185840048024946
0.0636099070553394,0.0249240537214251,-0.0232155243275401,0.019942612569351
0.0458590466113847,0.0182790520501464,-0.0249508318458975,0.0187912733574488
0.0241875744190626,0.0180771641497063,-0.025308867738384,0.0143896554533269
-0.00461858046919175,0.0147933107393552,-0.0250917710988997,0.0062189112612673
-0.0267316454729005,0.00530340213016229,-0.0240526121014468,-0.00407331793334719
-0.0300817713531797,-0.00429324592534768,-0.0202162372159912,-0.0131912494232139
-0.0184960663650354,-0.0156479801851605,-0.0181567148792524,-0.0194402800452998
-0.00481155575360152,-0.0260863508655036,-0.0200196080636502,-0.0235859909471026
-0.00586843149495433,-0.0239833278159251,-0.0208640357790898,-0.0248148451542658
-0.023934330813974,-0.0132556571306628,-0.019725877020627,-0.0206285418529971
-0.0403917850166392,-0.0111939687222646,-0.0186033905673475,-0.0118319468038848
-0.0492122104931678,-0.0224315471074591,-0.0178089229619133,-0.00202984766476271
-0.0541060475283961,-0.0323643852856331,-0.0198327381752643,0.00579754400384728
-0.0521663115483326,-0.0255244205144338,-0.0266630746357978,0.00937692786792026
-0.0515583822936344,-0.00674427058953723,-0.0331121543182412,0.00791295388802185
-0.0543224672866514,0.0083582511304448,-0.0319411298255025,0.00442570968076445
-0.0567424693959392,0.00545671674169113,-0.0250399322899848,0.00330999444945963
-0.0622022654191762,-0.0194885886929773,-0.0208175205801749,0.00432149442526556
-0.0691387533277166,-0.0500410178239485,-0.0205829207944535,0.00381643369025296
-0.072202285222292,-0.0657217036291259,-0.0209662367992365,0.00147641005271241
-0.0636074225086281,-0.0601833411882774,-0.022097167689365,-0.000404804283597507
-0.0424071588293762,-0.0394108330242812,-0.022965086227518,-0.0017769426077503
-0.0151748242231382,-0.0144014421433489,-0.0223908968184265,-0.00328901935954782
0.00779178375980698,0.00335736999784911,-0.0195062886234789,-0.00385724151278894
0.0173706292777154,0.00947721855623979,-0.0143017633976394,-0.00303867200837338
0.0185994078851534,0.00806760441675166,-0.00887475521314792,-0.00230455659450064
0.0166631398006134,0.00368867077364771,-0.00368905102459403,-0.00247596035398908
0.0074342532807347,0.00309859630814092,-0.000715802943850347,-0.00236288568359706
-0.00130909299124032,0.0151870545601707,8.87837060484604e-05,-0.00136941769249071
0.0066996355900415,0.0357162605589926,0.0011839581594092,-0.00030385464789021
0.0210018574640827,0.0504556175058082,0.000654242144441836,0.00113054224535859
0.0166526812213697,0.0549244883594338,-0.000556999666073502,0.00373578911240264
-0.00254404331801164,0.0533589322395564,0.000166493047850383,0.00629649049628582
-0.0196667026125408,0.0493870647129793,-0.00026959006863096,0.00680774143648502
-0.0282518207527638,0.0412441080676856,-0.00337137291051783,0.0047470998625247
-0.0290520926473242,0.0261248821566249,-0.00859350698006246,0.000753690541195218
-0.0300788797153353,0.00879748752563542,-0.014529865088944,-0.00377603790277452
-0.0325144501869506,-0.00600767885129947,-0.0146805625103131,-0.00713783721528409
-0.0325111537486892,-0.0119436693090109,-0.00807464615256527,-0.00881575811055116
-0.0314401749634555,-0.00170221806494079,-0.00237562334803913,-0.00898374360168804
-0.0271958251957503,0.0161686986592234,-0.00132512362790536,-0.00731871501230288
-0.019045847203004,0.0210698530792697,-0.00264109266656909,-0.00394744665675461
-0.0116829219283872,0.00582664979467302,-0.0042082629851837,-0.000367780217055903
-0.00947384688210965,-0.0087680141624525,-0.00395876074734675,0.00159087947279044
-0.0158489002521734,0.00102499001668469,0.000938546005318158,0.00147408154171687
-0.0300296532998261,0.0217690496619598,0.00754296052816058,0.00057226153496512
-0.0517118824224932,0.0274616936361973,0.0110863167680981,0.00109710481739044
-0.0905371917907377,0.0290488997061401,0.0126166365446347,0.00395397395344355
-0.125751929306576,0.0485831490022978,0.0139966384769855,0.00757469745814516
-0.105299827366901,0.0821747799882245,0.0147807792820013,0.00975462067287154
-0.0344721525558963,0.11531727858317,0.0151705607236408,0.00923032282202201
0.0369417268117303,0.13704353981046,0.0161701404070727,0.00642594871498478
0.0844020115686178,0.136650284925366,0.0172873195802244,0.00315999093480634
0.103314240370373,0.114787771726408,0.016079700639705,0.000774284028589282
0.0998497502534359,0.0856636264063595,0.0122102016105087,-0.000529199201276202
0.0974642388640213,0.0619761966760235,0.0100832849293473,-0.0010555244614607
0.101238567024456,0.0452132187007714,0.0120001867145435,-0.00107519808768096
0.0774569119770272,0.0266516209587457,0.0156978055219735,-0.000574725615615046
0.0221155013402627,-0.0107109386660001,0.018448158937185,0.000456925007461296
-0.0182320272718171,-0.0869420055311944,0.0171355919485505,0.00133174053638017
-0.0154538980899948,-0.182520637482058,0.0120137823907432,0.00114982239883627
0.00210236983302677,-0.221870847755099,0.00786244530097669,0.00034869688161
-0.0131047385794151,-0.165135460791186,0.00701711531622647,-7.54624864210203e-05
-0.0522380492258858,-0.0722897265445909,0.00693320957679526,0.000175504822473067
-0.0597176304635098,-0.0139788905829853,0.00354316239295532,0.000830311810930773
-0.0301062044078032,0.0126161253505224,-0.000372468505581251,0.000851816156500257
-0.00515070526900367,0.0384830573075634,0.00258671980808146,-0.000534701765514829
0.000583164620235978,0.0595737819767369,0.0108857091161763,-0.00235959042224324
-0.00233324434697355,0.0577467867264684,0.0163902509452,-0.00309325676949419
-0.00296439568618131,0.0457371329957347,0.0178406827713185,-0.00239718156162581
0.00234331961180485,0.0431517838950991,0.0198202319004336,-0.00085417324097386
0.016412726956146,0.0380308774244477,0.0208850479405994,0.000964715963437517
0.0408030301608334,0.0159540734702428,0.0188836634000433,0.00257229284104008
0.058755905916604,-0.0115227024667575,0.0172036896839282,0.00309245681833934
0.057797843497717,-0.0274433018577419,0.0175303823049394,0.00213241133502305
0.042253865440928,-0.0302843369007087,0.0169403805326561,0.000680871955426761
0.0191220891245148,-0.0355812355871581,0.0127846281721828,-0.00041175751606259
0.00317852694090303,-0.0503919689652737,0.00901006847688954,-0.00148416044307555
0.00513159806597951,-0.0649548018712836,0.00861422920850189,-0.00266332570641908
0.0169115068129967,-0.0736540921665493,0.00844170071034892,-0.00338768208986871
0.0291770466441295,-0.0722533953338613,0.00820046708131252,-0.00338366181400262
0.0345469662871713,-0.0593832996639033,0.0100100683509632,-0.00262303904159624
0.0314768712128576,-0.0440254700653807,0.012860652990309,-0.00113219235170367
0.0312186363517216,-0.0360897350820977,0.0127214623129792,0.000610772803185023
0.036432438291413,-0.0388037384075118,0.00941991135618171,0.00164614407623086
0.0426335626586271,-0.0424585215458555,0.00844638666159367,0.0015038618232694
0.0528555188993128,-0.0354850845763158,0.0106320495801822,0.000713609159826645
0.0672280718729974,-0.0254783717674025,0.00987529187667069,-0.00017282768536841
0.0765644386647776,-0.0239075701136239,0.00426780783767539,-0.00118218158667586
0.0720477900720076,-0.0221475116278509,0.00239786482622864,-0.00235893748431969
0.0551168402734045,-0.0110749092004883,0.00808376562966279,-0.00300539303908957
0.0395785713381057,-0.0021320683120522,0.0138957014507845,-0.00245899840799478
0.0361591298293119,-0.00111448078130047,0.0149474670094214,-0.00152739236511048
0.0452787119578843,0.00204346658243072,0.012439772723758,-0.00130990422474768
0.0568857886712831,0.0100742965946984,0.0101093760133703,-0.00166954796155611
0.0569953039526275,0.0126717875831035,0.00877174141979519,-0.00200801296828977
0.0461467485909997,-0.00240206624990186,0.00583975265485447,-0.00225336116300681
0.0232078124104291,-0.0236291174055501,0.00289886753362817,-0.00267603655948138
-0.0187551107028952,-0.0313232214629047,0.00108092640007003,-0.00285616982329736
-0.0591952835814152,-0.0296034487334824,-0.00104874760008967,-0.00206056289294189
-0.0659939052333573,-0.0189622443882605,-0.000896189661353841,-0.000527255508935134
-0.0387768523270936,0.00309830189396739,0.00262507211823642,0.000988670785344253
-0.00402662230571304,0.00897605781868327,0.00648747173407367,0.00200718393761016
0.0129011101126349,-0.0195598758393706,0.00770072277766284,0.00206515332912209
0.00487815122641574,-0.0469953665450602,0.00495144712903014,0.00108375141189345
-0.0141242639270593,-0.0405243045132069,0.00256555695896318,-8.74538654236355e-05
-0.0198970769209579,-0.0165480645254701,0.004937687831739,-0.000793379021428298
-0.00035229930918218,0.00257304073092071,0.00947438000907013,-0.00114006555700988
0.0263490175933093,0.0178127078533909,0.0147026745300181,-0.0010468139497332
0.0368073778935963,0.0369937715383189,0.0217143007187704,-9.13497671738157e-05
0.028735744658324,0.0503588585229581,0.0268990022282432,0.00188435758923744
0.00968430871963303,0.0432747647789663,0.0247447678031599,0.00421480150645049
-0.004584098427025,0.0251276370936965,0.0156374715541073,0.00548111978780504
-0.00173379346365806,0.0186964490133717,0.00599548056370847,0.00513551070489819
0.0130156262269754,0.038711736113719,5.75689792829265e-05,0.00402310125304061
0.038722979157088,0.0684129676817617,-0.00283318064438041,0.00257771033257083
0.0688637035012272,0.0758181380717558,-0.00191816621539229,3.30849908471952e-05
0.0837252196670232,0.0607173480496402,0.00388605655760627,-0.00429188575801558
0.0806703796053941,0.0461824597157868,0.0104134517721806,-0.0092242875317001
0.0714410915628016,0.0420031307730541,0.0124795595525721,-0.0120719105478952
0.0657995642760573,0.0460764899477175,0.0106652415665648,-0.0115619962938445
0.0482512467299561,0.0557538236062371,0.00953515309623611,-0.00858232021395424
0.000421759647809272,0.0601360340276313,0.0114854087582813,-0.00387674535378661
-0.0486239864490075,0.0553453261745297,0.014696150248479,0.00219243463229529
-0.0773788431279064,0.0337947732703901,0.0144474565797215,0.00835594330686257
-0.113678922244722,-0.0112983965330656,0.00959272166665445,0.0127967389028824
-0.161121963332116,-0.0329741116211843,0.00456264483097975,0.0141925554099347
-0.174120458990559,-0.00772292972809858,0.00158000664334421,0.0118414567134581
-0.137039359917228,0.0028918293176003,-0.00213427998008848,0.00555062435711435
-0.0787309401748607,-0.0333955415138534,-0.0062886801499481,-0.0032678857597234
-0.0211872972031862,-0.0808106938314024,-0.00683028825007936,-0.0106482038128884
0.0258483670651416,-0.123518258653485,-0.00395852692425004,-0.012267763199449
0.0650566410386593,-0.156022823230348,0.00133233295595353,-0.00748983634437966
0.0914850020395447,-0.141180177011574,0.0104697240272615,-0.000240968083407341
0.0797981414956476,-0.0792010578537331,0.0223437327991135,0.00474510625218826
0.025942433942528,-0.0263664855339792,0.0294416642091972,0.00561362687154475
-0.0532633181203473,-0.00780484573759938,0.0267534946050367,0.00264743670049976
-0.130885256009944,0.00114726617118377,0.0177459549092816,-0.00336102247891173
-0.171899059033384,0.0144388714519418,0.00478377542734858,-0.0104254109074526
-0.173351069025433,0.0217076829060038,-0.00878101532218827,-0.0152771213486146
-0.148361649106935,0.0207588159551154,-0.0175582169572484,-0.0151944663249195
-0.106342049659915,0.0266179803195746,-0.0214370919970739,-0.00984583229294927
-0.0748157478368403,0.048275346478115,-0.0230295146701195,-0.000931856023994787
-0.0675243333015392,0.0719872433993056,-0.0255946281761499,0.00965007481865926
-0.0643479729547171,0.0770912311890887,-0.0304987336163152,0.0201094906501054
-0.0436399650282528,0.066928421778127,-0.0337005807869144,0.0270249062918583
0.00240552954003515,0.0415302385337167,-0.0309176075819402,0.0267195115117963
0.0605389914819912,-0.0194739336293413,-0.0225005129425145,0.0196083345424198
0.0957080763755868,-0.0862674666049221,-0.0119996313752243,0.00857186587976036
0.0766854636653314,-0.103512735720923,-0.0056028349286535,-0.00476054590511923
0.000319035709083371,-0.0806303200123455,-0.00572942690977082,-0.0179438555522045
-0.0835933707719407,-0.0543568317920257,-0.00838063772013036,-0.0263178816837427
-0.109659643485736,-0.0317747989222008,-0.0118835977316628,-0.0271430087058248
-0.0892061232701095,-0.0130795637510384,-0.014954195199876,-0.0225700064448673
-0.0752410731877519,-0.00685380704431645,-0.0165561523032432,-0.0155368472370862
-0.0726165709121655,-0.012584708181361,-0.0200667056345677,-0.00683380370746259
-0.0667989725120339,-0.0181388585167521,-0.0259187753636798,0.00129135095654473
-0.0607284874749911,-0.0174471262437279,-0.0321083218001579,0.00564511661628201
-0.0563069012863222,-0.0195645074068626,-0.0369732520612342,0.00748070407807605
-0.0502693056553341,-0.0298513584743488,-0.0384842899993948,0.00982414823186951
-0.040997013497356,-0.0355761883664932,-0.0386540634473568,0.0116815086331346
-0.0198758026081597,-0.0318910259479796,-0.037480834020656,0.0113269692171062
0.0159578071053056,-0.0336760322227933,-0.0324466719178326,0.0104794723939501
0.0465255259893478,-0.0335466260149087,-0.0278043372228666,0.0107346740493973
0.0636863312564894,-0.00622390890707448,-0.0275233401019011,0.00985064092328687
0.0785244718855069,0.0307953115783835,-0.0309409449855973,0.00584739578689399
0.0977592965943294,0.0420429613336708,-0.0352929727129884,0.00145449949927405
0.115871491285239,0.0376011772153413,-0.0348628626415258,0.000105156206662233
0.107426498610345,0.0502894010771789,-0.0292125357079269,0.000861610519933971
0.0661911501675242,0.0831741956843213,-0.0233300209828215,0.000842759433011414
0.0199592081907841,0.102687578725569,-0.0203051668190137,-0.000562982093844253
-0.00641852493026962,0.0901565000376392,-0.0217050260601216,-0.00252679871352319
-0.00674308223170293,0.0613728614772938,-0.0251599560634457,-0.00458936747654656
0.000170574670726564,0.0286692525791781,-0.0265750222246582,-0.00586894006724597
-0.00963942501922701,0.00836579865537353,-0.0243289755707268,-0.00486313084279353
-0.0380624423331292,0.00902574019814606,-0.0185997099034531,-0.00123315282489265
-0.0599479918183865,0.00549465689097816,-0.0155517816531218,0.00336536234747946
-0.0500166578554805,-0.0138822487973038,-0.019409983520405,0.00656659362596207
-0.00847068286329032,-0.0287198610544345,-0.0232369403297512,0.00682517789268778
0.0509987682296124,-0.0307017722042598,-0.0219047919093999,0.00385547106649656
0.107791884445815,-0.0372027819502531,-0.0177881311113415,-0.00239989376377357
0.130466164483614,-0.0469008760611317,-0.0143276052303388,-0.0110978767037689
0.107018542600465,-0.0296819569282983,-0.0136650288181549,-0.0167448201108154
0.0752740889475221,0.0142457372307122,-0.0119224636873517,-0.0123949011079873
0.0716504603842843,0.0474087655598935,-0.00533152905807438,0.000915796776940404
0.079032947241352,0.0487763849112869,0.0017232241664887,0.0150290129244419
0.0641645535866432,0.0346028941081028,0.00320788925840262,0.0232756951904621
0.0368064899245115,0.0267421830704404,0.00130182567933572,0.0236089639333605
0.0281082514862616,0.0179207417409917,0.0026710755209263,0.0175435711352242
0.0331364963965539,-0.00368662297889383,0.00393419323530594,0.00863537509764743
0.0240127806015205,-0.0318505973704267,-0.00126911456127986,0.000197597029624911
-0.00437060997715089,-0.052878846565688,-0.00753020525613012,-0.00616124095181705
-0.0266479240299108,-0.0533416118198867,-0.00629727100927063,-0.0100130651733428
-0.0273852908514231,-0.0388143760492995,-0.00016473295618266,-0.011082099277454
-0.0186425207988009,-0.0236734417435264,0.0016856880981757,-0.00933551457238593
-0.0218568405925338,-0.0170101721492856,-0.00238548596813435,-0.00589487467406551
-0.0406469411972301,-0.0283725254646087,-0.0083502283950148,-0.0025668421849202
-0.0534601752209467,-0.0520734725554255,-0.0158495672866375,-0.000326278248165932
-0.0477517906443067,-0.0667945146887101,-0.0206052406390983,0.000585587934709417
-0.0367506920001699,-0.0602580503823284,-0.0164233712363285,0.000708677772199633
-0.0329536251666098,-0.0393951199108119,-0.00883959009675693,0.00155239137322734
-0.0191671313605872,-0.0176774373622789,-0.00570857304897905,0.00335275619400765
0.0171116841735195,-0.00197234327523234,-0.00582103241656444,0.00490011938559847
0.0544161329301551,0.00517951423049705,-0.00537164783155379,0.0055314332282904
0.0693603776492433,0.00326845091076797,-0.00356332771768634,0.00518826414099461
0.0655146207189577,0.000214284492608373,-0.00167168691437539,0.00384999980057873
0.0537185716098001,0.00669435284968951,-0.00427277024726482,0.00108844870255246
0.0306593590190162,0.015239674091709,-0.0123762561794804,-0.00313333790574459
0.00442223511715237,0.0159464136194634,-0.0185083093687339,-0.00739027304708755
-0.00562292046853478,0.0250732096976613,-0.0186456621098877,-0.0099065354396462
-0.00110545573327998,0.0459727940266956,-0.0148919253864997,-0.0098773206437356
-0.00228619501062842,0.0520490514348221,-0.0109248613123797,-0.00756616114391044
-0.0235588233760875,0.0367242612746347,-0.00812957184964821,-0.00390336035955254
-0.0578179007219842,0.0157805435489639,-0.00444453322515147,-7.54708629596371e-05
-0.0744638734277262,0.00456447297273108,-0.00128886542358961,0.00248702468776696
-0.0479986094560351,0.00941616457136683,-0.000872264265351725,0.00284094156355739
-0.000917374174078396,0.0162018370497606,-0.00128657704346013,0.00127377771192152
0.0161224848111082,0.0138362362662089,-0.00190308807009698,-0.00110650475320355
-4.72268764014298e-05,0.00907206330556035,-0.00530015729845247,-0.00331251612019702
-0.0117245438492588,0.00697808598825733,-0.0111740586703067,-0.00500216064514845
-0.00757169677272522,0.00301309969196237,-0.0155562163857823,-0.00590841658589764
-0.00523523605266429,-0.00515686221977912,-0.0195166432396711,-0.00565121886941882
-0.0206641799807196,-0.0101338764669692,-0.0239586738260374,-0.00432533826950894
-0.0450423873231788,-0.0100407642144129,-0.0245677692574133,-0.00261202793471252
-0.0495023646807029,-0.0084588038514698,-0.0217869466758219,-0.00108796128580057
-0.0260179821852518,0.00416925917075722,-0.0174493720575862,-0.000124759832632404
0.00895635622179219,0.0397607317989516,-0.00985640327504527,0.000549934887548276
0.0441642970957355,0.0814951414187772,-4.01703548750677e-05,0.0019704185141668
0.0701242454158352,0.0968406845437482,0.00527267005349072,0.00375641103776331
0.0706213425873387,0.0835177152618811,0.00468881593562969,0.00406294957364159
0.0473698431591196,0.0693568646156316,0.00438953840138518,0.00238894571515836
0.0237152182003545,0.0681421832638476,0.00504661461518243,5.65553678450598e-05
0.0143720314710091,0.0662028527650561,0.00333558456598451,-0.00201295276027064
0.0158116315887105,0.0598278207228168,0.00101898959510824,-0.00376866892659688
0.0164035724277546,0.0580430035204533,0.00293061462464622,-0.00506652924506138
0.00632239035739208,0.0596060950385109,0.00673807764307365,-0.00542879912367471
-0.0105933825158782,0.0602580497979483,0.00704214473288702,-0.0042384437472783
-0.0198514466593361,0.0599273053693522,0.00772817194448103,-0.00195072453077915
-0.0240399147596452,0.0690338773360505,0.013697228601174,0.000113383016538829
-0.0360196798616902,0.0904290835500979,0.0217774773167415,0.00134961957375429
-0.0466824590095629,0.104702134499185,0.0273240828253631,0.0017494398883515
-0.0417334632702494,0.10202688914159,0.0312513240684463,0.00147179328302417
-0.0335312477646385,0.0879843696219946,0.0340288252885535,0.00105921577438637
-0.0363497970090351,0.0595768823128111,0.029666192803801,0.000444243762998238
-0.0421845093753546,0.0140098715701239,0.0184689137688312,-0.00132111774812261
-0.0505556607650572,-0.0223947867866756,0.0117772016836621,-0.00362960494055894
-0.0662054988165567,-0.0272384725909232,0.0136803712958171,-0.00394108094859925
-0.0690036884517325,-0.032123341798764,0.0164651735848731,-0.000957243500638996
-0.0486751382522414,-0.0713396001708888,0.0177090904020421,0.00351050186877752
-0.0305441852394445,-0.105111631216408,0.0236048961513607,0.00670269540287949
-0.0255474916069469,-0.072858933422759,0.0338751437838717,0.00805687401559008
-0.0188611389612396,0.000893080080229536,0.0411494742646911,0.00864527177646527
-0.00510465967803161,0.053348569476019,0.04285999384288,0.00866583348984467
0.0137209578737871,0.0635365064676039,0.0395923867299874,0.00753403488195103
0.0378050054511316,0.0357358402119846,0.0320566413526068,0.00545804678348693
0.0597485420954756,-0.00136263585932733,0.0237355691755204,0.00314803667044389
0.0621085710985023,-0.0129980244490299,0.0192790447249893,0.00148039827970264
0.052892913617873,-0.00313664644735644,0.0204805207700049,0.0014945607203806
0.0639851567919568,0.0159619779429146,0.0256391286702589,0.00301563681010368
0.0948425253549819,0.0414720843955225,0.0281070085970332,0.00411730287646766
0.111917620441237,0.0422454614287743,0.0234668635261963,0.00230498173487748
0.0875774735527859,-0.00565238666107197,0.0180430578928137,-0.00353943395699811
0.0375221002519638,-0.0575574635868294,0.0173299392574085,-0.0114943116359163
-0.000263554788572234,-0.0658444790569949,0.0190202671476313,-0.0170208784414534
-0.0210009169337714,-0.0474847599477671,0.0194255518484191,-0.0167650950161077
-0.0405325373528624,-0.0402190688927629,0.0187067696791402,-0.0115723871725877
-0.0600416446127948,-0.0555383109488852,0.0200179108246933,-0.00470807473853702
-0.0671242028650956,-0.0675247135194334,0.0247088626681776,0.00165621837109494
-0.0531595791832073,-0.0630400139321279,0.0298776933064638,0.00723884424073477
-0.0318971357310118,-0.0667279015095817,0.0294939502759089,0.0113319450427818
-0.0214460367551631,-0.0758723112363629,0.0253958058825339,0.0128683014900827
-0.0101062659489703,-0.0583859268966917,0.0239395411000518,0.0126236692154557
0.0117471619149261,-0.0203398613261939,0.0230269948698178,0.0117558587442633
0.0323395922993691,0.00377959945569456,0.0209842126303487,0.00972456685425595
0.0425138237322756,0.00274867271433054,0.0186709686164457,0.00591122699495743
0.0459877772182399,-0.00762679268436998,0.0156443484064174,0.00128317205184011
0.0527174418994528,-0.00956850427346675,0.0132767682394755,-0.00259802993002199
0.0617446712448405,-0.00322713418760654,0.0120868736869085,-0.00486630667395779
0.0629519202385585,-0.0102088489722852,0.0116274246649402,-0.00609643410191771
0.0546304636938227,-0.0523116265123691,0.0118730855919334,-0.00810410049265755
0.0484809738485011,-0.101623554160718,0.0116388304865511,-0.0117848060335086
0.0566597141127325,-0.111718838352378,0.0107769458088784,-0.0153727846084055
0.0701799145226424,-0.0863283732400665,0.0107564342993694,-0.0157118358323862
0.0702610590580992,-0.0512295305899824,0.0112618967155107,-0.0111891608930244
0.055313398761511,-0.0329095659349441,0.0102779324268247,-0.00346208620542971
0.0237790244344627,-0.0507673236562076,0.00663083666036996,0.00348053126760692
-0.0215826613261856,-0.0858940438421013,0.00406390878416756,0.00692990566075896
-0.0576717047476399,-0.108567999439475,0.00445383549084094,0.0079716532981921
-0.066693298328928,-0.102988345248218,0.00427878268518695,0.00857757084186577
-0.0518549069114475,-0.0608661491337409,0.00506780194191404,0.00835791466310541
-0.022137911880899,0.00234295749184139,0.0088004574043225,0.00615610201924602
0.0228265139474768,0.0590702672460259,0.0112773652624783,0.00209601364195535
0.0630454186004607,0.0907435484512552,0.0101092175600716,-0.00243352166090188
0.0617994629165169,0.0957630060608892,0.00661009177149287,-0.00548952295138778
0.0307352730726714,0.0870624355129555,0.000539110017331756,-0.00560748542522444
0.0121402303988033,0.0665902791209471,-0.00609310429285196,-0.00294718097788286
0.0157504499879942,0.0400110520712458,-0.00836431650253501,7.93734935909535e-05
0.0177234558933103,0.0182637858439331,-0.00732548111678575,0.000795335992572882
-0.00502837910290379,-0.017295916012472,-0.00770631331950225,-0.00074896298329454
-0.0499832314561109,-0.094071002983793,-0.00937461089347057,-0.00242411694120325
-0.0874884014621576,-0.173746803914748,-0.0101625304615747,-0.00317382753668256
-0.0915860216005801,-0.16394870389874,-0.0106796458969311,-0.00329988133414683
-0.0850173265355806,-0.0570931840688264,-0.0103075840599003,-0.00244368199129744
-0.099774002522183,0.0513981583243168,-0.00687874905478889,0.000222255689408744
-0.109789952438313,0.102285847402207,-0.00286591168273927,0.00397312237018773
-0.0779091205916558,0.114151032206082,-0.000186486883060718,0.00574305388836509
-0.0259833413075944,0.10517311487972,0.000976237760031293,0.00355701736960296
0.00369034441750078,0.0675865250097559,-0.000595073661340328,-0.000356360035845939
0.0106248844239411,0.0183837701880926,-0.00408796966347074,-0.00284234950493077
0.014700746724351,-0.00527249588494823,-0.010268737303306,-0.00341792996305129
0.00910551425750174,-0.0199923071527249,-0.0188583331496928,-0.00256911584018255
-0.00526187583703719,-0.05248806811217,-0.0242201813887004,-0.000175607776411198
0.0135171550118766,-0.0681173650217833,-0.0209266317258863,0.00286714357857068
0.0642608443903963,-0.0553028697608695,-0.0139211486316766,0.00449801752347664
0.0844988130811274,-0.0508824060205732,-0.0126181441968618,0.00367061705721295
0.0536647026466754,-0.0622182676688482,-0.0184734406884367,0.000976862405769012
0.00246584660461287,-0.0627739525823879,-0.0259550555259164,-0.00254554828188257
-0.0429338536639024,-0.0410496697185888,-0.0272006732585316,-0.00563094018082928
-0.0605511665096479,-0.0132109437560766,-0.0238746669447936,-0.00658952719447618
-0.0416181482632358,0.0115214420428435,-0.0213793732575919,-0.00384663891173823
-0.00984867851510285,0.037283180469076,-0.01805527411536,0.002728797863577
0.0049029162099908,0.0547086219018729,-0.0161648225414422,0.00985912002494472
-0.00970777232970507,0.0479367449596989,-0.0169202157806021,0.0128974681516932
-0.0421259125731494,0.0238309351373549,-0.0167618965444069,0.011360268509194
-0.0606202971252607,0.00888764778777215,-0.0134072045759899,0.00732409851197281
-0.0528912385528955,0.0122181610250439,-0.00336002629507301,0.00079756749768839
-0.0379078015478064,0.0148360715227592,0.00871185805351155,-0.00684309187733986
-0.0220636710657471,-0.00199968663392747,0.0112811808803477,-0.01171598689911
-0.00172612803260358,-0.0322581394986002,0.00409658591984103,-0.0133063004003355
0.0114562768014393,-0.0521052469861534,-0.00393585227304574,-0.0138948841129142
0.0149969550347588,-0.0491729117683092,-0.00856403274100163,-0.0125580238630833
0.0214735035668556,-0.0349356874672051,-0.0111206649316028,-0.00659278215075153
0.0320847037781984,-0.0239833622978308,-0.0139351104126276,0.00257474097923741
0.0398757910416297,-0.0132880676376273,-0.0169196684014914,0.0101590405522982
0.0447133760060678,0.00112490191241984,-0.0186760272421535,0.013156790280794
0.0444654297764344,0.0141662207432602,-0.0187431713753805,0.0124191628029149
0.035034877349569,0.0207997946037716,-0.0172349413667525,0.010808122177773
0.0182169625875218,0.0141212633695252,-0.0175864080078247,0.00965501743392698
0.00722002340130579,-0.00368243851747638,-0.0195545886412012,0.0073241133937664
0.0110706209819693,-0.0130349666834425,-0.0173695314076525,0.00238099894376319
0.00868783733011897,0.00598317226376405,-0.012414511447008,-0.00336768001175251
-0.0168629843658868,0.0431156936055758,-0.0107336845485734,-0.0075173640299011
-0.047345618194176,0.0591062081261995,-0.0113748840392943,-0.0108953855740869
-0.0627053275284379,0.0322868126971464,-0.00990128993747223,-0.0151885963797549
-0.0634952610053984,-0.0108021118384822,-0.00682473555245171,-0.0184685629941225
-0.0513353680841579,-0.0254988110843136,-0.00424938038952623,-0.0172519108832488
-0.0323528062385336,-0.00632292725075622,-0.0029423566353485,-0.0110232114714486
-0.0182434383750057,0.0141289841061806,-0.00421675305855619,-0.00172700300265899
-0.00099030668830967,0.0165579137088273,-0.00931594814187307,0.0085374808857849
0.0223902148909941,0.0181817093315525,-0.0141458259522857,0.0180482365510282
0.0333916377532548,0.0358337106016514,-0.0132936039386107,0.0259847814846332
0.0264912133827787,0.0539392213538039,-0.00919252066852753,0.0318664207158035
0.0163427069701778,0.0569210818022366,-0.00601341056809025,0.03325944600315
0.0142390120866041,0.0557936712413721,-0.0043853963966976,0.0266541229179313
0.0159545559265318,0.0630315879757885,-0.00362195015913893,0.0125193995429277
0.0143303137688609,0.0715044540062751,-0.00468334708868017,-0.00367423919990185
0.00686703617242446,0.075870051676961,-0.00528338984826837,-0.0173325308107764
-0.00611182117672994,0.0816764842216108,-0.00160347746191921,-0.0267065651881286
-0.0237381685423437,0.0785499160825616,0.000982536888875833,-0.0300839402698787
-0.0476459932547098,0.0549020052937185,-0.00257485762051424,-0.0272949610787124
-0.069710963858007,0.0289600653600104,-0.00828862743439872,-0.0204928033734806
-0.0786746129125827,0.0194859007601089,-0.0114275440479615,-0.0119249238409295
-0.0642601257802115,0.0146965154226058,-0.0119298993592524,-0.00379718309127934
-0.0162034643853349,-0.00209190596051271,-0.0137799687149195,0.00182994409380741
0.0356116543823592,-0.0216316116719779,-0.0164577720446041,0.00464401271728579
0.044252189398417,-0.0337892599399649,-0.0142646196689172,0.00773774112894079
0.0209384810304452,-0.0471196113577248,-0.00968393800786598,0.013560981187436
0.00483197765394359,-0.057605892007967,-0.00758990294974784,0.0181958124933938
0.00316293487261054,-0.0525594476828149,-0.00810468132065027,0.0167826537352322
0.015239877461836,-0.0380212735936374,-0.0114244821116165,0.0109069904015778
0.0485798334570176,-0.0220229200992078,-0.0140525105862026,0.00504702629004823
0.0876563013092398,0.00131800432931355,-0.0124979375172298,0.000735777530370836
0.109095518995395,0.0354661226841939,-0.00933362026484543,-0.00253667881075955
0.118732348255906,0.0773423891221371,-0.00575184251623905,-0.0044280451745903
0.112341874998118,0.117491342088421,-0.00123476454851865,-0.00428160372669972
0.065956386300098,0.128257118100338,0.00219523633383285,-0.00218633456324602
0.002115057565066,0.0949995382873722,0.00440482774850033,0.00113926726799783
-0.0296972193682215,0.0451060319958704,0.00489536766989669,0.0043040851582228
-0.024169218396342,0.0119531768724527,0.00266495360361151,0.00577334619948316
-0.0195739435670715,-0.00303676493454916,-0.000674636644472274,0.00474010390074251
-0.0396603276091781,-0.0175245241985538,-0.00376395694093515,0.00142198063901342
-0.0631045974919592,-0.0386356264474771,-0.00352179243345934,-0.00342566073078289
-0.0635719293692327,-0.0606479699797744,-0.00042514533441586,-0.00892588855131958
-0.036963268056019,-0.0790367423450141,0.00109935235425406,-0.0135623609792202
0.00125882497555763,-0.0930278092342657,0.00231376377796141,-0.0151521736591599
0.0294261468545945,-0.088907894188201,0.00448080122999329,-0.0126879200762133
0.0420187328838077,-0.0554491150644621,0.00707661069633032,-0.0073878179635262
0.047986558277534,-0.012928824929109,0.010460416322796,-0.00136010225023555
0.0570434548675324,0.0110182434090718,0.0113643139317959,0.00285464724263695
0.0662991239802001,0.015370486759443,0.00866352318849156,0.00342839753028958
0.0673047503366839,0.0174083420216741,0.00548830571609641,0.00194433960655339
0.0640782049881573,0.022367897817368,0.0022112432237495,0.00181976873616776
0.0558228083991731,0.0208142772739566,-0.000904180754913875,0.00390197110877237
0.0290252127053943,0.00770939564500544,-0.00162332887756206,0.00599875105356577
-0.00604840408544317,-0.0131974859436925,-0.000788911969682793,0.00613862978392754
-0.023835131899539,-0.0331416641774243,-0.00109508648173028,0.00400249624455708
-0.0227024067061383,-0.0404185602405543,-0.00120947845970646,1.00535927353308e-05
-0.0157724913144156,-0.0344289056357791,-4.44804953336937e-06,-0.00448811671353042
-0.0146721540781454,-0.0231983652473266,0.00112722005540773,-0.00709954190401852
-0.0191526810377146,-0.0128577681295597,0.00299263672843275,-0.00634356019910434
-0.0220706025638182,-0.00934132369716172,0.00593385983321839,-0.0034299712521912
-0.0202355037682348,-0.00610853511846102,0.00867634854374422,-0.00067939783159066
-0.0139840692590548,0.00590363281637604,0.0125192096183861,0.00105145002166728
-0.0135322873369799,0.0200009121822766,0.0182514055458015,0.00185610168514982
-0.0199895356058268,0.0220502216732887,0.0203999662252742,0.00147269390585312
-0.0187932806228989,-0.00324327611925326,0.0169243074794086,0.000206064152151251
-0.00513907068874711,-0.0505979764338141,0.012431088666911,-0.000563689258937892
0.0110864796228017,-0.0721008414385369,0.00868523594480303,-0.000187427761593052
0.0200464735410843,-0.0371553368070474,0.00613933607098725,0.000367488688829726
0.0207985022042842,0.0133903659804491,0.00599488588453352,0.000213877738511928
0.0154916763780729,0.0343514947341384,0.00735612476845627,-0.000146219450375944
0.0047681932531784,0.0330648152218642,0.00816890360378816,4.69298587986878e-05
-0.0155382662752248,0.0283398380542177,0.0111334918924526,0.000556287851081105
-0.0449005594885361,0.0138576639972038,0.0173265608790194,0.000714052645354812
-0.0674786277021851,-0.0114307416455177,0.0194272449728328,0.000111894490516651
-0.0728257257556857,-0.0268722687559395,0.0184227470219104,-0.0012648650805852
-0.0630209942215916,-0.0284990766552098,0.0216360426955715,-0.00263645866193047
-0.0361233280416829,-0.0329262640325228,0.0249395468438588,-0.00292113658555971
0.00558563405345075,-0.0423614964634624,0.0222976450176447,-0.00209616718132556
0.0422494912460109,-0.0445965164055519,0.0204353643980701,-0.000712773075402829
0.0608840903655078,-0.0349945098018214,0.025403051168188,0.00124760480238162
0.0670064097916246,-0.0193229584610472,0.0312022235561916,0.00357372020093187
0.0638262503796978,-0.00773103616273865,0.0317687324456011,0.00511188010651943
0.049645999026557,0.00146913006962023,0.0287040551556405,0.00494698573322043
0.0330602357962155,0.0246915769983505,0.0294354449322205,0.00380287883291142
0.0323681791726585,0.0565795698984481,0.0350771521968278,0.00318092978297856
0.0433469227588217,0.0686192997848349,0.0373925062888444,0.00317577275230196
0.0360000112985732,0.0563952062913785,0.0336665435056296,0.00264373163232761
0.0024829410527995,0.0406129739307623,0.0309214882386309,0.00140092123737675
-0.0334104596645856,0.0210657865793284,0.0324962456308381,0.000403117012644109
-0.0638039405935406,-0.0174617012194212,0.0337518799382542,0.000147627130584759
-0.107558083835,-0.068754298228094,0.0316551023674861,0.000116548360196023
-0.157436263846678,-0.111483302403855,0.0258512070694787,-0.000483993132555789
-0.166884732324492,-0.12554310740101,0.0178647732970672,-0.00158418367549288
-0.11798453323334,-0.109582685961155,0.0119419723492566,-0.00240960305851354
-0.0439872056440241,-0.0884154127153074,0.00973208987556248,-0.00268853348327836
0.00381908273379356,-0.0724963020396664,0.00830596280168164,-0.00289395478224832
-0.00670739133207365,-0.0459531236707164,0.00831787611312075,-0.00335777260176853
-0.0416584382978328,-0.00917919136385301,0.0107210292760702,-0.00317120628608257
-0.035787966378565,0.0241322830744538,0.00930830322707958,-0.00117637704543919
0.0228219356205858,0.049477730848258,0.00335484721894449,0.00191581325969993
0.0796062908234836,0.0608058535531835,0.000112427085263227,0.00405665537979071
0.0832987079674674,0.0494071672164312,0.00134693539343324,0.00424617095764674
0.0483451890001884,0.0225305473769386,0.00472749556114163,0.00330598233454133
0.0157427018052622,0.00253586319204556,0.0102059868139027,0.00246392991502802
-0.00273116704389306,0.00331989526052279,0.0165357525772948,0.00229883130098449
-0.0118092435446415,0.0189974925230951,0.0209123665769397,0.00262586085430857
-0.0183331162694409,0.0322974417011916,0.0214919443669495,0.00279233024954872
-0.0232996478693223,0.0362263557644456,0.0201946279984804,0.00236825830333875
-0.0176819015815559,0.0353651870567112,0.0175010567958091,0.00165450162746804
-0.00522552180443531,0.0311987444238164,0.0130710332519373,0.00104514365578799
0.00117913829585899,0.0264318390369123,0.010916839290871,0.000342777850710363
0.00163074596168297,0.0150646630964453,0.00778553265397827,-0.000728043201482337
8.31674672194943e-05,-0.0103573387052774,-0.000193081930381905,-0.002721639811795
-0.00509692389367787,-0.0242260656027188,-0.00627409353139366,-0.00567765447378129
-0.0134509314972646,-0.0149578641481378,-0.008098631877635,-0.0076963962617945
-0.0266919952327253,-0.015194732259199,-0.0149495438598375,-0.00768676888358193
-0.0453384297962562,-0.0207186505718835,-0.0277234703526242,-0.00745865822926901
-0.0595650560570266,3.43539584256661e-05,-0.0346094187473783,-0.00803377402185981
-0.0665317262178606,0.0284539138131317,-0.0337757202511801,-0.00783209071952766
-0.0705806021807368,0.0347848733167155,-0.0307281798795112,-0.0059475880803903
-0.0637658959767033,0.0299345594113664,-0.0247709693218404,-0.00277830210149064
-0.0409072368629759,0.0364061908486769,-0.0180533775712549,0.00117444917611137
-0.00845565484893128,0.0530111807927691,-0.0136717961492594,0.00447253011221
0.0259594094343823,0.0673789223168633,-0.00969949996384361,0.0058795987488991
0.0511223001674017,0.0740559201485141,-0.00657538269521371,0.0061140996969173
0.0559902503671409,0.0655097602508,-0.00599064186491117,0.00604090296473802
0.0478178607329964,0.0454163202612088,-0.00734609721704241,0.00518692678053254
0.0418156342374599,0.0435239448992706,-0.00719659261050792,0.00352466353635118
0.0337874917686687,0.0762765465806305,-0.00456576413244407,0.0020548515699103
0.0227691200980375,0.118694310432811,-0.00307715878884298,0.00113450344866918
0.0189657555513493,0.143318694797607,-0.00304469367485414,0.000468741145084352
0.0216714628351253,0.146312702392376,-0.00461711490837139,0.000214280958218988
0.0252868280680608,0.121318642416018,-0.0087077973642862,0.000515209034200579
0.0256704941336284,0.0617990789805641,-0.013559841864807,0.000679605653300503
0.0207463454276519,-0.00956190277068292,-0.0180757454918317,0.000370227531510438
0.0144560704531622,-0.0645201290491494,-0.0190037528203287,0.000425929495265787
0.0106836075783292,-0.0845909800746628,-0.0135066386110554,0.00109202508517973
0.019563977791371,-0.0552271984151195,-0.00504286937263712,0.00106588995887826
0.059612808806704,0.00131957281609275,0.00012283326067687,-0.000581386948091739
0.129623496514163,0.0398135237567967,-8.51544343277175e-05,-0.00240096130868924
0.184741259610942,0.0351951756659801,-0.00122166215952903,-0.00223282838734568
0.168871529977311,-0.00892074963334292,0.00144954720812578,-0.000303821338280313
0.0900901115912278,-0.0525601308300433,0.00631070436653892,0.00097921290994913
0.0147285923336938,-0.0557804005479086,0.00773711470910794,-0.000288328052953032
-0.0242390862286722,-0.0339181188258822,0.00117865423171983,-0.00383517776016372
-0.0534434741021642,-0.0293185554748671,-0.013472158280938,-0.00805866216897971
-0.0911443871722935,-0.050306304365536,-0.0255233400284528,-0.0110459055858257
-0.12761050244577,-0.0854792230481453,-0.0279595766920482,-0.0111212799253255
-0.155437876607287,-0.106562226567725,-0.0314240635730351,-0.00765274137890253
-0.165129044262245,-0.077567352315965,-0.0357363389997314,-0.000540095149010947
-0.145753940254044,-0.0393559202355537,-0.0267890612245086,0.00970322464392036
-0.110733585557002,-0.0451355601193303,-0.00856426773792238,0.0195493629395765
-0.0766755723590606,-0.0630354298910944,0.00560920939756458,0.0239822402102043
-0.0249105796719544,-0.0551099061166917,0.0102335488736735,0.022589752751858
0.0459284732850223,-0.0316751101324945,0.00627524098593355,0.0187791230846241
0.0952544909874952,-0.0118443102776957,-0.000717723622611599,0.0131199252052075
0.0995035819411776,0.00196119344097506,-0.00827983110832263,0.00437279422015598
0.0674764804295277,0.00397850923838394,-0.0172236413023684,-0.00542029582032397
0.027087903350092,-0.0226633976949755,-0.0261545340692604,-0.0129820001565869
0.00515868186715195,-0.0726579379209736,-0.0302469399277197,-0.016966720387241
-0.00272155224004402,-0.106920533952191,-0.0263521508208076,-0.0170544320031203
-0.00534476966245016,-0.097868998373397,-0.0197881645078512,-0.01342677004142
0.00573155421008574,-0.0691105689317185,-0.0175449131436852,-0.0079170393638121
0.0332450442774371,-0.0563847798473794,-0.0199702603299118,-0.0038624086338454
0.0598201236259946,-0.0548708168221612,-0.0216458197967769,-0.00308837254791706
0.0542177663983713,-0.0477714661205631,-0.0192250916664012,-0.00482161681257869
0.0205515437511168,-0.0450582256247665,-0.0171204518725165,-0.00750230964768103
-0.011492316104671,-0.0557088854699165,-0.017736355039054,-0.00931695234388881
-0.0397113709970995,-0.0665761817924718,-0.0179758027228549,-0.0078461265497213
-0.0630786336271829,-0.0638604525908919,-0.0164475131510689,-0.00165427764616249
-0.0645824237572927,-0.0487801600170859,-0.0152372782860768,0.00661575613548084
-0.0460451895931323,-0.0338962369241685,-0.0161194927261207,0.0112702318555302
-0.0317163967665344,-0.0271259047017859,-0.0179609512622701,0.0105437906564737
-0.0337126832110598,-0.0241616501333519,-0.0205459146827089,0.00924838635510985
-0.0373427175791916,-0.0208704043921646,-0.0239831902619384,0.0106563896249927
-0.031103532448447,-0.0153657863662273,-0.0257889364588574,0.0111767291945978
-0.0251838342705165,-0.0067626271803116,-0.0268891344775687,0.00712277736456628
-0.0187985845064821,-0.00235089360163224,-0.0303164601064054,0.000684889102206472
0.00389947454528011,-0.00457369094829154,-0.0331806317684099,-0.00447877406503868
0.0383140845440444,-0.00515686679759862,-0.033189361322053,-0.00812695719714101
0.0477176485236576,-0.0034888120079159,-0.0306885003863337,-0.0110549791059643
0.0117504973065025,-0.00576139394680727,-0.0266131347538211,-0.0124029945681054
-0.0204363395804945,-0.00721390931982477,-0.0230792529651426,-0.0108931715068312
-0.00192098962318495,0.00317407482676525,-0.0185371461757249,-0.00696488986358401
0.039258447506078,0.024204878040908,-0.0139127577213459,-0.00305337333748535
0.0544885249282086,0.0442704551387659,-0.013157056092988,-0.00117227696021712
0.0402399085659982,0.0547187727184442,-0.014334087041598,-0.000667145061994381
0.0271858247363802,0.0560650815541108,-0.0139634116872176,-2.44305533321238e-07
0.0267336699450185,0.0548760556278581,-0.0113519419050553,0.000979643916946187
0.0241763763810423,0.0540460154070986,-0.0064913148440844,0.00206862820134819
0.0136028633901673,0.0534898901864944,-0.0006345575355641,0.00345865908368909
0.00415702924734363,0.0519565194550432,0.00298277176978448,0.00487916461826024
-0.000994554259241793,0.0463820315804412,0.00230039659838778,0.00580174395809639
-0.00393841116682138,0.0389264496686545,0.000494934319570418,0.00602926529948367
-0.00459618493304563,0.0336993036995579,-5.71425290546643e-05,0.00512615795580479
-0.00938880125046464,0.0282998357383803,-0.00207696444687006,0.00268965838149181
-0.0191400693128473,0.018747817483328,-0.00550692074394681,-0.000505470149935795
-0.0175946533919174,0.00687852183149689,-0.0070498353912312,-0.00299304986799898
0.00335627825766496,-0.00309361583496541,-0.00634331755019283,-0.00416160527252203
0.0275787558368024,-0.00817094881287807,-0.00538452175586493,-0.0042275746810599
0.0363755272632848,-0.00832550019348054,-0.0044600444364232,-0.0030296174200178
0.0302227852716436,-0.00306883955028636,-0.000717291152556659,1.53478471447621e-05
0.0193519118213455,0.00956438769052104,0.0073267250622161,0.00451685883974623
0.00760609442935282,0.0245851947217353,0.0151351498503916,0.00852289937057095
0.00182112065704878,0.0363708123654359,0.0196665227973854,0.00999634867540966
0.00764901642896345,0.0475730098317282,0.0218576634170783,0.00925539682613584
0.0147993306253263,0.0582559681515139,0.0199244457459358,0.0086157453653932
0.0172230860028859,0.0639080217401762,0.0159753382988363,0.00843789727615167
0.0244227123785078,0.0680692496452905,0.0149962415185699,0.00678424830691205
0.0335657072363335,0.0735277787154718,0.0173201070220575,0.00304282234388146
0.0195478909619628,0.0696530120965634,0.0207725730138814,-0.00119739881679657
-0.0187706846039923,0.0411374894592265,0.0208306853473487,-0.0041394637107519
-0.0407655550283644,-0.00798974001445424,0.0158667052882673,-0.00556316686814475
-0.0266285221120401,-0.0353851095366736,0.0121210249794789,-0.00612004639265873
-0.00800362568068128,-0.0131040791228786,0.0165529221033511,-0.00557239330290524
-0.0119659381168709,0.0226085256928938,0.0273364636309849,-0.0030932514444604
-0.0289732309263466,0.0307600035148673,0.0369069800598666,0.00105255177699678
-0.0465999858314554,0.0101345728700874,0.0422518217347846,0.00498475905603721
-0.0582283258604557,-0.0122230029246936,0.0448790513261868,0.0068201957031522
-0.0461335069806691,-0.0163829570516686,0.0454278700998794,0.00610954375827796
-0.00928829010051507,-0.0123991908300898,0.0447423994051322,0.00385809248332678
0.0207377346541775,-0.00423934624772678,0.0447859776603356,0.00170265044268745
0.0213659042269012,0.00976713950765466,0.0434501210200064,0.00068881552390465
-0.000299121878682617,0.0278242809477958,0.0395709870810038,0.000808766403072216
-0.0206067501107772,0.0445224139808084,0.0363330124136702,0.00177819177014988
-0.020826683352654,0.034827012361817,0.0320081908610802,0.00359153685582203
-0.000381349838233305,0.00115404238732504,0.0250735474604387,0.00514665612914249
0.0279208673114845,-0.0111592496245897,0.0190009041564071,0.00434250071068486
0.0497923528780859,0.00601655419139686,0.0147009405294636,0.00085101664962714
0.0544657324034866,0.0131222133376391,0.0118400396189684,-0.00359291027308418
0.032624056585144,-0.00101492307946782,0.0134853823661715,-0.00713693831049245
-0.00149445579551594,-0.019110173869725,0.0185108901485776,-0.00875793203662367
-0.0204655369695304,-0.0394116764895046,0.0225289007308726,-0.00842484708358231
-0.0151876650327985,-0.0616888930035882,0.0256386618191215,-0.00668906898564196
0.0110545195051194,-0.0668204118436334,0.0262410899270832,-0.0041190934714169
0.0371023589542325,-0.044604482911392,0.0231184991053365,-0.00166021347896054
0.0360550057835503,-0.0134996797982734,0.019498559818154,-0.000236975413268899
0.0164966625688292,0.00622341627538106,0.0179010065067256,0.000373852314259421
0.00918747438393491,0.00944225924560459,0.0195402763385753,0.000802575006649534
0.0189425414966488,0.00185754221001963,0.0236619803948948,0.00100233080148823
0.0229671397975147,-0.00535448792572644,0.0267710209926739,0.000535207303299733
0.00743361225085045,-0.00824204467635242,0.0268544276452372,-0.000288636360934813
-0.0174730449288493,-0.0128129711022867,0.0229182969389653,-0.000731074325497236
-0.0322228684526293,-0.0177607319191044,0.0165437734478141,-0.00111326567030331
-0.0278641515965755,-0.00910332905306109,0.0123045394872827,-0.00186954221330479
-0.0126065866869917,0.0152745974142412,0.0108953349430809,-0.00238404751591543
0.00167911996059275,0.0367242409579277,0.00954379433728541,-0.00236349340913463
0.00926030283639376,0.0394789942420527,0.00696267914890283,-0.00280024759088564
0.0124830173888098,0.0213224282010754,0.00593437830758401,-0.00432320157316689
0.01680737361498,-0.00437109733942828,0.00680176116984575,-0.0058541410834094
0.0240330577658291,-0.0138588716249012,0.00681314845130624,-0.00604109435483568
0.0331943197983446,-0.00587479570742115,0.00631253004689876,-0.00493982676316206
0.0373423461538135,-0.000896715625756633,0.00553970689052392,-0.00382718499256955
0.0283479165302117,-0.000760706372768379,0.00498249907964683,-0.00373000099537978
0.0116590197275562,0.00338176822355937,0.00620372886540831,-0.0040620055143695
-0.00401005596359265,0.00380082645453751,0.00701292604026597,-0.00351920523688664
-0.0205751940261125,-0.0148160126107913,0.0057115899632309,-0.00199904552452761
-0.0298300072281562,-0.0480939917858588,0.00541689651407528,-0.000456904817903894
-0.00939142919212883,-0.0619939634972475,0.00747280472369185,0.000318642207170838
0.0360500961173201,-0.0417511475538899,0.0086899955754662,0.000181501098337836
0.0673169041040035,-0.0227486740514044,0.00686454172892373,-0.000331256174388885
0.0678229736113494,-0.0329236322033929,0.00433649441881256,-0.000693493609456797
0.0479677966955532,-0.0523474571023857,0.0031336797508518,-0.000989899764961766
0.0144122597270711,-0.0491438360931279,0.00249282426590696,-0.00106041192485934
-0.00603154098160349,-0.0161191501854868,0.000680928643596691,-0.000519632387483172
0.012882851351128,0.0241335673594594,-0.00194869839070391,9.31519306954764e-05
0.0523434592810216,0.0480713266005822,-0.000256404449350612,-0.000617013483939413
0.0765472929844599,0.0616197240352056,0.00266991762345116,-0.00292751340955568
0.0641672399853534,0.078406893998734,-0.0048675013907908,-0.00510518149122266
0.0140811353189445,0.102686642871747,-0.0164449073492204,-0.0056158299136707
-0.0443594794298233,0.133685718772165,-0.0135115576517123,-0.00409863827628518
-0.0738071384404677,0.148163441073537,0.000860785076250726,-0.000847268468344686
-0.0697280682294447,0.118665800136557,0.010107859738942,0.00249410897107131
-0.0490094241073471,0.0652835817526187,0.0118970766009671,0.00392608297336928
-0.0214205633876403,0.0348386479562451,0.0109895312084153,0.00342656960544622
0.0130430149780491,0.0316566342891573,0.00827018783523077,0.00224282752050174
0.0488130220545999,0.021875494776929,0.00580148861854414,0.00179292837041433
0.0688272813816657,-0.00888868233937797,0.00452591994141936,0.00336937468026184
0.0670086646577441,-0.0590073485205942,0.00204983247335584,0.00683535109490468
0.0534157917583566,-0.121676960092006,-0.00226133253973523,0.0105013484325622
0.0364966976009584,-0.153170910236069,-0.00486744012557799,0.0124357114337312
0.015532761680756,-0.108920946253389,-0.00354546453299243,0.0118819235678162
-0.0124325092469159,-0.0215971983195234,-0.002143985228208,0.00879886431273914
-0.0368908828092822,0.0330857748776824,-0.00259669084766642,0.00235052952561466
-0.0388565973924804,0.0438235409885394,-0.0015922447313767,-0.0074517041882575
-0.024664454449248,0.0519845129730757,0.00096436318946426,-0.0175317743249299
-0.0242913706160764,0.0586940186326336,0.00128551400934099,-0.0235126255567625
-0.0414009938320429,0.0403766515347002,-0.00233290209952984,-0.0221465633872934
-0.0512707664087512,-0.00594057454874502,-0.00498052445278298,-0.0130373079328497
-0.0440870387995716,-0.0559867157250341,-0.00280816880598168,0.000348509801033101
-0.0281812999691298,-0.0643485623495453,-0.000170787350248437,0.0126627187581657
-0.0138915033833096,-0.0274694160300802,-0.00246038671372122,0.020219469729247
-0.000399930834731929,0.0191845645890841,-0.00885186321756497,0.0220584621419108
0.0139597092361311,0.0559757152391339,-0.0118770184445847,0.0179485187511576
0.0117412323201414,0.0717936655797479,-0.00795236576614409,0.00883822939208611
-0.0114527305108379,0.063221927685669,-0.00330094278738301,-0.00113113576698845
-0.0314179000958542,0.0466472809958929,-0.00545028176827858,-0.00683398311338893
-0.0360317695940258,0.028232590080056,-0.0137626293523996,-0.00681573971079868
-0.0453470177442226,-0.00700756912378112,-0.0214016551457543,-0.00411587231109844
-0.0658941280248801,-0.0610068788139521,-0.0263288194130552,-0.00162203579074233
-0.0657557141205081,-0.100396927007798,-0.028939371560599,0.00103561842236427
-0.0418191091854042,-0.084245106595111,-0.0263398153052945,0.00513601435137509
-0.020626428445742,-0.0340191393074835,-0.0199573076357173,0.00865746687751661
-0.00400819196378568,-0.0102810110224381,-0.0155565841949422,0.00705605323104481
0.00921853921095259,-0.0238505837923483,-0.0148151526679887,0.000364668644269766
0.0201702685682737,-0.033443472492772,-0.0133268106452154,-0.0062214654585237
0.0293085140998251,-0.011955773252627,-0.00793774276013653,-0.0092824659390843
0.0181996080547733,0.0169590470690132,-0.000854407942849029,-0.00835037148666009
-0.0107914374839884,0.0238695622019259,0.0041396670266352,-0.00322567010289861
-0.0277158497293466,0.0104383215500742,0.003513301022801,0.00444639044450424
-0.0260417872369569,-0.00980641357202243,-0.00114078555387678,0.0102194255421206
-0.0198142460788817,-0.0247442598990141,-0.00513875248587872,0.0108812207492577
-0.0121606917841771,-0.0257427197598486,-0.00855508033550845,0.00660035237938037
-0.000983105723487806,-0.0110592125151647,-0.0113882090438033,-0.000257369851684598
0.0129190934422907,0.00670472836420102,-0.01289043954487,-0.00599639711009461
0.0180740887186691,0.000269664366182277,-0.0163200235744632,-0.00768811012374038
-0.00578711406365467,-0.0386223388658042,-0.0234728970480309,-0.00558637580574843
-0.0511775368909124,-0.0706084265271916,-0.0283114398451905,-0.00251743700077115
-0.0907328368486842,-0.0604947184419067,-0.0258165407804741,-0.00128246970434044
-0.106285499193927,-0.0320643618443616,-0.0222176959557269,-0.00269815015742668
-0.0875491343249155,-0.0191461516480149,-0.021734397546938,-0.00506686395223264
-0.0506911391557903,-0.0195726445361803,-0.0189613047582453,-0.00600164532863691
-0.0248708710344897,-0.0184105180999769,-0.0121706730245287,-0.00531696001239783
-0.0195147032713969,-0.0103398177251355,-0.00512924823561915,-0.00417659543879629
-0.03008647664446,-0.00200414946512361,-0.00113561196748593,-0.00217580168391444
-0.0303459370820235,0.00296257533728301,-0.00185433256658824,0.00133593704840206
-0.00475306266356786,0.00805770999787092,-0.00525941583742951,0.00470634868893151
0.02156276907228,0.0164802615852511,-0.00819344150744635,0.00504078748654527
0.0351957336454822,0.028907514759586,-0.00754262572506662,0.00179168074871959
0.0376012717409709,0.0324445712916579,-0.00367348518100122,-0.00137483050116706
0.0256930522163073,0.0176158267500712,-0.00328998384606352,-0.00106597860879323
0.0204599171666985,-0.00180227613772287,-0.00671625642185027,0.0014716987011654
0.0444352952516621,-0.0111963651334175,-0.00754497981481812,0.00357790765313335
0.0765508749610166,-0.00888120475759783,-0.00543814772125096,0.00471904457286013
0.0878358932642073,0.000290479279676977,-0.00315301881869985,0.00547232377228574
0.0738421837166179,0.00173793357498441,-0.000739560735451719,0.00628154729675681
0.0401017065599163,-0.0157173632191911,0.00146446011218856,0.00652474016185482
0.00661450997418964,-0.0398398930289993,0.00197526566138027,0.00454271339135956
-0.00661501075026646,-0.0521050859561128,0.000920814884656521,2.16855616412912e-05
-0.00552606585878744,-0.0404278043015624,-0.0015506626338126,-0.0052263319714969
-0.00495993150457231,-0.00188419255377978,-0.00662293871058132,-0.00988931393811665
-0.0130917102709258,0.0318510230012854,-0.0117799428610752,-0.0138249698312074
-0.0303453890824605,0.0345076424888145,-0.0117692935351879,-0.0159207241230545
-0.0562144757700828,0.0270357134779286,-0.00685372177768033,-0.0147787342641475
-0.0841593058546635,0.0186081093156781,0.000220688835304056,-0.0102384572348927
-0.0884863868082618,-0.00455940032539509,0.00943437695021361,-0.00290653828763045
-0.0727042703108062,-0.0323954811638503,0.0160544085086565,0.00582781208808831
-0.0578010734826405,-0.0359921788154524,0.0166695760810776,0.0138089908733046
-0.0343789701772876,-0.0103532131507409,0.0173032656840049,0.0189324319226217
-0.0039827904595986,0.0214210518233637,0.0200327467722409,0.0203882439098746
0.0190543988349779,0.0333644110281473,0.0199072571630072,0.0187322778463015
0.0343578197332774,0.0140787813293821,0.0136313820886714,0.0142846929044768
0.0472748747234726,-0.0183126321192661,0.00263249867069203,0.00718705101727812
0.0481897652462596,-0.0456036726581464,-0.00820718827649774,-0.00119890551139037
0.0273925946952167,-0.0555307662286205,-0.0131907596306749,-0.0083456932484356
0.0112366086483948,-0.0243912806951421,-0.0103764115473538,-0.0118992860355573
0.0115097173990762,0.0187553690463436,-0.00444425893402072,-0.0109890404747021
0.00685397725456374,0.0068886240299668,-0.0027643507728847,-0.00700699766057996
0.00200669644248959,-0.0451023013690166,-0.00744326150510379,-0.00290617459802628
0.0112682174441848,-0.0648380246673623,-0.00970942634790899,-0.000618811422150113
0.0174439969803189,-0.0366092601951745,-0.00342602934974548,0.000531217697952413
0.00631248924361059,-0.00433546690204842,0.00406333418614496,0.00209651939717701
-0.00265572751940852,0.000391812855579696,0.00685101725416264,0.00408885296317952
0.00118022333770073,-0.0161141324512647,0.0048849924103771,0.00512804337499083
0.00194173316597196,-0.0247745564539087,-0.00376906650257465,0.00412862412468809
-0.0104659059874592,-0.00617844833339996,-0.0141650184907698,0.00116972353795569
-0.020065335958472,0.0286517879426081,-0.0158697073533369,-0.00213304356579055
-0.0111534995874034,0.0576068212496682,-0.0109137303107644,-0.00337489708180965
-0.00388733882864124,0.0632317231062604,-0.00741144189579077,-0.00188974282293928
-0.0112529214432645,0.0443609519495276,-0.00486691088980441,0.000722551174106648
-0.0091137701556335,0.0175464748358042,-0.00329686043979552,0.00262009621656977
0.0107615498689486,-0.00571962084294021,-0.00590303678065824,0.00288992026592194
0.0244640901603071,-0.0219819385895579,-0.0106696199000147,0.0016052274852097
0.0236165890507823,-0.0223441818454827,-0.0139629418199153,-0.000207275976670524
0.0216297746494118,-0.00935147257450956,-0.0135569319072864,-0.00134123199268656
0.0213242992366094,0.00384338576990361,-0.0113781935371436,-0.00104136799655492
0.0132602278263605,0.0146737661641188,-0.0111921352504061,0.000684011737941949
-0.000663269794868852,0.0156013262336539,-0.0126155611406208,0.00272157986628948
-0.00867794943194954,-0.00199451364182964,-0.016100302683629,0.00335311224051058
-0.00491326163536515,-0.0218417492504688,-0.020825082900431,0.00158682341417963
0.00659324266435416,-0.0205074482170626,-0.0212267042958982,-0.00146142325589983
0.0112366605520886,-0.00157172895008611,-0.0190344574120185,-0.00387284243076398
0.0079661252249453,0.00940637337971503,-0.0235921618799387,-0.00504491671688527
0.00646129138662719,0.00540444893063075,-0.0329185291671703,-0.00572184003123611
0.000679959356561641,0.00340570767040198,-0.037131229917507,-0.00660885694360556
-0.00819771157620632,0.00841698731385813,-0.0359218137118157,-0.00718534776669188
-0.00365613497599111,0.0168424101145449,-0.0325237911750601,-0.00667958193858383
0.0170819184501374,0.028657602344687,-0.0263205755442625,-0.00537937860853067
0.0386736753404108,0.0371712620441585,-0.0209530402426441,-0.00432110750616162
0.0437045756136503,0.0389607983662725,-0.0192760907558106,-0.00355054511463362
0.0302746019548124,0.037368149322521,-0.0178565467108795,-0.00165242840184469
0.0173370886782413,0.0343580146716915,-0.0152407496471207,0.00168127446335697
0.0179002820728117,0.0288065667761105,-0.0114510912566367,0.00474417220405021
0.0213213693447053,0.0209926887382953,-0.00658398696951237,0.00635589215764309
0.0217341046328724,0.0144913854205365,-0.00164481761031056,0.00694770880260675
0.0315520334522267,0.00960679073220392,0.00214547511683334,0.00734049320240727
0.0485815521461327,0.00666165778092392,0.00476271741567469,0.00773650625618605
0.0512490971610677,0.00514544944105941,0.00634776920213177,0.00699833134251242
0.0281067654066948,0.00133808127542673,0.0057899513916691,0.00368622527050612
-0.00639590423795776,-0.000430682386019173,0.00303855298354335,-0.00121278003922776
-0.0266014176536645,0.00508672298523563,-0.000596781314398873,-0.00483414026269882
-0.0260578006546366,0.0104243234327631,-0.0022223990737727,-0.00600154733462098
-0.0104298708013104,0.00794608199451068,-0.000827209181768915,-0.00541559081207597
0.0169169112747645,0.00892071921573145,0.0019684910090781,-0.00363135171066649
0.0487670349937967,0.0242427435239597,0.00462760985486204,-0.00165005350532796
0.0649994313497852,0.0392515684153916,0.00775809856947473,-0.00113165322495986
0.0428017923031117,0.0405160423701611,0.0136989574024092,-0.00262646341581632
-0.0170544854566269,0.0319477770713455,0.0191579457182735,-0.00472681464392066
-0.0828946892620609,0.0291847181657311,0.0206695266961782,-0.00517279200961668
-0.11133755948994,0.0447258305772704,0.018546520154566,-0.00281409432209278
-0.0904341388063457,0.0635751336237789,0.0126021823899478,0.00115192274075352
-0.051599959833191,0.0617643933389291,0.00933542300755819,0.00421711720996869
-0.0316094027693719,0.0334492170778816,0.0134024138737471,0.00532749524971289
-0.0324810932843886,-0.0199295679526986,0.0200606364475509,0.00551780932668867
-0.0300292310042736,-0.0873760564747191,0.0271145628927656,0.00589532850228857
-0.0152236401794598,-0.121706281701287,0.0338112785640911,0.00616099627653153
0.00459246650579863,-0.091468206620463,0.0363701096713555,0.00561807351694779
0.0329804586085627,-0.0338089702860993,0.0356549659234095,0.00463592014093289
0.071297247497077,0.011251383599114,0.0371242337229727,0.00376408372199698
0.102249726963822,0.0395151791022238,0.0395639626728367,0.00255817252271815
0.10929977194481,0.0482314962590099,0.0372960213150013,0.000356515398188396
0.0847487972254022,0.0273143751679164,0.0307559747225771,-0.00242322544272851
0.0404141431350068,-0.00593177784278645,0.0265139831288824,-0.0042426687003664
0.000336429184010847,-0.0135043874536899,0.027752983938233,-0.0041590654503531
-0.0318851867082216,0.00313076071992181,0.0302219527006471,-0.00299360325509904
-0.0578337181926922,0.0206130798699473,0.0323977640081666,-0.00211604219263712
-0.0647983432967223,0.0368777886236792,0.0366558041435393,-0.00190119726514101
-0.0530297304439397,0.0499632116590558,0.0390641661887821,-0.00163953987495807
-0.0378007044367891,0.0509759492242501,0.0353205078355006,-0.000868073230196316
-0.0297862138976253,0.0382664750275125,0.0286842442269842,-0.000439332420846694
-0.036035120041104,0.01887706330319,0.0230353311221672,-0.000957500868638538
-0.0512844372901672,0.00489859601142779,0.0206686239020864,-0.000907459656367095
-0.0593320966091723,-0.00098033280669918,0.0196742831132868,0.0016957449541679
-0.0575448132486267,-0.00658427459996453,0.0159024411691189,0.00578561974702672
-0.0540716542737,-0.0184533553095459,0.0126908689329112,0.00691166546905866
-0.0491010491669238,-0.0405195293905618,0.0134234968900255,0.00282368583783598
-0.0351783737273115,-0.0646289617559404,0.0145889382621027,-0.00248847833675889
-0.0129201138450231,-0.0759467729082332,0.0138975027426649,-0.00349092935637995
0.00198187786344459,-0.0747187133257931,0.0148834872296597,0.000296878057487659
0.00328090149746309,-0.0694809866891166,0.0184323935063488,0.00429457363173114
-0.0023449880578023,-0.0608662040525285,0.0195283990381071,0.0042436404966492
-0.00960416795788978,-0.0474617224232806,0.0157569051028945,-0.000248642941900195
-0.00862398242918619,-0.0353847519985356,0.00947401190510847,-0.00614956977588439
-0.000614857320306451,-0.0299181154968938,0.00620554611186334,-0.00951056358833935
0.00495126928143927,-0.0290520243127691,0.00554693734196313,-0.00935342274828293
0.00904172888967224,-0.0248563997905132,0.00334819229961982,-0.0077470902196858
0.0105954020432252,-0.013890451417986,0.00332109522463477,-0.00520983736997534
0.0139615080782229,-0.00381441925838483,0.00569504522032513,-0.000120730995935368
0.0331947838091071,0.000488722692655076,0.00484587019776252,0.00654213612669856
0.0679076639048075,-0.00039439939999672,-0.000627478440478019,0.0108395712532273
0.100122276645882,-0.00257306850355987,-0.0054762476263118,0.0104825781407602
0.113555590876374,-0.00316179581036943,-0.00588928461519514,0.00641554089299421
0.098485739122498,-0.00549316781537558,-0.00553784515953205,0.000988075839890582
0.0589642131512358,-0.00753427030691562,-0.00583688831093403,-0.0034318268659948
0.0211991854025598,-0.00358414506741787,-0.00752975405243031,-0.00482479514752264
0.00408648443005871,0.00428171176692348,-0.0100430018397406,-0.00298939315461324
-0.00188214079249374,0.000837812553730076,-0.0119097088162961,-0.0004026789309171
-0.0139117339058836,-0.0261129579929379,-0.0181839697294654,-0.000110066589410434
-0.0364260699734071,-0.0516701521786322,-0.0234239591603674,-0.00312834227455719
-0.0532853826345129,-0.041544010974655,-0.0167002323362343,-0.00742872326112186
-0.0524501503505561,-0.00860348907886192,-0.00540949515115566,-0.00937084725909096
-0.0493751349405223,0.0157387278416957,-9.78303593327547e-05,-0.00691497963959809
-0.039821440359651,0.0288833419862828,0.000755847981147814,-0.00108194871792922
-0.0124665553870042,0.0400511677520768,0.00288888204810783,0.00556210141078509
-0.00358569815152952,0.0407924384657827,0.00548027798402154,0.0108657501531104
-0.0257740961348818,0.0185961375761687,0.00487272805391308,0.0131881733209026
-0.0321824087714571,-0.00929962201218396,0.00373668513176269,0.0104494386456562
-0.0158339015291308,-0.0226502938887728,0.0029227307316382,0.00229898207498209
-0.00959525587849656,-0.0285390893045052,0.000346251085357536,-0.00749681893554301
-0.00817963779225461,-0.0283425590912514,-0.00296674648268812,-0.0142480978927271
0.00652275345173521,-0.0122919463145862,-0.00356643259922385,-0.015591486373709
0.0394293720824599,0.0166945215942417,-0.000627937587853438,-0.0107562538983282
0.0835546855877489,0.0497296841315774,0.00361413812254498,-0.000903159445667835
0.117852306559308,0.0791577237972646,0.0064095806772757,0.00886250238006815
0.125159914220725,0.083419364822464,0.00424450949758464,0.0125660735406435
0.103333703827979,0.0460082595480719,-0.00278906072263413,0.00941233233919302
0.0827211784794935,-0.00571540590964277,-0.0102311643439457,0.00332406489613904
0.0841346609124777,-0.0290438310989206,-0.014492460811266,-0.00207122698648366
0.0749592773820777,-0.0168473063667368,-0.01664184322091,-0.00552974483265541
0.0430704866693062,0.0118919060556981,-0.0170036352100234,-0.0069972557595666
0.0152520286268322,0.0447249406719385,-0.0126286338022106,-0.0064701515886289
-0.00367448907496819,0.0627486749043328,-0.00681724838235043,-0.00436358041512819
-0.0335349911796009,0.0416311688630644,-0.00663763957894767,-0.0016772882648978
-0.0763634026398085,0.00340753705129096,-0.0107456429019343,0.00107555840613275
-0.100325433195778,0.00716152309210627,-0.015865891944235,0.00325974248346449
-0.0875215876251658,0.0549523719066612,-0.0195988238068631,0.00323573532344689
-0.0592737974359424,0.0857469347253829,-0.0157224836433637,0.00107555176218383
-0.0432768463742883,0.0715815175308751,-0.00759730681136131,-0.000669163686963437
-0.0367218891546673,0.0343866645227487,-0.00668805535953983,-0.00126613342680677
-0.0179687760991176,0.00817830787645824,-0.010564527772067,-0.00217740859290971
0.0104031182557602,0.0138495953026976,-0.00944895186041105,-0.00307666479505888
0.0261799753351884,0.0420200301418621,-0.00591267443905152,-0.0025203417609101
0.0256035137232081,0.0743771819415635,-0.00620143156282506,-0.000310847776533986
0.0264439329313086,0.0861803922042152,-0.00874357971066897,0.00285913290755681
0.039644032108118,0.0406430546376471,-0.0120783468347545,0.00503140890040799
0.0596170287577546,-0.0441806347724833,-0.0148289580818122,0.00317116796960838
0.0660038997224885,-0.106338896968266,-0.0111159214943338,-0.00344956228880996
0.0360375309936873,-0.138323050038364,-0.0036049446304575,-0.0108518489356271
-0.0215386296256688,-0.155566296206219,-0.00212900207207805,-0.01358026756576
-0.0702794357477449,-0.141539849002284,-0.00627650573287325,-0.0100261513541039
-0.0895265377290786,-0.099033055596811,-0.00782445418580783,-0.00218483916476669
-0.0899511367671058,-0.0738867623957585,-0.00836144953705085,0.00755243342205457
-0.0858173640105116,-0.0846740263971177,-0.0164800352905876,0.0162244863409718
-0.0720840237600094,-0.0823016553101355,-0.0294708582859463,0.0202071153168442
-0.0409963664439182,-0.0249110358840084,-0.0380356874849314,0.0178272500594908
-0.00254125605572389,0.0526328586274475,-0.0398506521810108,0.0107017103389352
0.0224091051507761,0.0933860575153277,-0.0384186964854078,0.00208590357730875
0.0255003222297621,0.0903002214850755,-0.036014064611385,-0.00501729862253478
0.0192976562713592,0.0627155780242502,-0.0313242438067838,-0.00887121703714135
0.0226003297908457,0.026615652987746,-0.0241087997916826,-0.00983333340907234
0.0308276739039262,-0.0112785638300229,-0.0164339079074773,-0.00965678905004001
0.0206515986756291,-0.0476384390966053,-0.00879432435831841,-0.00910226072510561
0.000147194064541439,-0.0691046259782793,-0.00127139487186436,-0.00716921747326396
-0.00550590728531229,-0.0674997386537683,0.00194904879422428,-0.00363703434007196
0.00149349937938509,-0.0545174473077923,-0.00117847930278256,-0.000237754482403598
0.00397207486073696,-0.0571096414643484,-0.00573205051960576,0.00153561649562185
-0.0097416039097589,-0.0832104119495329,-0.00965601746910685,0.00184650084115671
-0.032575790742881,-0.0871543308341035,-0.0142725869784828,0.00208241507118441
-0.0416611887139124,-0.0329126754348293,-0.0202714326395006,0.00325014864668874
-0.0232584886667348,0.0423371902808863,-0.0267460160821872,0.004997249628624
0.0088065127032153,0.0918448452303851,-0.0296756485277949,0.00648811833150196
0.0228276798715154,0.101860603771503,-0.0267250747124558,0.00748445395576484
0.0182999300511948,0.0761979136790972,-0.0182476874058676,0.00805316178224383
0.0247122316681599,0.0348019034739148,-0.00731664999555396,0.00801488060929273
0.0377903831288328,-0.00809664942153024,0.000148940602908529,0.00734352081320596
0.028572433899669,-0.0547203327527779,0.00103795205780048,0.00589594998323786
0.00465019217425611,-0.0895901337401565,-0.0024476342254714,0.00312051325885397
-0.00856571155849971,-0.0829364200168824,-0.00490481229919237,-0.000607366080112371
-0.0176308357268241,-0.0479539072245277,-0.00477342730283724,-0.00351638929324022
-0.0452475642168575,-0.0226801889963761,-0.00521950419178853,-0.00486029536747736
-0.0941293382420009,-0.00878501337378777,-0.00460928078006265,-0.00526562295825201
-0.134185046782166,0.00557727762265711,-0.000976562587743693,-0.00448549851785304
-0.139405204272988,0.0181562045362726,0.000849544391219219,-0.00210643657781006
-0.116195622055979,0.0263466411415464,-0.00128757539592447,0.000607402756457541
-0.080727432502806,0.0214318828466058,-0.00347743611223658,0.00183254335890322
-0.0547601651134302,0.000172603582409659,-0.00491023293781157,0.0015623077918113
-0.0465927293285913,-0.0137342404844398,-0.00704554384491054,0.00116087277127244
-0.0233623432272179,-0.00647484153436124,-0.00749329917527922,0.00110060325054283
0.033263482272462,0.00694351592952111,-0.00636408700534398,0.000885601705762361
0.0829665850983289,0.0155229236597631,-0.00610070202489325,0.000380466384977093
0.0900397261155204,0.0240421285667726,-0.00445033732353617,0.000116813178212034
0.0767139143417609,0.0365462773066999,-0.000199263013874178,0.000735854086925859
