-0.00483901740620998,0.0219461762574919,-0.0414083439392501,0.000874282309757089
0.00431850936366541,0.0329733798123067,-0.0282489142451897,-0.00629441817823682
0.00827536775824571,0.0330956002599661,-0.00872194015956285,-0.0112338133430985
0.0078164372293081,0.0323920700371457,0.00580729244581423,-0.0141662584992603
0.0066437696156747,0.0296934776876185,0.00845639940788179,-0.0196624587969506
0.0105381069007702,0.016125964562367,0.000382149177634288,-0.0259189438760832
0.0193776830835278,-0.00144362306335707,-0.00802369390254142,-0.023159656916218
0.018422241500931,-0.0109569396534646,-0.0172290634715484,-0.00815007261208436
0.00361490917516048,-0.0153493446400724,-0.0326299581441231,0.00980866683826689
-0.00886372050252879,-0.0165704724014488,-0.0350632852580816,0.019815847521267
-0.0117197191604323,-0.0127430903976076,-0.0129760963817704,0.0180943786545609
-0.00892595193048917,-0.0131462125926899,0.00671687731685555,0.00742041418322706
-0.00196409517634654,-0.0260432913781481,0.00128718027013833,-0.00495175139611412
0.00298597772472879,-0.0372848696441736,-0.0167179336089099,-0.0114539114800567
-0.002915865037352,-0.0277034150679421,-0.0181345990315645,-0.0099317531355405
-0.0160332854804179,-0.00577718478988275,-0.00151286942764797,-0.00412748257246825
-0.0265724419713304,0.0104807948495416,0.0126057967279283,0.000505162047307325
-0.0295300150103351,0.0188983728560494,0.0157926317209912,0.000869133270948718
-0.0255573157582697,0.021988336027798,0.00390234405277341,-0.00118179867549066
-0.0216661433374037,0.0199450820040142,-0.0218258735885979,-0.00138382513459406
-0.0197796675724476,0.0170591303224209,-0.037817631116518,0.00126017505735798
-0.0156343528479511,0.0174907325947128,-0.0216570546400653,0.00367417183387253
-0.0111733409534615,0.0220265124991853,0.0126503037539666,0.0026714948232519
-0.00244955067696426,0.0252281592598675,0.037778327743686,-0.00167725712365449
0.01520845845216,0.0169494503490351,0.0452266195079735,-0.00682581427871041
0.0313358685471074,0.00255772664227839,0.040038697778094,-0.0102244054920583
0.0364533997419303,-0.00884128725486107,0.025845648012812,-0.0101895999091523
0.0310121939162528,-0.0161763356350932,0.00484093624818323,-0.00647344430342458
0.0180335525884797,-0.015640921015577,-0.0116553748688881,-0.000524468661474947
0.00239473654242957,-0.0107838042318425,-0.0156078305093807,0.00558430236521444
-0.00468324954672079,-0.00747682004732234,-0.0146542642189385,0.0100940369124376
0.00415600811845177,-0.00783417081423913,-0.015237882872334,0.01080442791836
0.0209957701115094,-0.0109036294078364,-0.0135887857291464,0.0054936065748022
0.0332620287523181,-0.0107925458367064,-0.00960578275364716,-0.00395101601294862
0.0351294453034901,-0.00772833384079522,-0.0100342505179289,-0.0116360861500199
0.0270774172839767,-0.00138428343978943,-0.0130158477006853,-0.0142183807210471
0.00742526483248962,0.0121912448954859,-0.00796335342468096,-0.0130478557713588
-0.0245129523892237,0.0224586514184425,0.00306966432908533,-0.0104026304273977
-0.0549056581722788,0.0203670205074257,0.00960597305517864,-0.00674785736431524
-0.0726829321532819,0.0161227041340853,0.0127474833301674,-0.00219147769332462
-0.0775982760124716,0.0158577580289091,0.018227005669946,0.00154575879425037
-0.0729936189232144,0.0118944443463424,0.0214571566167772,0.00242138079800434
-0.0690245503506716,0.00209231204405155,0.0193650779666739,0.000257247476527433
-0.0628218528592465,0.00415585616005112,0.0295416346112269,-0.002438723516414
-0.0430776358001468,0.0195661706738729,0.0473602262064819,-0.00219494547316016
-0.011357690324156,0.0213706655864871,0.0417503433815131,0.00244019270456442
0.0245007594736706,0.00873965782337506,0.0234306778252608,0.00948754312665507
0.0525145539821353,-0.0027576101364418,0.0141490091817384,0.0152577105939003
0.0613438837703338,-0.0104959232642615,0.0107282308109981,0.0174874741960891
0.0572931088500853,-0.0118300208024401,0.012535140416351,0.0157292172073672
0.0576017533536117,-0.00797528169804006,0.0167618845379194,0.0103892824208921
0.0555473277351576,-0.00635768907658046,0.0146378903976115,0.00320259274449298
0.0318332388811594,-0.00758539716820895,-0.0020730017439314,-0.00280826541329719
-0.00193067089300848,-0.00425309435737019,-0.0302882063472153,-0.005632175249515
-0.0200855368505603,0.00304355929025363,-0.0469827881869785,-0.00561204805629506
-0.0218422960605743,0.00327739520818031,-0.0413713512140779,-0.00346125218094536
-0.0231845809136689,-0.00460144013935199,-0.0258314986076733,0.000395769472161557
-0.0276053137920888,-0.00726905550061772,-0.00861274550587901,0.00461160904115238
-0.0286634149456499,-0.000261623733583866,0.00587754529409591,0.00730355062054221
-0.0291997949973352,0.00654611840661981,0.0128602529186042,0.00749525912803912
-0.028887774831359,0.00688155807944371,0.0144843032565739,0.00599147500282545
-0.0178000649498993,0.00524181685275792,0.0137867737989008,0.00459867199923055
-0.00101330719508042,0.00472642107493961,0.0115594667740139,0.0046280153485504
0.00803827477868974,0.00338280082247918,0.00770550376610904,0.00574489574950053
0.00940457871679942,0.0035412111289429,0.00368907898321009,0.00630733829195407
0.0087573515976887,0.00775201765941843,0.00439283571359672,0.00502749590789783
0.00645529546061893,0.0138490142167708,0.00878817652508481,0.00213270084987614
0.00175165038072461,0.0195119176192564,0.0137527059657787,-0.00179261631343776
0.002800216867959,0.0228140773227322,0.0160129163005552,-0.00804860526127144
0.0137008312956309,0.0210198595235229,0.0126712290436746,-0.0158325110353943
0.0242309888791455,0.0168545876475177,0.00914430817981799,-0.0186939513365623
0.0249546927935691,0.0136821015029732,0.00932090382193877,-0.0126648573388897
0.0129225840909467,0.0108884676241828,0.00721409117916325,-0.00298518190709519
0.000369741170388226,0.00520716194055725,-0.00183591115407027,0.00146820099745119
0.00731269736242973,-0.00897019199607128,-0.0100720657607163,-0.00209816513455192
0.0293769481527118,-0.0262907208843897,-0.0116103650509345,-0.00709319165284879
0.0447528902933214,-0.039383937266549,-0.0221159995985745,-0.00518704919083622
0.0421936614097402,-0.0428226229707678,-0.0409920723666419,0.00444764876284517
0.0282943033138602,-0.0300994934729225,-0.0408952581025563,0.0156255033734832
0.0243765831529727,-0.0140610397264889,-0.023150487705425,0.02172060838288
0.0377761122992986,-0.0117352201610802,-0.0117158825199825,0.0203118857715372
0.0526981300746399,-0.0158566097304826,-0.0143950394578709,0.0138498775266038
0.0578556270777419,-0.0047188829224722,-0.0146398352115421,0.00673183778470525
0.04820928070335,0.0174431725303073,-0.00358365752283501,0.000784474976499808
0.0284466358215192,0.0239614266755051,0.00344895775093979,-0.00470144191465842
0.00729560461594739,0.0139609034569251,0.00216773794155493,-0.00937745862958815
-0.0156097111111138,0.00247813727563489,0.00358287839896783,-0.0119458369142613
-0.0294369718705569,-0.00395812976617277,0.0110172707410481,-0.0124168558948445
-0.0222962118355023,-0.00179378564785444,0.0222955785935905,-0.0122258772536018
-0.00536460128421908,0.00647792414748095,0.0372079898204135,-0.012563164656902
0.0115934108394381,0.0102497443668166,0.0408113491641136,-0.0135308816573053
0.0296523111963815,0.00023951839523842,0.0123824800386555,-0.0139927646375099
0.0396774616692174,-0.017837707579535,-0.0307445236157786,-0.0117665692089198
0.0305696764657546,-0.0268452263715772,-0.0487909829931317,-0.00639374385766624
0.00698281767485763,-0.0231153644003135,-0.0358584403153757,-0.000406665262037613
-0.0155233315619601,-0.0181358638166582,-0.016976235490903,0.0042469830154679
-0.0329586235294002,-0.0185391575065536,-0.00542385827430667,0.00793987868937848
-0.0550603755077,-0.0179314981800458,0.0065069668174642,0.0102402096871727
-0.0761908794202989,-0.0120545020373815,0.0212172318279438,0.00849807322181769
-0.0751344562988716,-0.00907452868876017,0.0271378261826958,0.00203892053780461
-0.0485904400274426,-0.00831700529007917,0.0230778988351509,-0.0052861876159364
-0.0173178147055762,-0.00031371154664426,0.0254236855464419,-0.0091463085471586
0.00873608274292463,0.00827207959771467,0.0404281111129939,-0.00843029093681542
0.029863165813218,0.00716520167767454,0.0538557787407748,-0.00430988370982193
0.0298609467076104,0.00375282300590138,0.0552124193224485,0.00200202088931112
0.00846634267806476,0.00435358357322486,0.0473998615265959,0.0104342370488383
-0.0109743620043871,0.00451574837858899,0.0331121595442724,0.0192660547941216
-0.022317493972861,0.00252752841151043,0.0139698494854118,0.0211097359548684
-0.03173526561395,-0.000161047270727951,-0.000172285556840568,0.010694392238832
-0.0429531967384205,-0.00410105490757624,0.00106003799505582,-0.00508782234700313
-0.0553738613260231,-0.00847053795080992,0.0107542730726168,-0.0139300059365918
-0.0636955363967823,-0.0162484860162399,0.00861429270577675,-0.0110711931591611
-0.060480213754717,-0.0298471445227633,-0.0166901191398649,-0.00215615053269722
-0.0412815989870962,-0.0377383828009777,-0.0582823564806648,0.00517586591346295
-0.0120136712765363,-0.0405342293415619,-0.0887450810634691,0.00924471921425867
0.0181416649832451,-0.0430848293991807,-0.0730490469201712,0.011799605214763
0.0389188801765454,-0.0292653477903139,-0.015007220074544,0.0123697212962251
0.0439874563041001,-0.00251356006224969,0.0356455324762184,0.00921699125585608
0.0303316931892927,0.0116879274297993,0.0438594435253611,0.00319620319792275
0.000100436163548642,0.00907732644256865,0.0271946615206991,-0.0021312174814902
-0.0249150224230186,0.00154748163863868,0.019269684494238,-0.00404386258692869
-0.0212048058754777,-0.000398434026885216,0.0249063170012849,-0.00348901101441283
0.00539234433512058,0.00789361463944941,0.0276624609190916,-0.003036164851626
0.0273580752188665,0.0171812002747688,0.0180688246290037,-0.00280986071240302
0.0289600733077279,0.0161413101144854,0.00816126155751311,-0.00121692977631244
0.0106619893669368,0.00655940600293993,0.0114439030030026,0.00149666506108694
-0.0228126236223523,-0.00622602264616754,0.0191127346967076,0.00393742486496162
-0.0496700610891504,-0.0183759103647481,0.0188879688639143,0.0058783088125993
-0.0345674537008735,-0.0249962450087673,0.0136676364997074,0.00726387675942297
0.0171261963074981,-0.0244778548307744,0.00968995520579173,0.00732550908112795
0.0569288746235372,-0.0146525126139474,0.00736648545168221,0.00631105246303179
0.0597001797891248,0.000308085608679121,0.00449075762855989,0.00586955531296814
0.0430475238156915,0.00835714851424841,0.00142586743389644,0.00657064510661937
0.0341931295831907,0.00723759601423522,0.00299703665477925,0.00577332390761557
0.0386430910080393,0.00363117574849747,0.00537543905267088,-6.12894759887432e-05
0.0442032907647682,0.00392663461632536,0.000562460629808036,-0.00933409071170629
0.046003609591078,0.00730780974269735,-0.00595248514011507,-0.0159838897955389
0.0496651949031107,0.0061391118729679,-0.0146024371588815,-0.0170711700393249
0.0579918987613749,-0.000147396103033395,-0.0309823887590092,-0.0144249902523531
0.0601973660948632,-0.00674528529078175,-0.0391045945206035,-0.0097150042239843
0.0480403373088333,-0.0166525986954604,-0.0285635410672115,-0.00244956442072781
0.0317575792687525,-0.0325797183097082,-0.0120670532044551,0.00683936969723107
0.0135225077535153,-0.0405538325469059,-0.00193963724484152,0.0149542295382445
-0.00618461499949964,-0.0223084670401023,0.00646943126766935,0.018115661271651
-0.00690306594133426,0.0124992114158447,0.027545721335533,0.0130271724950229
0.0156592279895386,0.0311490402807363,0.0456859453611909,-0.000792766749603652
0.036701766304503,0.0249494334365023,0.0371924051755804,-0.016667904075274
0.0351580882374978,0.0131800961307883,0.0161989836754912,-0.0242005186046032
0.0196550546364661,0.00138501710856841,-0.000453902451609159,-0.0192617752781064
0.0186002780650545,-0.0121909123572987,-0.0178595195609976,-0.00706981308700769
0.0304019946515939,-0.0135633565225639,-0.0226803263544015,0.00444320986748606
0.0283864801996723,-0.00158857294346232,-0.00205833810917189,0.0105784471645837
0.0145253402728341,0.00289677061986861,0.0096891665723781,0.0104480262231575
0.00526899987871692,-0.0041236268724525,-0.00635459292267264,0.00580530801842317
0.00224507117022236,-0.0101916677543232,-0.0191808064276478,-0.000997020226845655
0.00500335759217409,-0.0118795063261902,-0.0105711710204793,-0.00785602249698994
0.0105722126871009,-0.0085615845962381,0.00111657336431936,-0.0126185863096981
0.000322406180409147,0.00130670341470792,0.00252956163113495,-0.0137068125200199
-0.0322059064519523,0.0135034820111971,0.000365902600115306,-0.0112951708127139
-0.0606060490243602,0.0223963604498409,0.00556423268823641,-0.00870791330182686
-0.0631512578623365,0.023710088969111,0.0199446351402804,-0.00936986829716521
-0.0405430856492096,0.0200327728721774,0.0300292960524285,-0.0117367225841792
-0.00599333261654644,0.0234903711918644,0.0307901474032117,-0.0104717946746946
0.0152726571693036,0.033814355134045,0.0320528039493165,-0.00327556982341823
0.00603280852739064,0.0348209981934851,0.0324569995656698,0.00443521133039799
-0.0149584721038038,0.0206397797483437,0.0256103775149844,0.00549215585003964
-0.0171746980967814,0.000856042335758759,0.0152865421066099,-0.000292066540100408
0.00175677805009253,-0.0151546318915133,0.00601533657392777,-0.00702618958992293
0.0253995853179358,-0.022521309020023,0.0018659393855304,-0.0092338568555633
0.0294187272580192,-0.0181413361300611,0.00316693261513574,-0.00553279910766526
-0.00360914797067374,-0.00339958063053189,-0.000468289124636801,0.00315086138985892
-0.0467761719232433,0.0119255024436861,-0.0125266026085299,0.0158539878798876
-0.0578626912160851,0.00907085734544237,-0.0334501260226111,0.0280521675395409
-0.0348928561204983,-0.00731520062447523,-0.0585486445744322,0.0306323481401974
-0.000892534290774486,-0.0100300656060197,-0.0592299859883102,0.020447221132414
0.0239583033485981,0.000196649960325788,-0.0315286713486775,0.00614477308314837
0.020798429567395,0.00544670060315388,-0.00232331646225502,-0.00247400452705946
-0.0146329574041562,0.00496020488113127,0.015316880134293,-0.00404761222640627
-0.056251440797328,0.00756966112398904,0.0210174130259787,-0.00268920266489664
-0.0695012007676151,0.0110079053266086,0.0204274277766016,-0.00266326495102746
-0.047016885905523,0.00848864393907093,0.0173484466868129,-0.00582380342812248
-0.014975348387067,0.00568608309589219,0.0114260991569573,-0.00940257936389133
0.00172487613388008,0.00497679988075421,0.00794397793777511,-0.00877093478568413
0.00719306179172598,-0.00279282575134293,0.013877814621155,-0.00393813888897743
0.014654768398052,-0.0119140485863303,0.0285881815040606,0.000172807458696258
0.0237262198299611,-0.00442197683255595,0.0445494726195925,4.28885563120143e-05
0.0242568207527264,0.0203813405045711,0.0549858479853978,-0.00247071634899149
0.00945424338418214,0.0485924102516717,0.0546749057522936,-0.00230155085018286
-0.00708834582403078,0.0620941635061491,0.0402081662072614,0.00379354693860922
-0.00686579785201912,0.0581810923211706,0.0201563834960283,0.0130012739559805
0.00303655481194874,0.0544805887577989,0.00343630929472896,0.0181591129939812
0.00488376536872646,0.0463792048823162,-0.0125869564651127,0.015663829740943
-0.0019073659985232,0.0195508648505411,-0.0293649634365091,0.00828659551174302
-2.61123569805996e-05,-0.0123851138351517,-0.0409860262109917,0.000488323794090188
0.0179524336060163,-0.0278300397858079,-0.0428237744031253,-0.00410689525468154
0.0323923446937018,-0.0177048484208242,-0.0440451354889165,-0.0029479899052052
0.0251282086346682,-0.0104057948600333,-0.0586095434291359,0.00346589160043179
0.00542038249996058,-0.0358421321256441,-0.0709522500328992,0.0116773519285035
0.00116611869903255,-0.0588560138138633,-0.0536758736666393,0.0172981794886742
0.0177327598166328,-0.0511353515749107,-0.0237136484943594,0.0175443067862432
0.0260175066719076,-0.0309228268729193,-0.00682546105073194,0.0136583517618731
0.0125284905168239,-0.00426743951645647,0.0088986642477622,0.00809936806295014
-0.00360672240104323,0.0273296866110287,0.031735751749788,0.00173019145898172
-0.00943900972840409,0.0483600570208419,0.0475590642474138,-0.00507303141076573
-0.0192669449300581,0.0484508809463921,0.048099515566462,-0.0119008990400851
-0.0398832591852133,0.035056600737654,0.0377177743222133,-0.0178099165642921
-0.0499091633710199,0.0222386608318808,0.0232069128512774,-0.0210777408800176
-0.0408194892293182,0.0129193769836947,0.00938651904074217,-0.0207283566435541
-0.0255341851115685,0.00522390267337243,-0.00102313932851812,-0.0186710967018669
-0.0181683486215603,-0.000515293452978991,-0.00310725707708293,-0.0175763310773459
-0.0180118354348722,-0.0100254348714301,-0.00258666511565686,-0.0157580107357488
-0.00262450976909652,-0.0219520312546055,-0.0222597973529899,-0.00964760136536805
0.0286183005722851,-0.0239915422907283,-0.0667711478387132,-0.00028694972866522
0.0497452336363395,-0.0202427228657546,-0.0990750309493398,0.00815648512506555
0.0503172224021982,-0.0205712169254403,-0.0818286861233397,0.0139982706852417
0.0416819236251007,-0.0187724892082357,-0.0329243368550716,0.0178355109138124
0.0302875668195291,-0.00503016281793461,0.00623304240364006,0.0189955598869809
0.00930079520087473,0.0121985540419465,0.0233804812960521,0.0158649017422816
-0.0114162419153044,0.0150940931965544,0.0242977682909912,0.00862660362608555
-0.0066924938689752,0.00694822428152917,0.0145376177153588,-8.54724934007053e-06
0.0235132959362657,-0.000148054905617551,0.00358961891230803,-0.00674811280837573
0.0518498229180433,-0.00652182812025687,-0.00542727748902668,-0.0112018391025835
0.0549447817405884,-0.0130947092246533,-0.0161923682249592,-0.016699793961299
0.020616464772378,-0.0123287945772911,-0.0196070157429921,-0.0245817307404116
-0.0409932302962478,-0.00409517380730055,-0.015910827825852,-0.0294650795354065
-0.0906034413929593,-0.00220123530120407,-0.0170286034324776,-0.0247606970407402
-0.0969718486424816,-0.00801664487365557,-0.0215882413667453,-0.0111971058374287
-0.0719180346947043,-0.0108723467422781,-0.0254673205748192,0.0040223300370394
-0.047145296455704,-0.0117452377390828,-0.0272765050314728,0.0139347861980674
-0.0291616671405253,-0.0125225713957418,-0.0245933235274973,0.015389616128565
-0.0112055382800269,-0.011716120207476,-0.0174474886329945,0.0100712981543148
0.00445713509200327,-0.0112006395497111,-0.0101094495436663,0.00305708643871308
0.0139522128034314,-0.0115231550918513,-0.00570185195559032,-0.00174689126209303
0.0174757836570384,-0.0117138347996177,-0.00223000284826673,-0.00484698356323515
0.0220973368216527,-0.0111468436719707,0.000192232669502273,-0.00827395530930133
0.0349163297445982,-0.010207422823117,0.00110573019289829,-0.0107206633438751
0.0511352375002847,-0.0060732553774243,0.00290339113087782,-0.00936388493193239
0.0552137405238567,0.00106301615010813,0.00642161226309723,-0.00377212911937217
0.0380673854925345,0.00264319213014796,0.00910103605073958,0.00348830843657758
0.00980778991666862,-0.00268329284542757,0.00753980339951605,0.00725437088044879
-0.0122927019354923,-0.00539859271559297,0.00307665941452598,0.00521701323445836
-0.0183245724337949,0.00186069772846233,0.00368941551497993,0.0041861991469835
-0.0149953083702974,0.0131644380900134,0.0107190600847543,0.0104910720385404
-0.0168752861818888,0.0123691260065612,0.0150845980503739,0.0160247094115127
-0.0230925164488237,0.00188920663725263,0.015789208271034,0.009083542082349
-0.0261536892764043,0.00134761798904586,0.0161468451262897,-0.00589797333489894
-0.0273990226439429,0.00979802262361722,0.0144439310624615,-0.0149501678987623
-0.0283995621070438,0.0112107115221738,0.0109211436648291,-0.0134818618678764
-0.0300895846879055,0.00528390938208878,0.00547870310015556,-0.00733901867143887
-0.0365514701660653,0.000795354041871456,-0.00144520310632473,-0.00201295344335482
-0.0434854636071191,0.000122463769473151,-0.00396049037879691,0.0022851612543168
-0.0426624839862432,0.0026242532188988,0.000272384528403539,0.00689700781322682
-0.0393888320282154,0.00631210459014348,0.00682626525384828,0.0105744327899936
-0.0412806832605939,0.00694611206924464,0.00900408337921631,0.0114637424457899
-0.0396483451548314,0.00395313700308971,0.00773828978078202,0.0103299385229864
-0.024720886384186,0.00320699418629805,0.00753523215535358,0.00894730708025769
-0.00411346150528791,0.00548844729376005,0.00300853067955705,0.00774767311780683
0.00960987009402101,0.00477582550437566,-0.00622002812328556,0.00648444569416967
0.0176823794497441,-0.00120294686869438,-0.00668982895308557,0.0051272233188097
0.0284261576677912,-0.00943397444005264,0.00349453167706644,0.00366715144080475
0.040771382951151,-0.014943092760708,0.00878117572370141,0.00222433675697943
0.044676126565886,-0.0172424484283945,0.000517317316156017,0.00121704802641702
0.0327777977076615,-0.0180208558061622,-0.0134173917288056,0.00088308905266074
0.0119293937384335,-0.0125920721776881,-0.0135793396645783,0.00103186207278138
-0.00119189160039411,-0.00129208276425528,0.000110683424659339,0.00127301639323336
-0.00144194562587172,0.00406288684162512,0.00606478698636338,0.00159147525989161
-0.00419431620491438,0.00207408703249512,0.00529543921278538,0.00250584425596363
-0.0197599432660153,0.0017800266578123,0.0107610232054893,0.00382238802208853
-0.0408646196758908,0.00444523476466303,0.0178997430839514,0.00438893822477019
-0.0601256796704579,0.00740826208068118,0.0169144098559169,0.00409369852130863
-0.0664862866262656,0.00649728621757656,0.00147621619244429,0.00490278252093277
-0.0483332978741384,0.00215721844690318,-0.0222422934246546,0.00741090838606906
-0.0149168931421125,0.00288603067779641,-0.027298282100161,0.00799221705811034
0.0130174637681957,0.00615810579669519,-0.00365290583321843,0.00438079039168424
0.0254298493858256,0.00133472281360785,0.0194223294412465,-0.00042074689875007
0.0285104191979112,-0.00872346935019441,0.0208079672005054,-0.00314021929178957
0.0347981646369891,-0.0124649156737801,0.0123665477475561,-0.00321235284166791
0.0454255719258514,-0.00704350026351554,0.0111009142721384,-0.000966895859944609
0.0467465221213471,0.000368790284670172,0.0216320717837647,0.00237386586786167
0.0281933551120184,0.00306823578866221,0.0344510396367995,0.00388086505746631
0.00183678952644092,0.000563351134307364,0.0349925026565849,0.00210289456824484
-0.010863023205387,-0.0030658266911121,0.0247369354330517,-0.000553519773396746
-0.0105841967357833,0.000948509806754591,0.0155796059313505,-0.00298548232622441
-0.0156664087749946,0.0142302737139218,0.00745791102572892,-0.00752092413754448
-0.0267086677627678,0.0210707496765326,-0.00385214077524081,-0.0126751013871272
-0.0239733497711336,0.0140442260734879,-0.0147224825678672,-0.0137942613046485
-0.00576242992192572,0.00680626503229353,-0.0181088279928599,-0.0116974562123829
0.00577098518446611,0.0100281243546894,-0.0142585301516118,-0.0102039926663648
0.00159763938115126,0.0159095530650822,-0.0137855413544188,-0.00980478782005271
-0.00409394390251829,0.0130564498814558,-0.0227088925468599,-0.00945937527283046
0.000169154255372015,0.00139243755667455,-0.0359081475765281,-0.0078496595685523
0.0126924966380721,-0.017654354619525,-0.0428107709861304,-0.00255698952935136
0.0250840833028362,-0.037243965295828,-0.0409600469784507,0.00738795240278597
0.0282111624021828,-0.041656584691716,-0.0290871737703215,0.018407552137875
0.0211941614897687,-0.0292333257491769,-0.000942114829973931,0.024042494611202
0.0142778134008416,-0.0168379644702113,0.0267315807903928,0.0204377679634101
0.0117431869759714,-0.0118997287121892,0.0341690881381541,0.010583440987688
0.00763697673183648,-0.00760958255918257,0.0264012722641984,0.00237655438183216
0.00270525767298519,0.00414034191189576,0.0191326368969871,-0.000730316166086552
-0.000568852104036163,0.0274263032801971,0.0230478355268551,-0.00411664783671302
-0.0071007593424996,0.0422426952014326,0.0227162264858491,-0.013487414773397
-0.0143645871884752,0.0318591550327518,0.00224734091619094,-0.0264751402943466
-0.0127676205380828,0.0140354317818102,-0.0202106135366919,-0.035604313977495
-0.0089999062698933,0.00427394666592902,-0.0255010677736638,-0.0361573940544266
-0.0209287467987543,-0.000215364990688263,-0.0189153425718185,-0.0287172476003803
-0.0449547729862358,-0.00438708981860789,-0.0144601629300675,-0.0169812690909202
-0.0530321932134427,-0.00979897020359327,-0.0182134387367423,-0.0044031626879937
-0.0360609126339479,-0.0161825173218862,-0.0246529273629622,0.00778426584919827
-0.0150603849362271,-0.0191107965798441,-0.0252118305022496,0.0174348195084317
-0.000346083460572875,-0.0121553871019616,-0.0139994553165902,0.0201520245750098
0.0087158566682884,-0.00110838410741592,0.00591232501498005,0.0152148140789535
0.0104312849704043,0.00307220233129606,0.0198126437500614,0.00725547340141037
0.0104787281400923,0.00179039170440181,0.0182405282411995,0.000457431357685771
0.0100052950254399,0.00270473110155731,0.00503335160499196,-0.00342541920321023
0.00590569018068821,0.00638881938038116,-0.00706711433598843,-0.0029304579605134
-0.00173349469549038,0.00786669743856177,-0.00750285937618663,0.00146827431434012
-0.012062259470835,0.00940211757922944,-0.00112562847635088,0.00616555096196519
-0.0256676861586181,0.0168599629679205,0.00823110356224723,0.0082008105776033
-0.0429593462813817,0.0292839591694652,0.0265003397049808,0.00746993821916801
-0.0545120047703119,0.0398811395421265,0.0455665425198117,0.00536349297831798
-0.0584384237938154,0.0387726463849794,0.0432683812252627,0.00370280323876402
-0.0584217507898609,0.0233715993813178,0.0138137895644622,0.00448468043685727
-0.044083413257492,0.00397767752587112,-0.016041966460842,0.00941507251165942
-0.0177578555141736,-0.0104257748976008,-0.0204054685223638,0.0170414997449876
-0.00342616594930388,-0.0213556229395497,-0.0110880262276908,0.0207391261842798
-0.00962200988187226,-0.0298941535133418,-0.0116860900324424,0.0141785643807534
-0.0123028843809106,-0.0311205415975965,-0.0230719439398679,-0.00189514756459008
0.0047740908467395,-0.0216684136953035,-0.0264958370821377,-0.0200095261924355
0.0294097601168325,-0.0112322578300756,-0.0199000575078471,-0.0314823056141665
0.0508837961800139,-0.0194047236925302,-0.0312508162714623,-0.0312952536234143
0.0651496960497882,-0.0368246032785531,-0.0551529302359465,-0.0209079150378271
0.0606428866948184,-0.031148650099914,-0.0456211346758924,-0.00758028378733929
0.0281655672917336,-0.00917129332921449,-0.00835989664546473,0.00303872657997728
-0.0146074922415899,0.0078358993026827,0.0122113636504756,0.0106792668749091
-0.0399757084798051,0.0270004409750022,0.0163681478679275,0.0154296941011922
-0.0434392015503724,0.0413779202402378,0.0184897045890769,0.0172264459700591
-0.0333882851462934,0.0346104460645795,0.0154949572762141,0.0186268104978624
-0.0130844657474946,0.0207655132483335,0.0153238400885198,0.0213243848089018
0.0056445327665582,0.0156477488317898,0.0222297200012919,0.0228607125029682
0.00369831003899088,0.0156275764004942,0.023069980410419,0.0205390988032718
-0.0166108725057749,0.018432505700772,0.0161808100385038,0.0156561895552591
-0.0326526574554359,0.0221705513887743,0.0132396591068004,0.0110463820939145
-0.0287189324593739,0.0211979067467245,0.0160119856766626,0.00697922989645077
-0.0155719245510902,0.0215494683546643,0.0161877953642935,0.00196601793392787
-0.0131572123907759,0.0284633037008739,0.00951940824561996,-0.00407823647363252
-0.013755715904769,0.0256011041895498,-0.00118286954472842,-0.0102995400599209
-0.00163785865011718,0.00552235061845072,-0.0150345077974653,-0.0158846697958558
0.0121617072743593,-0.0147700553127576,-0.0271805290090642,-0.0189511031510752
0.0179511613329442,-0.0229517135410147,-0.0273127934816261,-0.0183851670560869
0.0221013346657527,-0.0177337851412029,-0.016867580909591,-0.0160285666930362
0.027776844249569,-0.00714800347087755,-0.00996824521319252,-0.0144155710325864
0.0357620922147942,-0.00508229847128618,-0.014965265634809,-0.014527447201121
0.0434386005859313,-0.0128734365726578,-0.0229130429854918,-0.0168399889993839
0.0459559040195548,-0.0189229024112025,-0.0222780436792154,-0.019314201800148
0.0488132524163229,-0.0196742902288797,-0.0152210560997537,-0.014074858482966
0.0561097898735747,-0.0168292554810776,-0.00886482018570937,0.00265383175125072
0.0574385702151903,-0.00872619173940752,-0.00377828843643153,0.0196974104363354
0.0397165027204129,0.000838191948276345,0.00212117145016339,0.0243246366289166
0.0071187482801678,0.00745258507456097,0.0111334462965453,0.018604837856388
-0.0244293883969013,0.00976002039182668,0.0206508341063537,0.0117057618360087
-0.0499032457119772,0.00868925858301402,0.0199754663066605,0.00739227502776919
-0.0717234371699029,0.00686570763696003,0.00516253741196889,0.00448341101828384
-0.081606542707727,0.00352626378661525,-0.0112640245224646,0.00190213806436015
-0.0660464355369309,-0.00399036851671525,-0.0181845171487729,-0.000281835604003633
-0.0307014092707701,-0.00902815740147669,-0.0181947975511947,-0.00291364340908744
0.0177571861543614,-0.00470476553499736,-0.0169076320671384,-0.00720875252793349
0.0706103333604284,0.00130816615556927,-0.0168311100628848,-0.012485887258072
0.0962447529945678,0.000264449335258741,-0.014306573906705,-0.0162247578097506
0.0827234149114861,-0.00484877514927244,-0.00632114006553664,-0.0163930375828192
0.0500928651209153,0.0012675589415231,-0.00403946885492521,-0.0129659676784618
0.0188059622827988,0.0211804581325061,-0.00673754022550641,-0.00690965187095556
-0.00321514490928461,0.0355078816885816,0.0108671357731107,2.58585978414605e-05
-0.0192186744618881,0.0323426832375902,0.0425111087036038,0.00508697620605623
-0.0302234926349066,0.0162484122754217,0.0562428075459827,0.00632421053274179
-0.0342616979469695,-0.0020450628048947,0.0478257925931769,0.00456882915916649
-0.0348145742697809,-0.0147045618644223,0.0288202607418041,0.00333766952199225
-0.0364678316973071,-0.020216986825496,0.00973470555018061,0.00498102126219784
-0.0373568344733306,-0.0188381716124236,0.000245797374463091,0.00736400513066767
-0.0319603118397809,-0.0110403095985102,0.00116734543134829,0.00650908574368372
-0.0195204126241476,-0.00690549574719449,0.00304528081755306,0.00136161776899519
-0.0083499685391198,-0.0139024485856781,0.00224139642587122,-0.00440057718200623
-0.0054205376528358,-0.0151171966177523,0.00892794963643054,-0.00573167025261072
-0.00807137706803739,-0.00202435092438818,0.0216778452384512,-0.00217518523826687
-0.00845494165719957,0.00595387081914174,0.0246632844120234,0.00203226366083941
-0.00333684162747546,-0.000436920487299722,0.0151776737821343,0.00358967455555896
0.00649344966058921,-0.00393216524580901,0.00644583121600055,0.00243172143503923
0.0223671058557804,0.00843107295217231,0.00916099683359596,-0.000623129052753492
0.0258708798389673,0.0175863664737263,0.0177465194995698,-0.00543121007953118
-0.00183499726003217,-0.00449969860175801,0.0197131620116208,-0.0105513223670402
-0.0388059665857743,-0.0319650576636903,0.013193977410035,-0.011667352924014
-0.0518995256006905,-0.0183096090051184,-0.00226843446881821,-0.00533860266911791
-0.0333858568684613,0.0152505301783619,-0.0224760459562207,0.00609004372328558
-0.00838601433745266,0.0319523245939397,-0.0333439346855744,0.0156187751193477
0.00153606301389908,0.0318932170831751,-0.0329991350634678,0.0180910833261459
0.0165786200037677,0.0240817066707733,-0.0247963520059432,0.0141302985709309
0.0362236981541599,0.0183418835717306,-0.00593769214590372,0.00769503134376542
0.0249392200631385,0.0156016686957716,0.0202872617798522,0.00206971215202162
-0.00116437111263687,0.0074473815410546,0.0389137820030528,-0.00142816087538198
0.00181797202557812,-0.0025690733414465,0.0398249519971019,-0.00270159279363695
0.0274374435968837,-0.00575334079713382,0.0256276009382541,-0.00218352635641513
0.0424922720144156,-0.00965262329370174,0.0111837372035559,-0.0006505594530477
0.0357872312728199,-0.0188685560949742,0.0105241671705244,0.00051201542043141
0.0213195767190279,-0.0203725150258433,0.01478181127981,-2.59396443554744e-05
0.00875160746291438,-0.00622988526330902,0.0124850744454578,-0.00201558362244136
-0.00283314535377341,0.011207144604578,0.00292371276860219,-0.00415407636811535
-0.0103263160922247,0.0150335026326833,-0.0154314228297505,-0.00526521490272778
-0.0132036306548034,0.0130718036280028,-0.0279298729498826,-0.00415455345556259
-0.00693052401166951,0.0164787828746489,-0.0152619510348601,-0.000750499352214688
0.0134777145656902,0.00984315910876434,0.00598081442921736,0.00308244205492334
0.0367788330867153,-0.00636681665526337,0.0173797971794785,0.00537975720258583
0.0486550356943803,-0.00800493951138875,0.0219422243433757,0.00541846010837449
0.0487151991197725,-0.00142253934450957,0.0171266582163896,0.00366076965244318
0.0392559527186835,-0.00691905937665212,0.00902035198433959,0.00140642787249292
0.019576196157987,-0.0154816044484127,0.0070268311957347,-0.000445088087156473
-0.00072071889914288,-0.0120947768600757,0.00330627210713323,-0.00204550208357467
-0.0159367157038706,-0.00730488603234516,-0.0086214170898931,-0.00317090112490133
-0.024948320825789,-0.0137400021540674,-0.0254220959058615,-0.00299636893458224
-0.0191156902704934,-0.0156653495445454,-0.0345206371091951,-0.00114650728898101
-0.00319798971376602,-0.00150728532406988,-0.0247653106935067,0.00126785353459641
0.0075917280259824,0.0118276162108823,-0.00555145497549173,0.00222879801073723
0.0132400646650208,0.0133128182844353,0.00917746755140583,0.000960403892559805
0.0204103883414845,0.0107308335738573,0.0152200959398307,-0.00167876224984464
0.0255060815858981,0.00851954000668794,0.0105892542827601,-0.00422473303790274
0.0259235344199223,0.00345608456321769,0.000595643395450554,-0.00596510402655386
0.027928544685896,-0.00721595403982218,-0.00426616316681603,-0.00603171681963112
0.0370601026264718,-0.0170071349110377,-0.000637539593499461,-0.00361978832430535
0.0520287768327462,-0.0147931014646415,0.0091981605814684,-0.000976241610434816
0.0652850495643359,-0.00416201480084938,0.0191683867270209,-0.000147792665702719
0.0624354105891367,0.00293140161426274,0.0210759336878194,0.00234270511838213
0.0329025941318825,0.00380666035947055,0.0130046082618319,0.0107481646482654
-0.0105442243103517,0.00171570997434942,0.000548824456700583,0.0204432550827703
-0.0445039711190165,-0.000397765225332004,-0.00863039238614934,0.0201463963242844
-0.0619686491746435,0.000529725091549405,-0.012615651443239,0.00688117149752365
-0.0656550192406371,0.00289911374811681,-0.0141429132335519,-0.00914922966946137
-0.0546496095214444,0.00214306114565209,-0.015587473602128,-0.0165395815279488
-0.0344049529446041,-0.00246570715717364,-0.0243614326350417,-0.0119363274080177
-0.0191956877261552,-0.00803596312336068,-0.0382883951484626,0.000602162536120955
-0.0153842748653561,-0.0108159352705869,-0.0373480756095401,0.0138940260201797
-0.0191609823120919,-0.0104308713651849,-0.0186070042250162,0.021340837188906
-0.0202955427337219,-0.00673661710613829,-0.000467233209868301,0.0189506444403377
-0.00400898648774324,0.00142461906021135,0.00772285651106958,0.00706040797943154
0.0259061215674278,0.00931538272919348,0.00935407049680174,-0.00904964308037573
0.0462295790146282,0.00971365605860577,0.00563610094146269,-0.0216927681640964
0.0445339411849904,0.00719783029672715,-0.0106925173003714,-0.0264324507700879
0.0297193476384707,0.00691129070475024,-0.0322789811432824,-0.0244527787686993
0.0169931975586687,2.27112672430601e-05,-0.0411782797921743,-0.0188224066261285
0.00792170641004332,-0.00884368028014891,-0.0341985760948201,-0.0120158185924199
-0.00381819307058025,-0.00456637994560076,-0.0159927535144387,-0.00614031911885183
-0.0169928939252407,0.00544313529928408,0.00116902579647794,-0.00171335883615952
-0.0250773282382183,0.00847899083923202,0.00745544945618862,0.00283963575376345
-0.022513791682133,0.00748899584616554,0.00978997585395383,0.00799412347334297
-0.0148630903934921,0.00731327522541382,0.0162404992774757,0.0112081893545936
-0.0146177279514201,0.00648773553310976,0.0214749602244101,0.0106977237776794
-0.0193172694213471,0.000606319910625277,0.0152731751630377,0.00861861459237677
-0.0174558943363515,-0.0110078313512349,-0.00232003106982734,0.00811990292320316
-0.00518981062910135,-0.0200179339704944,-0.0210148838343091,0.00956768058002537
0.0108547462173452,-0.0195164755261149,-0.0336589978611763,0.0111502060282492
0.017380882153388,-0.00997243004955725,-0.0360351599684516,0.011172394246954
0.00814061237013918,0.00452764495524916,-0.0257646004961854,0.00858726672990872
-0.00635834725504152,0.0143642635634228,-0.0130722506002286,0.00320922799201456
-0.0082552832467986,0.0112059565848768,-0.0122040898025222,-0.00346609800091771
0.00487116393716576,0.000363913723864056,-0.0193211379245621,-0.00909876525007294
0.0164917051678337,-0.00513256851983722,-0.0207172023848528,-0.0123764812120593
0.0176026314368083,-0.00145223227642409,-0.0161948300936863,-0.0131609242743186
0.0195826038514613,0.00416208072315738,-0.0126595056769995,-0.0118271837700377
0.0231940668557957,0.0056328386629398,-0.0111657708928454,-0.00936099888165665
0.0180744998758018,0.00337352845039696,-0.00916624743479313,-0.00699926782800032
0.00989267892177098,-0.00209711150178233,-0.00919527159432815,-0.00541086812276893
0.00314635441199227,-0.00776998979925607,-0.0103482719230689,-0.00433866613254096
0.00174885538642249,-0.0091368764466055,-0.00763099101443712,-0.00411525795276342
0.00735244800641078,-0.00831941261811264,-0.00494350137638649,-0.00638158000251505
0.00130040357032477,-0.00729215600193499,-0.00339987026345513,-0.00970352276596506
-0.026846673188028,-0.00646249471282131,-0.00122966883425152,-0.00929075109308053
-0.0567801609315755,-0.0079472346101662,-0.00133493470243574,-0.00360108840222535
-0.0614168430286246,-0.013402842358672,-0.00380720513713126,0.0047552490549005
-0.0442123275574667,-0.0202257463604419,-0.00862451637633903,0.0129698787805759
-0.0247642755259079,-0.0172621886616426,-0.0089585156065516,0.0185775796027476
-0.00730956272075781,-0.000586524562179763,0.00331893290199871,0.0195018625931331
0.000835872754539314,0.014640538419018,0.0156972654349067,0.0157031797204558
-0.00817419961086639,0.0179548384534702,0.017506820761122,0.00889201102117393
-0.0172089086396422,0.0140104318879309,0.0181183248763876,0.00135195056579067
-0.00492638295720207,0.00791528253611046,0.0220603841582906,-0.00442755663962373
0.024950919301434,0.0021393180322022,0.018186497097394,-0.00662770640098941
0.0445996860577066,-0.006066902669293,0.0015434793129108,-0.00558328998132437
0.0329341625626157,-0.0154301313266606,-0.0114084204959855,-0.00294544239572372
-0.000276301695821615,-0.0155628950583735,-0.00599694513896687,-0.000931714777111159
-0.0309132659566322,-0.00622877538444453,0.00470985977680461,-0.00287803536199239
-0.0377215959450624,0.00402241018283504,0.00667456991814125,-0.00953371535910436
-0.0207528734731584,0.00738857135803799,0.00172419181901802,-0.0169261052968748
-0.0088720576390568,-0.000609813582218136,-0.00904494972655356,-0.0198099428412453
-0.0159229461160418,-0.0105281154056595,-0.0130239416138118,-0.0152785306894868
-0.0266101235591639,-0.0102392149706873,-0.00210219948478451,-0.00535601788071855
-0.0382200318309917,-0.00272685456895867,0.0096838417219064,0.00516162764254726
-0.0524014316472245,-0.00236930137610658,0.0136690046168669,0.0152764958029422
-0.050422117079723,-0.0139013269650284,0.00639334920163027,0.0257969874112767
-0.0255598167110044,-0.0209372860715693,-0.00863412651426451,0.0311907843058612
0.00282646484502547,-0.0127018952067206,-0.0108480285568359,0.0248859137537948
0.0229295743531737,0.00210202101214866,0.00717508426125761,0.0111889459988347
0.0400035735904604,0.010648895332153,0.02226261082428,0.000836236245518842
0.0499893118157945,0.00941150997174966,0.0171845408532011,-0.0022059392035534
0.0410845501769806,0.00841567922705378,0.0044626479431087,-0.00196715994604265
0.0189634424055028,0.0152289331042712,-0.0030867744471179,-0.00312053176847826
0.00128384369522521,0.0196812300647959,-0.0112083960479779,-0.00684961475864147
-0.00436771689349998,0.0150735049977752,-0.0196420951767757,-0.0112238837396709
-0.00642013838260551,0.00906785323756638,-0.0184169417065259,-0.0137198039121842
-0.00992325915136252,0.00512049384363296,-0.00913199887289473,-0.0130791969750945
-0.00757776335286769,-0.000692916748093957,0.000927812168601688,-0.00924498784649845
-0.000543485233696693,-0.01002692251354,0.00699235501740739,-0.0035883957876675
0.0038843582982482,-0.0178019188654151,0.00515446688589504,0.000464230288384685
0.00874613575806299,-0.0222344898285576,-0.00213229933787623,0.00015209298945326
0.0155547020965999,-0.0256981546139491,-0.00625828578638696,-0.00256197990618006
0.0187847398470315,-0.0253652643314845,-0.0010276259427177,-0.00260011840719453
0.0160818100140538,-0.0177522216645182,0.00930858319383846,0.00231611619047239
0.000115268323375799,-0.00579390533964078,0.0166200689497751,0.00964721482323737
-0.0331472664499138,0.00213773050186393,0.0230606494292246,0.0153287892365574
-0.0651045624352042,0.00189544424976709,0.0331311466563628,0.0172497766366037
-0.0746044338006215,0.00173065334919584,0.0439176664321582,0.0156513681414952
-0.0569706781604632,0.00716267893498024,0.0498508280229968,0.0116835271453931
-0.0270412952825935,0.0162899297086731,0.0490185470446163,0.0070341439406904
-0.013558747948973,0.0318767661048602,0.0448129861156387,0.00343295683103338
-0.0240720775795224,0.0420482885637039,0.0372988773798766,0.00185343685964076
-0.0355642741469785,0.0236581708765371,0.0190096121179745,0.00213162640516778
-0.0256904330888852,-0.00831531131388022,-0.011100745478258,0.0018182104721147
0.0108987883324117,-0.0197649893957782,-0.0386728353477276,-0.00228421555478417
0.058326775063381,-0.0110666272780505,-0.0446982867557672,-0.0107323829981309
0.0902446991411261,0.00392590377121015,-0.0282781249738929,-0.0205277036113325
0.100466343980444,0.0165296592422009,-0.0226692948993954,-0.0253768027813738
0.0987113992815852,0.0195569451736906,-0.0433123251371466,-0.0205777958590683
0.0729434096689808,0.0150924293571281,-0.0521494625573065,-0.010512618202454
0.0160066464920371,0.0100662971458244,-0.0213618912010319,-0.0043222736434654
-0.0348358240862164,0.00519228504223627,0.0234875285138368,-0.0039218787351041
-0.0475298601227923,-0.00639505030924662,0.0423701628204345,-0.00395109145830349
-0.0311884319467346,-0.0227704098415383,0.0312223985839084,-0.000894794259542437
-0.010161191369114,-0.0323922339168102,0.0181237689598556,0.00445792524413319
-0.00574094484739249,-0.0323247575223662,0.0187486488561744,0.0100701289420537
-0.0224956673262916,-0.0261344466283879,0.0207794472277839,0.0137551875224793
-0.0435774706255177,-0.0125546170103226,0.0197830810180951,0.0135419563502767
-0.0531491462775761,0.0088751479452165,0.0212735026569572,0.00912293468117581
-0.0446715417388598,0.0278533796984117,0.0204247259576526,0.00323045509633156
-0.0199699565207156,0.0318641489857532,0.0139452350666484,-0.000367637736157731
0.00102970872361727,0.0245181545702739,0.00932904871330637,-0.0011071368382225
0.00462341407591195,0.02144739255032,0.0132754930209208,-0.00141570416755276
0.00572194789621977,0.023624223433008,0.0135395568765873,-0.00313620328979179
0.0186125879158119,0.0170629451196863,-0.00369646209315536,-0.00617011661695521
0.0362151054245356,0.00117802406095963,-0.0262409341411803,-0.00965616784810246
0.0471823971850814,-0.0115041016861488,-0.0364510681621318,-0.0124319484018141
0.0503736696504928,-0.0137091926095837,-0.0330108011417986,-0.0122842045255899
0.047560108168967,-0.0069882483005378,-0.0224826494892725,-0.00778656706526549
0.038757929214337,0.000244272148574818,-0.0116778874273129,-0.00116864856821927
0.0265695405667741,0.0012817238380423,-0.00454396367483734,0.00365435999579626
0.0172660781683503,-0.00233639048692082,-0.00148871575009426,0.00516747311852181
0.0170865161020601,-0.00568242102298046,0.00090063586704554,0.00444710747062171
0.0243556007370225,-0.00563029166913686,0.000981834163129291,0.00317023192202247
0.0309338296844209,-0.00316391846375213,-0.00644471399068655,0.00291219719114337
0.0330313744094083,-0.000668876358926812,-0.0160096832693339,0.00362118714433594
0.0322003022522449,0.0038394348661238,-0.0204624568593963,0.00153058633316849
0.0312161918267319,0.00819100818859054,-0.0188969332621872,-0.00643408270319411
0.0302902261709816,0.000640847739718278,-0.0160660000633549,-0.0160568378206126
0.0286134623771391,-0.0215457838228319,-0.0212174643655089,-0.0201627593470865
0.0265297577984188,-0.0398520951925207,-0.0316970446149323,-0.0180599106998247
0.0149012209743326,-0.0339415031981694,-0.0319325467977108,-0.0140060395237673
-0.0108815259020864,-0.0102379215912922,-0.0181969440402235,-0.00868503984612682
-0.0356963034851094,0.00929752383120246,-0.00272388430422853,0.00153354536745363
-0.0493978619975792,0.0179447217467896,0.00531686721931202,0.0179793282802465
-0.0511314059406471,0.0211437666233925,0.00284375438558815,0.0351756591255046
-0.0398363111947765,0.0176618174193868,-0.00620227584044143,0.0416876655271628
-0.0220468843719857,0.0065882722829593,-0.00543978187999933,0.0304027282136894
-0.00522413557133875,0.00268052416146342,0.0148866181496307,0.0100592862971612
0.00467713424728233,0.0129708967982472,0.0368892939130382,-0.00353283392902219
0.00336257280344534,0.0223650149958544,0.0355297683879361,-0.00458875112948198
0.000887518199362405,0.0226283524045106,0.0191266338700501,0.000106396744953755
0.00655639233002226,0.0169111197890051,0.0063947790898406,0.000953940792006565
0.0117968080288901,0.0071936203660984,-0.0053665059135496,-0.00381281516071431
0.0192445068984872,-0.00659855436993384,-0.0195841165403151,-0.00909326022782689
0.0403278364254345,-0.0177257190866251,-0.0299713948966044,-0.0111417013771536
0.0581001208732434,-0.0174508574602947,-0.0277882244771002,-0.00995037613893325
0.0536198125762111,-0.0165951876499207,-0.0173738497209768,-0.00667408280901028
0.033566588731288,-0.0178703412324305,-0.0112589976201227,-0.00224131283084784
0.00714755933461614,-0.00364012414222141,-0.00764857296357888,0.00171101645597875
-0.0175144878270725,0.0214379432771056,0.00363856630528934,0.00341488725521548
-0.0305129440853092,0.0368873854710481,0.0193435973039913,0.00311834206483197
-0.0402585893472053,0.0394232062412864,0.0252076502889989,0.0025879013040893
-0.0582670237602573,0.0355336151694433,0.0173035200573054,0.00309247418147351
-0.0767774765113756,0.0299429406090551,0.00626336790373671,0.00460797490254967
-0.0914965570986047,0.0267333971182621,0.00459672620379044,0.0063346835591744
-0.105435235225696,0.022275212918374,0.0100816085697778,0.00738930561167295
-0.104249530755058,0.00504271781011507,0.0114448677715881,0.00742501545941371
-0.0718683887626311,-0.0193063516318466,0.00825542565267857,0.00718330812416992
-0.0154999613656973,-0.0358799176389583,0.0098914652270464,0.00730502002727488
0.0341112067241297,-0.0521777992760628,0.0169790260768534,0.00749634704638778
0.0457686713943706,-0.0674393488173235,0.0219743934133564,0.00710150301993561
0.0232445885143606,-0.0571954389741501,0.0246677714878875,0.0051441340421489
-0.00927688507261162,-0.0262364176352559,0.0253843078316836,0.00145460409795978
-0.0329990135126951,-0.00765790546894443,0.0231188673031888,-0.00215334755496592
-0.032949741418922,-0.00532409680619343,0.0187556671063768,-0.00371354811054249
0.000814187429113072,0.000838986837033706,0.0127533185069156,-0.00316470738338709
0.054867740524794,0.0119437924437592,0.00501748284857302,-0.0023484094813591
0.0822736836731988,0.014653821183257,-0.00360726430928425,-0.0033548781661467
0.0593938488601297,0.00526255818132576,-0.0104826985493735,-0.00612778576319931
0.0253366435020247,-0.00804928550846903,-0.0227859610023733,-0.00855886534148117
0.0225583187931335,-0.00880559011126391,-0.0427750432512531,-0.00822038785187739
0.0467090625960487,0.00184441900340438,-0.0536338261433899,-0.00476049013097275
0.067384654532313,0.00136232268855573,-0.0403909101526951,-0.000135141709386343
0.0656984392157115,-0.0035193241900524,-0.00364994662052351,0.004727699690391
0.0418236060409133,0.00704066806211365,0.0397030690893265,0.00904571490338091
0.00404707949168781,0.0196474114000027,0.071448289166088,0.0100162388682489
-0.0332075749586884,0.0140665830253468,0.0779638888448943,0.00622428121322997
-0.0492994951011635,-0.00566730892416933,0.0566298517199083,0.000723712772535665
-0.0380838822971469,-0.0225733916155958,0.0295245017138002,-0.00254073167699119
-0.0147661203627355,-0.0307074032538716,0.0163620958710453,-0.00364302901545002
0.0071664976446627,-0.0321099805420548,0.0118167688072734,-0.00470590327158049
0.016512221386528,-0.0246805929357233,0.00639119999127716,-0.00619806231414868
0.0149323763184259,-0.0145272296910531,-0.000631085716422515,-0.00767375181481586
0.0181951907734076,-0.0146259573623723,-0.0093471802683222,-0.00850014090509798
0.026271473637734,-0.027476976264742,-0.0167665460501415,-0.0081359300560099
0.0324147477829599,-0.0379100714374548,-0.0239637701745405,-0.0079831593949024
0.0372978153736776,-0.0272704701192539,-0.0327319651847389,-0.00847779013105553
0.0436516466319357,-0.000876486664548679,-0.0277619538784144,-0.00622156760471552
0.05148028779623,0.0157050904185694,-0.0116574541568991,-0.00022535550830384
0.0537343862811923,0.00911416423088896,-0.0101434636482634,0.00527013991772603
0.044806878536675,-0.00204096668238237,-0.0185682333853052,0.00689667856804024
0.0226655274233162,-0.00251899556308917,-0.0138117241294068,0.00560546967474747
9.28584676759105e-05,-0.000803685391682895,0.00615097778031593,0.00430972752500556
0.00358708466366667,0.00178439519864915,0.0293076636921624,0.00422685171398424
0.0268176474090525,0.00555174039082046,0.0452882680725174,0.00395798998414619
0.0394780155441758,0.00230063155183876,0.0441044457589056,0.00114782625768929
0.0417194660591158,0.000609474154644098,0.0255993999472953,-0.00526566885909787
0.044445265650822,0.0108017564006717,0.00737499817179622,-0.0127759177414306
0.0411446439738065,0.0198977663929584,-0.000422869189184043,-0.016842240472703
0.0263081279699262,0.0202241314197172,-0.0035003391567911,-0.0155974267010776
0.00607878277646624,0.0177997970624749,-0.00491349489736212,-0.0102237007708884
0.00181861545803153,0.0132684662904706,-0.00293349113171851,-0.00278110131697972
0.0200400303694467,0.00405236621093949,0.00135354896626479,0.00426087453026623
0.0291765258775762,-0.00789961692498868,0.0103974137344434,0.00937730570382654
0.0106771803040667,-0.0208640477653878,0.0208590096694691,0.0126019138077019
-0.00961949514448844,-0.0264401035651194,0.0149662510432487,0.0137341763114527
-0.0115791387331931,-0.0128437649392132,-0.00246662403766659,0.0113370675937546
-0.0101385856152462,0.00885666103603978,-0.00058326956479712,0.0047534182660021
-0.00895099565168572,0.0135406853144463,0.0113900290656427,-0.0034800949555803
0.016579963609635,-0.0079005437361507,-0.00585135874510944,-0.00939049910083668
0.0497203479026152,-0.0227351784937846,-0.0348277234200395,-0.0110424510149335
0.0342639909888176,0.00160791262312686,-0.0323550868157676,-0.00971271912409912
-0.022574314271702,0.0327220325008884,-0.00537001127911024,-0.00830098646338918
-0.0625010498846802,0.0326952633811434,0.0133363045361825,-0.00808272485144268
-0.0725994526297107,0.0144015379003225,0.00643776237682598,-0.0075115372887377
-0.0755044628070054,0.00191443826419901,-0.0103182958346758,-0.00499935614596488
-0.072459669596627,0.00120832588907664,-0.00727760602226319,-0.00146955970045084
-0.0541609034243723,0.00125660849651891,0.0131348586703086,0.00144409222034883
-0.0258881603050185,-0.00334889505189476,0.0188377868831503,0.00408890788516155
-9.3352546176359e-05,-0.00364148867263283,0.000719819851152648,0.00724578527230487
0.0174595419684741,-0.00476770806321656,-0.0128734109231069,0.00997595665474431
0.0301795450469816,-0.0135053087358659,-0.00845594209098087,0.0106890310446602
0.0287467859570619,-0.0167073253182451,3.15347980458375e-06,0.00859076161083475
0.00159889320264357,-0.0107867778893979,0.0038934117513776,0.00505114188517071
-0.0357481331590378,-0.00755790843393726,0.00447741375104492,0.00243278486491345
-0.0596516959439482,-0.00766174538665205,0.00493754497613063,0.00103685934062379
-0.0643163169256603,-0.00269069878985718,0.00674605355572297,-0.000911035227964123
-0.0609531936870996,0.00672587357583648,0.00585958981141106,-0.00510803199050471
-0.0562632277182442,0.0117320200755071,-0.00276848587495124,-0.010010048372165
-0.0498179627297468,0.0108607955407597,-0.0144073718120673,-0.0101254528146589
-0.0430902537204106,0.01146849416192,-0.0204123436706287,-0.0018085552587692
-0.0334695236399582,0.0155650722440594,-0.0174358914468586,0.010200357102295
-0.0122710383530159,0.020152471608282,-0.00787074471374323,0.0150686153835802
0.0167348204521876,0.0227786844129254,-0.00101510187551128,0.00709420120143438
0.0303462453932101,0.0211350735855238,-0.00142745022329312,-0.00751423299977959
0.026041644229087,0.0166461163384318,-0.00318975773732015,-0.017181162974805
0.0228775690828195,0.0107781106800621,-0.00181871718987095,-0.0149846032843494
0.0155405324739467,-0.00011045350641084,0.00262537725036208,-0.00276583881876527
-0.0119050338855744,-0.00897791278518776,0.00721593057642177,0.0114213210991226
-0.0561103925252407,-0.00277024222482578,0.0131184557848595,0.0194784407638844
-0.0980452945850282,0.00565192367333562,0.0185291844667738,0.0175345087581111
-0.115656280726015,-0.000205392274270204,0.00936816384202889,0.00821591890385925
-0.101134273415281,-0.00747866185602067,-0.00496580471582612,-0.0013510374599211
-0.0662985968731853,-0.00469638911271763,-0.00497970204698558,-0.00681218933638832
-0.0375166542886676,0.00369707801703535,0.00453550124399569,-0.00869264382462171
-0.0211187494233901,0.012466603510403,0.0137752552689827,-0.00817266166748908
0.00301798020222813,0.0183561942099429,0.0148069893302938,-0.00570768059173303
0.0343398755800244,0.022390374573509,0.00382846294369159,-0.00229558936315357
0.0644358921344031,0.0219113199936707,-0.0153983012125945,0.000733803048738738
0.0888860936790705,0.0100767883349538,-0.0351584737800887,0.00263393137062971
0.087859970960131,-0.00196596958189981,-0.0423948798327563,0.00460256405235345
0.051026307418012,0.00456084678778615,-0.0318308114422929,0.00947473696905989
-0.00201563662940957,0.0214217318601975,-0.0171446149664668,0.0164453537469841
-0.0405666134777884,0.0281535842522519,-0.0114936997680192,0.0195424995677629
-0.0488768353110901,0.0202749514859782,-0.013202043220612,0.0152514221118545
-0.0385291270979796,0.0111058346390108,-0.0134733062676459,0.00640376359581649
-0.0310876937005796,0.010602796970266,-0.0076818628471064,-0.00210375846275212
-0.0256072214656606,0.0133981912784674,0.00235770590755418,-0.00678838358341414
-0.0169738905790723,0.0169268217068186,0.0153007719925662,-0.00611621663446214
-0.0118730078204509,0.020581930912977,0.0274409967306461,-0.00111317002420564
-0.0153803554305834,0.020347468593145,0.031539978854144,0.00455062496168015
-0.0254081807867754,0.0136113373039023,0.0292020059252499,0.008129133868507
-0.0257880977842344,0.00126505721025537,0.0254796426009625,0.00881240931227377
-0.00855806476842333,-0.0103469144741461,0.0190375188582661,0.003918570090093
0.0146210500596554,-0.0166571574911772,0.010912890602033,-0.00788828720931224
0.0368122149482075,-0.0187165824680717,0.00479338864853594,-0.0200082094184192
0.0525851263749241,-0.0199424714535185,-0.00238133929115144,-0.0223645580385162
0.0540857135526231,-0.0243457103866008,-0.0131914551520506,-0.0118512134572195
0.0484901014347015,-0.0265716813529591,-0.0228722775755442,0.00454005091414219
0.0459445001688469,-0.0163107629311057,-0.0240479610928747,0.0154203607776448
0.042989586189246,-0.00179387912866398,-0.0179506696475306,0.0143733811377489
0.0320122225018369,0.00150139396250498,-0.0139332742973844,0.00467886735899916
0.014112692482495,-0.0028802583760054,-0.0109989692861386,-0.00658793901789386
-0.00416705847912385,-0.000874942273015451,-0.00434179821675326,-0.0141078674965228
-0.0232075227294714,0.00766830588840013,0.00215053086356397,-0.0135598399303298
-0.0410810709257551,0.010155636570657,0.0012044121263602,-0.00577776473942453
-0.046318470591443,0.00144819395497726,-0.0106467201318004,0.00215614050754507
-0.0363683638737357,-0.0115227267029237,-0.0324016790887602,0.00601150744892121
-0.0232190092325176,-0.0123435678679674,-0.0492690609768862,0.00756709707662637
-0.0168116391782668,0.00276987216200942,-0.0394722667998303,0.00878659095411443
-0.0123994044217017,0.0129097120323792,-0.00853936835950382,0.00877814895126441
-0.0049158725324482,0.00947986571611899,0.018179717661434,0.00566194208690897
0.00217999565996498,0.00316282810416795,0.0263700142942601,-0.00103517562982237
0.0136447544588854,-0.00273253862808685,0.0170147167767388,-0.00840296386453609
0.0357956969426734,-0.00868640735498901,0.00189367547446816,-0.0122523355079202
0.0560865759259326,-0.00973744905582807,-0.00545723940750524,-0.0114048518354544
0.0567547401426685,-0.00876264101623949,-0.00696374172572306,-0.00766444824303952
0.0380906951503458,-0.016236854201483,-0.0141677209712327,-0.00354529735479245
0.0203249029112123,-0.0279024966989579,-0.0247791581887713,-0.000173698081991009
0.0250153466552532,-0.0352347353492164,-0.0256934986373138,0.00251332767870906
0.0500097860661575,-0.0394536108135432,-0.0170685882202942,0.00351141996623887
0.0716780098429718,-0.0336948484850209,-0.00753169036524278,0.000754357922170544
0.0742672636386023,-0.0139403872923331,0.00173454889435338,-0.00614849750638342
0.063838435183483,0.00443535788157517,0.0101703855023809,-0.0138757195050909
0.0469974141934195,0.0118998743871926,0.0159918518931973,-0.0181843176888392
0.0257560522537433,0.0137091467141557,0.0189916601857451,-0.0185680134493588
0.0059477172832426,0.0119445868365168,0.0173721022889263,-0.0186556271127802
-0.00388258067824865,0.00578763136457856,0.00992732494568173,-0.0213796468256249
0.00763524944846942,-0.00224624991563383,0.00134474834498399,-0.023578689247439
0.0228518626534601,-0.00872340833087798,-0.0047796508821182,-0.0183734226995532
0.00134256145600999,-0.0106925399635989,-0.00490005000736742,-0.00418745710853287
-0.048175540122488,-0.00742094179906513,0.00264645106730218,0.0124462305684108
-0.0739758267967111,-0.00488774684113543,0.00584730838279878,0.0235525974834744
-0.0606447619330355,-0.0125414342365309,-0.00493729327528225,0.0261824395694723
-0.0344825158856242,-0.0267995187339115,-0.0224959918133662,0.022714629120792
-0.0060692379691888,-0.0326055801698029,-0.0348355779999306,0.0169964125702588
0.0251769376849612,-0.027189328025067,-0.0366736549894243,0.0116627620901831
0.0407881176197623,-0.0191996267079148,-0.02764348331658,0.00743219552168034
0.0318553446264074,-0.0104911499488134,-0.0136365343965805,0.00317590208904576
0.0195122954806508,0.000681334836874575,-0.00428466611222477,-0.00173790901204322
0.0193781054806261,0.0116893875810277,0.00118159091303739,-0.00592661782184239
0.0255189868478126,0.0181773001668581,0.011556373966112,-0.00790782664792026
0.0340221903083003,0.0184042991166751,0.0263123317356077,-0.00753773364029952
0.039771142218395,0.0176368109892117,0.0393090809689262,-0.00543099943487766
0.0329010495477935,0.022008553679958,0.0484674946453564,-0.0021725281360039
0.0133609594858508,0.0282689407691894,0.0548929716737872,0.00178927472177622
-0.0103464310724771,0.030045008791177,0.0651011812942843,0.00527610018254701
-0.0267987150342305,0.0266568068211026,0.0795674703619903,0.00640500917711388
-0.0313395589708825,0.0169334207675575,0.0847247052473405,0.00457337020127279
-0.0378503066871854,-0.000589702249127258,0.0703029198174869,0.00189887870601435
-0.059731952547856,-0.0154342562610345,0.0432633334589025,0.00211203750225351
-0.0857080116289448,-0.0148294585801917,0.0160839046546647,0.006310058006287
-0.106512823772179,-0.00537579706582414,-0.0116210756141013,0.0110492912488562
-0.114081645419869,-0.00455618604315041,-0.0389921235873463,0.0136443117594891
-0.0793605623809012,-0.0154012912003968,-0.0509806463037291,0.014748721783962
-0.00436402076612435,-0.0257628768840214,-0.0474280059296118,0.0134148137033129
0.0542157547350099,-0.0291516724104484,-0.0523293507722911,0.00656150940524668
0.0535346128075909,-0.023529891438767,-0.0741992748455939,-0.0051731226893716
0.0140941474587347,-0.0102056713118166,-0.0842991242739666,-0.0148933262587815
-0.00770732196214788,0.000147456327451445,-0.0489428906371368,-0.0148050943047088
0.00754721616752583,0.0059028105378744,0.0134622530318964,-0.0040436890744022
0.0296975019392186,0.00920858758370502,0.0472712780657304,0.0103661109824146
0.0407253623104847,0.0136138331218427,0.0482579844927963,0.0187119848489083
0.0302773606039644,0.0252128930941955,0.0445402393643258,0.0155786500826425
-0.0106012862088741,0.0331738976996994,0.0388718253515927,0.00470014344036611
-0.053422801051348,0.0328942923939206,0.0363094284782893,-0.00608163904442628
-0.0701623071369265,0.0366019980775306,0.0407248195946356,-0.0125530615225262
-0.0682441550179834,0.0457428304827184,0.0418630255847373,-0.0126142082940203
-0.0573981372778444,0.048793883841565,0.0358492554045231,-0.00488032378456667
-0.0356473449890905,0.0415310582735226,0.0222041967033728,0.00752650678403005
-0.0148785034655662,0.0302642229902154,0.00432381896616486,0.0174891053351515
-0.0118088108225525,0.0209689572306745,-0.00922456392228039,0.0195153622018651
-0.0193260086104508,0.013876364412399,-0.0159330091122512,0.0134512675346735
-0.0239059020067322,0.0058120374891031,-0.0198388304439471,0.00363166419640873
-0.0176389826215227,-0.00264686251616694,-0.0356996271055599,-0.00478933248542232
-0.000247190467544116,-0.0086876154662598,-0.0590767773559791,-0.00887517267604584
0.0130997565464398,-0.00851909883163952,-0.0564124388386186,-0.00893361615017901
0.0153040891060288,-0.00885297728541823,-0.0282392405293292,-0.00764007549557957
0.016108665296218,-0.0152411775614357,-0.00730664157158263,-0.007343316366194
0.0198765517779922,-0.0158864268821782,-0.00125551439182412,-0.00860906493627982
0.0267825472593789,-0.0154893579648509,-0.00756835113058245,-0.0107429347814379
0.0375782443170824,-0.0233527404868254,-0.0273070960820245,-0.0129986027150354
0.0451739690632071,-0.0256521307000964,-0.0373002658770451,-0.0147150809329491
0.0386949401560655,-0.0133077127149709,-0.0232921041968282,-0.0144772164794066
0.017341083908211,0.00319408979929056,-0.0102820869076379,-0.0116931758017714
-0.00990046668758392,0.0138264506302568,-0.012445422352609,-0.00716827459273657
-0.0383648463842797,0.0222332926728247,-0.0138539903203048,-0.00122171379440348
-0.0612081969399555,0.0250161132007658,-0.0127601835898782,0.0055441378269927
-0.0687140699119854,0.0162699346650429,-0.0109112804924612,0.0110310122824722
-0.0625463572813623,0.00483738747077172,0.00500141363210315,0.0139011275607847
-0.0505641621079775,0.00231919808587967,0.0260570719120099,0.0153060865542503
-0.043213000840933,0.00756886611033067,0.0355860840015444,0.0148434428991229
-0.0458311864259003,0.00618331231705857,0.0364559135048171,0.00942103009640956
-0.0445142999427407,-0.0078918577891418,0.0277751792549151,0.000628102646268346
-0.0289294845695451,-0.0287027066696471,0.00110535331293265,-0.00475062419370789
-0.0121741487793525,-0.0456019952652657,-0.026358974876006,-0.0036041556883855
0.00215539416128545,-0.0464823262293674,-0.0273861299378005,0.000118682234210936
0.0298715099023798,-0.0302296296791548,-0.0137737113495225,0.000262161619469602
0.0662722555963374,-0.0123190016930633,-0.00871664849753328,-0.0053052541087192
0.0862747428508336,-0.00720678894820018,-0.00884878412193843,-0.0131185889514564
0.0778863035323258,-0.00628308500647579,-0.00389140602569974,-0.0184395308046298
0.0531958776433259,0.00091247042314271,0.00100559316668567,-0.0186515163851906
0.029463244476684,0.00353068500414228,0.0036371132677697,-0.0126541367273366
0.00918669934656424,-0.00317234392330505,0.0159314214602779,-0.00120006648777074
-0.0115035405793176,-0.00525885787980392,0.032416588867722,0.0114234771946891
-0.0294356827758143,0.00201537729454661,0.0377560338678063,0.0188436745408885
-0.0381460375224405,0.00666064003586972,0.0315292929301596,0.0167475765243023
-0.0379179659900938,0.00133735470036005,0.0187220665987635,0.00640590364655584
-0.0323128332440155,-0.00699985787772429,-1.30181052740569e-05,-0.00446890840980501
-0.0203878944182188,-0.0107169802283505,-0.016384025722643,-0.00709258729764423
0.0020256033053512,-0.0139161389829704,-0.0166967517309806,9.99709692228014e-05
0.0356619612874352,-0.0212707551356627,-0.00526620838713587,0.0105277560014999
0.0649148809686789,-0.0267184964640193,0.00466585383095557,0.0168244158972198
0.0682006475000093,-0.0255990638836474,0.0103389769278235,0.0169318365747448
0.0466929674636258,-0.0217575941938082,0.0140940803858813,0.0127668620545503
0.0172292803114033,-0.0168027651529367,0.0150263152113894,0.0066392014295414
-0.00135569174228216,-0.0101858453104707,0.0130912295306563,0.00099812131545325
-0.00256183464336449,-0.00278725098957686,0.0101564235218418,-0.00258024054308153
0.000976395955919392,0.00664050689604499,0.00832242412522455,-0.00600988590672193
0.0086037819454002,0.0157786528598819,0.0091783466026774,-0.0114858423637248
0.02581635491956,0.0191796911919051,0.00960907353571672,-0.0157960612310479
0.0409414966088027,0.0157716037090673,0.00392940560931602,-0.0142113148263327
0.0468792079656335,0.0107722786632785,-0.00749420176658006,-0.00785175055981852
0.0514884069899154,0.0157230190122348,-0.00850475987064796,-0.00169925315415172
0.0558728602115511,0.0286912906563523,0.00626067186542592,0.000725329514218498
0.0502970532250351,0.029278611895862,0.0147638470911293,-0.000338156259331894
0.0396060446168313,0.0141062802267723,0.010932392374848,-0.00158050895792424
0.0407806519344451,0.00367289064577503,0.00904031118751742,-0.000365571072336149
0.0541416479599715,0.00877546089630771,0.0167663277103147,0.00350011654376645
0.0663682311458173,0.0153534255461622,0.026703576531248,0.00831851450664717
0.0699289770154494,0.00953590236926851,0.0270126448478334,0.00999586987624997
0.0641452941444535,-0.00391166812063075,0.0155370318235944,0.00422398339202748
0.0547848394429665,-0.0149971367290601,-0.00747432799325386,-0.00703555262024219
0.0480214264048657,-0.0231388295277408,-0.0354570639091615,-0.015357097328665
0.0375036569743981,-0.020729303286125,-0.0431881751284894,-0.0146916501807555
0.0208757513602072,0.00462814211643405,-0.0171272666631383,-0.0072584107715621
-0.000740414113121278,0.0307327751921197,0.0121108873948208,-8.73886164502301e-05
-0.0250846691793017,0.0346372199215627,0.019053681968701,0.00278501592669489
-0.0353875042529612,0.030834728249412,0.0134943597645883,0.00300231446808987
-0.027409526786631,0.0314349255510178,0.0128430857948642,0.00344664086724027
-0.0164785048986323,0.0308855579056885,0.0241093367168428,0.00436205820715618
-0.0120966467004997,0.0233396752051875,0.0315567228004929,0.00397556674647858
-0.0123817024615431,0.0113709828651679,0.0250858093159352,0.00109853826871311
-0.010648111555002,0.0013469434831482,0.0181187742320812,-0.00336534398295364
-0.00372712424654633,-0.00378934566641192,0.0171569551223114,-0.00732677432603543
0.00113698463008734,-0.00315966683812074,0.0151668984290417,-0.00889209278118699
-0.00503167202847537,-0.00237283314708493,0.00764115563222972,-0.00689372648841021
-0.0235788832434517,-0.0124047289245169,-0.00205909529902516,-0.00179210432595173
-0.0441401040534473,-0.0288618796245153,-0.00769901988756236,0.0039634926732549
-0.0435028813896764,-0.029631479631367,-0.00328486458455347,0.00858417221127492
-0.0171234948840807,-0.0134637464562241,0.00679123999379358,0.0111127898021671
0.00699026462952478,-0.00217783512136834,0.0102762558539255,0.00826601533806265
0.0134673134717029,-0.00017903616318871,0.00857936192296994,-0.000233253789276079
0.0129000199241786,0.001766913246515,0.00871876883257187,-0.00673131194088024
0.0127450422194133,0.00182255289294796,0.00890893350677808,-0.0052041106226245
0.00991401000156844,-0.00471874279443898,0.00740059805822055,0.00168025642399811
0.000441813819653085,-0.0127550556769649,0.00691907873365769,0.00862762514213795
-0.0136124145649933,-0.0133913320386069,0.0108505418930958,0.0128763149720147
-0.0313795216914953,-0.00536599631868465,0.0190914934450695,0.0122593568957645
-0.0521150823529549,0.00197245567943512,0.0244086115135986,0.0050328979958201
-0.0688024701448186,0.00295592073059786,0.0221972833525928,-0.00535500092615241
-0.076158777721175,0.00220454808735385,0.0163471744541387,-0.0116248792171241
-0.0735702016245557,0.00330393447355947,0.0123304882041457,-0.0124290578330699
-0.0648193588160085,0.00329796481479608,0.0134615686230034,-0.012595777415889
-0.0584866062821482,-0.00212316934450042,0.0201417366233159,-0.0136394277661188
-0.0513745891996455,-0.0102965304219002,0.0279952540839855,-0.0135943720125243
-0.0407411781551597,-0.0128027203586767,0.032721483289864,-0.011580119634031
-0.0446321560363078,-0.00593954358959554,0.0340223398170063,-0.00651019801221744
-0.0594472950022592,-1.04127255836943e-05,0.0275185857007733,0.0024995178870121
-0.0643073585300288,-0.00747857498669934,0.0122798217711671,0.0133611222402339
-0.0627804099241772,-0.0175856858655642,0.00232412484545194,0.0227329928362489
-0.0521427402523748,-0.0133283440111311,0.007195024966165,0.0290971339789511
-0.0248660557329538,-0.00328651241284774,0.0120961451967478,0.0320844088463023
-0.00478708717932058,-0.00142647572441978,0.00600931835753998,0.0296521137995966
-0.0129334429364886,0.00312373533045826,0.00602440001755791,0.0196401171661698
-0.0388712185597907,0.0184846973108165,0.020177604554689,0.00440161871004216
-0.0630794862991944,0.0256105152638449,0.0231908458638715,-0.0104383008521965
-0.0632051924677235,0.0135619293559685,-0.0163361144829833,-0.020212686788464
-0.0226164769545041,-0.0056002684755875,-0.0924542575279209,-0.0217209684445589
0.0334331838781726,-0.0201287726347178,-0.135212210823475,-0.0149709815441788
0.0696790989634008,-0.0254660862762938,-0.0963818938748827,-0.00546111826878002
0.0837257835124064,-0.0179980178181659,-0.0226581466409372,0.00103668930992895
0.0698495045341673,-0.00188738123412265,0.0321602699494904,0.00304653946659044
0.0211808768498914,0.0114704613576016,0.059276391822477,0.00014038338862034
-0.0348499332432457,0.0188414009465192,0.0616186649053894,-0.00875856908231141
-0.0609712951000459,0.0190286874622045,0.0441834097485901,-0.0209148702875157
-0.0505506656970378,0.00689538986450301,0.0131924435686507,-0.0278765234138571
-0.024690763592407,-0.00911916837206813,-0.0205084713497534,-0.0237440580138668
-0.00553722744144699,-0.011925055988409,-0.0395054736249633,-0.0128038687559556
0.00223948624790352,-0.00202645970547645,-0.0364064452934162,-0.00319580307919402
0.00430833311658683,0.00660041606449874,-0.0232124040553971,0.00342077141940153
0.00664377180475691,0.008118559120608,-0.018256861257485,0.0100952731886683
0.0121641218182953,0.0064128120579374,-0.0226305315517888,0.0159117319884213
0.0172455687856231,0.00457417926949706,-0.0252054889855855,0.0159418357857798
0.0204309543301245,0.00279147511015339,-0.0236288542970851,0.00907957514196616
0.0153875140656421,0.000267549353787097,-0.0224303961316571,0.000875259644490882
-0.000736316990679657,-0.00169670779988895,-0.0235439979541208,-0.00259216341885304
-0.0124872029726742,-0.000299580330049992,-0.0236139468869654,-0.000825969296505234
-0.00996996495221786,0.00300994339732759,-0.0217988371426698,0.00246555087696083
0.00631166578320955,0.00467812903369042,-0.021943728850545,0.00398149021963339
0.0301313764712927,0.00518336059838561,-0.025121512675154,0.00274428074930522
0.0487458657799505,0.00853123953052633,-0.0276014794304063,-0.000217634675702813
0.0518799559512244,0.0131311645745461,-0.0262436766748555,-0.00263134569675516
0.040815585558409,0.0153199525988534,-0.0216208382754862,-0.00259972645309644
0.0296035844562623,0.0163386124209421,-0.0143958440408119,-0.000437148591370087
0.0205300406975035,0.015906715905163,-0.00523528929596146,0.0011229890172842
0.00525184789946349,0.0134610118264982,-0.000970092722165144,-0.000780762245107947
-0.00894544489964808,0.0095678719883234,-0.00374063375926066,-0.00540810403408457
-0.0130026140164256,0.00547614254324302,-0.000474502843955095,-0.0089337523752731
-0.0110824832856322,0.00390957427466204,0.00927773001315509,-0.00937546284133291
-0.0104444875012186,0.00394416994078399,0.0101307697392203,-0.00769940349709304
-0.0105138339399631,0.00170616053210713,0.000225527862482651,-0.00542005299104475
-0.00290551171601729,-0.0067379886474132,-0.0135506508450285,-0.00327379438421492
0.0108219148369296,-0.0211245649913419,-0.0259743106969889,-0.00109439832141301
0.0234752020818498,-0.0274544498035392,-0.0284557091949658,0.00100952774938576
0.0390364545957523,-0.0156882820699719,-0.0201178933022587,0.00233048586071137
0.0520800276020817,-0.00215384065435203,-0.0201041425281123,0.00306820188481916
0.0422620287144199,-0.00141984306928887,-0.0352841506522062,0.00489775643801848
0.00745699307023921,-0.00562349243895839,-0.0397787136064037,0.00818677774597473
-0.0294956818904554,-0.00513861309728195,-0.0208785377307774,0.0106141938596422
-0.0456915838132029,0.00136695331681617,0.000257560477924759,0.0101863356723837
-0.0377801605981013,0.0106377760480289,0.0108906794177124,0.00553948947807449
-0.0194140225234374,0.0169531642697267,0.0189522940247049,-0.00346415242365445
-0.000328259847413272,0.0155949121780785,0.0216871699677099,-0.0125706702319087
0.0228666388352662,0.00572945826702802,0.0127747182158178,-0.0156378021490706
0.0492233273263359,-0.00913770582578367,-0.00214185470217224,-0.00996150680907751
0.0551227148927767,-0.0161208558472938,-0.0157677149272647,0.00255786836801241
0.025090785353879,-0.00611796000320298,-0.0198128935797679,0.0166543398790602
-0.01565879513984,0.00762970425031864,-0.0144809411400433,0.0263850461819803
-0.0384468138751187,0.0101882781571129,-0.00624462159964956,0.0296066141597254
-0.0458035283700064,0.00517932094801222,0.00498886359059222,0.0277986460335083
-0.0500895313921205,-0.00088111819892139,0.0150018875090549,0.0207614421492888
-0.0505583369431102,-0.0117789232175625,0.0146279829053095,0.00875980747881218
-0.0462166969722622,-0.0218535677824332,0.00840392397395258,-0.00226304143786994
-0.0391604043616932,-0.0168752997535805,0.00521426218712859,-0.00811780627184523
-0.0256399509392285,-0.00299831673508138,0.000135404821016585,-0.0117519663038916
-0.00578253373336657,0.00513015585473377,-0.00567921532582192,-0.0153725552304892
0.0107161243661763,0.00668737699119695,-0.00482525044084413,-0.0171240761904527
0.0171387062183963,0.0046213018255576,0.000650272902948047,-0.0156074700963469
0.0186337688096158,0.00519406424823391,0.00791622612638059,-0.0112073217529521
0.0213059229172731,0.00989174681374391,0.00691985692785109,-0.00496067445788147
0.0282136155233664,0.00830874407715914,-0.00167184504039671,0.00188746870580518
0.0368086796500418,0.00437007256295282,0.000410298548832275,0.00754133896188109
0.0382345703386518,0.00563409941368391,0.015351189546137,0.0101054790992882
0.030709780825652,0.0110566167849878,0.034532008455421,0.00938860211601507
0.018215436851513,0.0191745892532455,0.0416971786666348,0.00671687923407295
0.00821500552220152,0.0191984075347246,0.0268332734798455,0.00338063390534028
0.0124662442520551,0.00837790855984528,0.0061211988974771,3.89914840818427e-05
0.0244738904217803,-0.00296103545830721,-0.00446087081648232,-0.00254950874737994
0.0140169147847741,-0.0110831211017175,-0.00693716239798119,-0.0032794678120791
-0.0263690459364939,-0.0139465722733525,-0.00948927505067285,-0.00192878748974101
-0.0663503740194316,-0.0125110023591215,-0.018089726715207,0.000372901368552881
-0.0829207653555426,-0.0132557998631088,-0.0277943728118639,0.0022321742954014
-0.0785373262102752,-0.0180367865321018,-0.0281883101955577,0.00280267977819879
-0.0620937361719836,-0.0329321020687477,-0.0285598150067164,0.00220384294046314
-0.0432331351981356,-0.0483891660062584,-0.0284172707559043,0.00139057593271687
-0.022070014675254,-0.0332319532980976,-0.0120561392235652,0.000611051966029917
0.010448983353216,0.0053392022962566,0.00853029212563639,-0.000812975338799484
0.0431548610409203,0.0290651485504031,0.0155943760588931,-0.00302814451588391
0.0602022956618017,0.0226469995061451,0.000932635732742965,-0.00535409616033959
0.0637739609463793,0.000379703541759726,-0.019169632524898,-0.00672927676818106
0.055691586303074,-0.0103084382616345,-0.00591678991699326,-0.00625176785275303
0.0351322655440048,0.00185298144235539,0.0321838004104789,-0.0046564352051996
0.0113211437788867,0.0231705395598291,0.0548743269113304,-0.00379323030833763
-0.00738386973386218,0.0337376039614929,0.049541787521521,-0.00404769217436892
-0.0218061244671452,0.0279466878882333,0.0275505262487921,-0.00454288896153215
-0.0286059390357246,0.0168327327334824,0.0105128617732981,-0.00441728691893494
-0.0236915867572759,0.00791517441842917,0.0118772340762213,-0.00315919360807299
-0.0140236187927559,0.00353546824014242,0.0238478988449069,-0.000775105202465104
-0.00740963420449024,0.0049269608859635,0.031252613441744,0.00293062162163793
-0.0025381844613801,-0.00139745572049851,0.0243810191879769,0.00762753071980653
0.00365988940752732,-0.0191197334199268,0.010253043689338,0.0112124797024515
0.0101004643122311,-0.0293290622366512,0.00594045837476866,0.0117022355452952
0.0152083829541233,-0.0287436358076089,0.00665574584352653,0.00916349022453064
0.017229781678694,-0.0272248235016173,-0.00143720316371648,0.00509127853955457
0.0142449665797293,-0.0271186110306787,-0.0109939613091565,0.00174410030195191
0.00521811502420981,-0.0260205012494379,-0.0125178291388795,0.000334176262933167
-0.00622229941154892,-0.0218740325921574,-0.0113806579035303,-0.000942973559597654
-0.00741914303535568,-0.0118286411405269,-0.0122770841610236,-0.00365782343814733
0.00670514752657735,0.00731098235195239,-0.0130191670947807,-0.00783074406313549
0.021169429985649,0.0302510536405718,-0.0118500907240591,-0.0158587425439225
0.0222256490274736,0.0366628575279225,-0.00738810508970751,-0.0295708217084041
0.0174975810120288,0.0116781678134866,0.00159952404196876,-0.0422412896222615
0.0168058248571791,-0.0136684960262651,0.0136125131044365,-0.0410330734301491
0.0171408055440195,-0.00518411304354964,0.0283027582680402,-0.0205502107352117
0.0188596789028234,0.0115559117251352,0.0390425859376169,0.0103193196949564
0.0255993792129487,0.0057058538643661,0.029208876534621,0.0356044867649456
0.0382924530981754,-0.00925690969068669,0.000902614051257092,0.0447053361278916
0.058991125002024,-0.0151298308641351,-0.016557528254729,0.0397916841937837
0.0812237613937261,-0.0115275421406884,-0.00446202203409365,0.0301640303134155
0.0911795794067923,0.00259986820700791,0.0232346678064134,0.0208240766912789
0.0811360270573143,0.0213834958183076,0.0410198295318062,0.0105500219311832
0.057156553933487,0.0267025672862678,0.0407712188218923,-0.000663693278889519
0.0264526691164877,0.0162036370391659,0.0344056725387887,-0.00898870136761275
-0.0192088739656427,0.00859537214115496,0.0358872647669595,-0.0125206978621921
-0.0761086357323953,0.0137690535663854,0.0471926724645179,-0.0136555712098255
-0.115497148155125,0.022057784765673,0.0571503502982263,-0.0145347353450115
-0.117546004466547,0.0231701690024173,0.056563916413805,-0.0148898608936114
-0.0937552651840266,0.0202154357089969,0.0428638996213913,-0.014076586425316
-0.0708983918931978,0.0210196730487887,0.0195581226274298,-0.0115905645724311
-0.0586141596718053,0.023138107381111,0.00178902208669086,-0.00774213202185495
-0.0434626387717907,0.0187128393582187,-0.0111453884712161,-0.00474820692184381
-0.00909432042371315,0.00289378035784721,-0.0398004513400939,-0.00424005201567593
0.0422530645274683,-0.019258547525786,-0.0704216509833821,-0.00444164604877811
0.0864126398951624,-0.0268804444287224,-0.063276689310276,-0.00275067172363615
0.0986025473086753,-0.0102569207864571,-0.0225129112303141,0.000586445198171968
0.0810423932275304,0.0106452999554459,0.0162239334788201,0.00353992835228199
0.0555438141233631,0.0159097286693304,0.0365610592863644,0.00508990948383403
0.0391972564476602,0.00314781924651518,0.0374006971828612,0.00676348610925331
0.0465509776943904,-0.0157321295246423,0.0292051778486082,0.0113723725064291
0.0723039343766022,-0.0210888172060558,0.0283100965415767,0.0178328962942583
0.0831588474363933,-0.00788450802721649,0.0334711126985145,0.0184341846847982
0.0580251475389762,0.00885066059052722,0.0343235997290854,0.00800783504554399
0.00411168357763192,0.0164975022758619,0.032089032612987,-0.00665905157810454
-0.0629649781646718,0.0145311215377898,0.0317841030053351,-0.0147271379180643
-0.118799202986443,0.00726408254600803,0.0311544493405045,-0.0127908339847308
-0.137578026972302,0.0036651564743985,0.0239450293747334,-0.00328784348492513
-0.122556453107641,0.011064817892685,0.0159562695223352,0.0109721079055189
-0.0998965099593984,0.0221110865147994,0.0138224216451438,0.0241346720011821
-0.0798718895967416,0.0264463632715002,0.0105763363818456,0.0262399545396651
-0.0547073848499516,0.023757192313998,0.00399744472144489,0.0135634673549871
-0.0285099471576988,0.0141253728955795,-0.00368653493459493,-0.00478984986737199
-2.31682386101356e-05,-0.0027394666633623,-0.0126658043317806,-0.0169435864908589
0.0364571662260045,-0.018721279859497,-0.0314693285436781,-0.0198943731839569
0.0625751712031573,-0.0271279109062048,-0.0561754145603591,-0.0167700786965178
0.0705061437327675,-0.0319195226424177,-0.0598497816739901,-0.0110043313294701
0.0833515184163309,-0.0375193799750789,-0.0420908113483533,-0.00573700133681716
0.115698937007772,-0.0397996918930425,-0.0231633736083403,-0.00204214849451657
0.132840986435296,-0.0343435553029519,-0.00568568599826567,0.00146603967076969
0.091901250765954,-0.0253105481227979,0.00330940348603442,0.00570104127386491
0.0293561882117904,-0.0121613484206195,-0.00441773779842541,0.00941531941102827
0.00595363318638642,0.00159117609736851,-0.0150829484499093,0.00991026274296437
0.0102988879567085,0.00417034870425046,-0.013224247904511,0.00653054551418531
0.0075088306319484,8.61866530605998e-06,-0.000556733724562442,0.00279978720459343
0.000434200870605118,-0.00318213766767926,0.0117143932486035,0.00196035091661637
0.000758559098106348,-0.00697970504265789,0.0196558896701681,0.00306161024205315
0.000979009442315423,-0.0108536462215583,0.0245104019885103,0.00435191598687841
-0.000730673023054546,-0.0111945102248998,0.0259520097992108,0.00581836950033321
0.00212084073132724,-0.00761595988221467,0.0251912387487682,0.0071285781430904
0.00580092104439961,-0.00526379031854517,0.0241558432143319,0.00760007819401071
0.00949192203682196,-0.00477726805582812,0.0210963979394469,0.00746346690035119
0.0132548341371848,-0.00319764903797309,0.0125923980824953,0.00682110485329472
0.0137125732570156,-0.00318159352793406,0.00422471863273591,0.00422834942308417
0.0139078522181094,-0.00483008415823644,0.00259668313872726,-0.00158944480060591
0.0132794469433039,-0.00455391667022776,0.00164562003105868,-0.00881879311710647
0.00403930376365532,-0.0047207857557452,-0.00741782804072146,-0.0134121977859072
-0.0151094373383212,-0.0106408309979725,-0.030133832033293,-0.0131694478040335
-0.0348300359426877,-0.0178718322024031,-0.0519984168451341,-0.0103228500301807
-0.0423685816016942,-0.0154229601426283,-0.045881113117912,-0.00982601943080835
-0.0327034769799421,-0.00353636512875694,-0.0210497222055262,-0.0134742766192574
-0.0217191700688528,0.00583574218720595,-0.00409428148874224,-0.015590903865821
-0.0208711522994485,0.00263676994273893,-0.00284227254178559,-0.0104499418255942
-0.011543111019009,-0.00815940936397736,-0.0119190853059455,-0.00221610786885424
0.0190045749238246,-0.0160611738383303,-0.0195084352477221,0.00211371031508146
0.0581887825467015,-0.0169212790773716,-0.0209911739888233,0.00383649186507179
0.0872515113296195,-0.00995692527032741,-0.0136280159133405,0.0075362222896725
0.0964095059065909,0.00117167268006323,0.00599827028930755,0.0128831301853579
0.090230912382486,0.0135459915986651,0.024384293695555,0.0156587122526719
0.0728633012637408,0.0204161830116472,0.0256145761461807,0.0112733755499627
0.0399661657751037,0.0170698136587023,0.0142118608061876,-0.00258904942361425
-0.00610319956609197,0.0128105135758648,0.00463453435909724,-0.0218585415192861
-0.0410705234068209,0.0127090634684506,0.00220393164385281,-0.0359714121216806
-0.0450517398486518,0.00993897092858823,0.0007295557023867,-0.0372870487645066
-0.0323490946035377,0.00375743406053588,-0.00349093102024388,-0.0273659445005587
-0.0297846434968093,0.000585748089697372,-0.00739039998792048,-0.0116084762068149
-0.0484042340761591,0.00227859988756042,-0.00957513247795764,0.00570080506349638
-0.0732338700821242,0.00643991808912877,-0.0107727701373755,0.0205059566573991
-0.0783537878415082,0.0081277153539656,-0.010992657237281,0.0303535584673365
-0.0587466381225867,0.00577497305821982,-0.00795858946470649,0.0357262029153586
-0.0320998693438885,0.00652842011528508,0.00225457018904249,0.0345463505179456
-0.0141597716263054,0.0106559200955567,0.0147483777216689,0.0226334842361985
-0.00767335000308526,0.00962448894357475,0.0164235936460026,0.00349294372988782
-0.00466540767967063,0.00524274071371238,0.0075490804023844,-0.0125083850621754
0.00144925991711641,0.00142099910055967,0.00336700587041995,-0.0201168406484638
0.000598079267386312,-0.000860575625073265,0.010157875211621,-0.0231085403207032
-0.0169648181866361,0.0037877939266026,0.0214651180099901,-0.0247718972833129
-0.0329010041304125,0.0147492373734974,0.0309539797329596,-0.0219018680109528
-0.0279238919908543,0.0196617531269829,0.033726984250169,-0.0128090170136218
-0.0169207783964074,0.0119862855280467,0.0285122382707609,-0.00194780101017209
-0.0175170765957376,0.00448149132448661,0.0155089530495645,0.00624872605147198
-0.0210410171357247,0.00690555014993655,0.00258572959648912,0.0101878315953224
-0.0194204570571988,0.00893275472217106,-0.00190376334812952,0.00984909301109496
-0.0186115365096237,0.00332822574219809,-0.00876957928800417,0.00676878944368428
-0.0206863637290348,-0.00014039233276425,-0.0204237272044229,0.00283818695668508
-0.0197777023452692,0.00586898907208993,-0.0286595553486375,-0.00153311283294137
-0.0158303850759195,0.0128007167709764,-0.0378153200816094,-0.00611697489453328
-0.0154288990106529,0.0105554371118683,-0.0434740931207684,-0.008896313416932
-0.0175729877200457,0.00694689810421817,-0.0314647486112117,-0.00785539806299801
-0.0144661462417342,0.00566250122940218,-0.004322827178394,-0.00442400025115966
-0.000559377852765523,-0.00685555701807731,0.00741092189767494,-0.00157394618946659
0.0231530274650278,-0.0157723925549059,-0.0080559935488671,0.00228596629582124
0.0433196903209564,0.000110756114416594,-0.0263350038715534,0.00995412786282701
0.0474417318164497,0.00806141961243803,-0.0440736332206452,0.018907658617185
0.0417303010554329,-0.0169565409192909,-0.0554348292006645,0.0250157769927027
0.0400748911754037,-0.0431218890516491,-0.0423433216024105,0.0261946820648875
0.0447976850421934,-0.0402784080528202,-0.0166667231711818,0.0222352221283366
0.040972605282685,-0.0156605151080159,0.00306019820127632,0.0150439835507416
0.0211420396036282,0.00379248065209523,0.0133856521655163,0.00734129666366762
-0.000691516154131308,0.00431711191809286,0.022044108437263,0.00159220603257284
-0.0159217271096359,0.00367125466502903,0.0376265768332044,-0.00168536751449476
-0.0303846785684763,0.0161312483313322,0.0479331887714671,-0.00507896961630555
-0.0411621616023989,0.0274642637079269,0.0368366477651587,-0.0101850382448585
-0.0470528832754944,0.0281315116157807,0.0166472740836588,-0.0150554016705912
-0.056019851754724,0.0235525965426082,0.00817642033275997,-0.0172034538414149
-0.0548819085997909,0.0138510567708922,0.00488973444679602,-0.0158814145322093
-0.0290158743706069,0.000841973533347695,-0.00930737456892328,-0.011780694070941
0.00298383934404772,-0.00824222759688988,-0.02838421040052,-0.00599557609069173
0.0185631585822584,-0.0147706933540919,-0.0410407307034149,0.000711650525294477
0.0257876097800702,-0.0207669104396623,-0.046606201171901,0.00781277334522833
0.0391134304831441,-0.0208035324532062,-0.0460162817145375,0.013392892719806
0.0545298023069904,-0.0129561186374504,-0.0396882450861396,0.0132443167863937
0.063358576068431,-0.0048256492102781,-0.032023526285265,0.00561518821608726
0.0622802860343254,-0.00124904710212974,-0.0272677359714289,-0.00417884654748879
0.0547743312434514,-0.0018845717378723,-0.027201757716242,-0.00897764013956479
0.0453422084700178,-0.0107119873960215,-0.0350939179844544,-0.00678223624397622
0.028656438716584,-0.0231961057847036,-0.0432375307651374,-0.000187345315562248
0.00466661058126559,-0.0250058075356833,-0.0381142856689139,0.00685900726182483
-0.014321311524256,-0.0146715620871783,-0.0226459805233854,0.0110717596234912
-0.0227092604433817,-0.0033794970470038,-0.00754501548140735,0.0108634260915724
-0.0230172932163397,0.00405305858675748,0.00367192733075791,0.00649194528036067
-0.0213530261378006,0.00782569994843418,0.0120910927936315,3.81836807868208e-05
-0.0219269097734776,0.00794981300976297,0.0197188720005486,-0.00498662333192705
-0.0214966053458738,0.0146525528192727,0.0239057525741815,-0.00631780629753966
-0.0165994792728395,0.0318474169634431,0.0204958565860909,-0.00468698744243849
-0.00902170905283399,0.0396812350407343,0.0143409854584547,-0.000932975627462263
-0.00274357047820972,0.0234210471154603,0.0093446440157683,0.00469094758973648
0.00613831273168747,-0.00380936458450382,0.00790292282194664,0.0107086110857579
0.0160922469488148,-0.0199798721513768,0.0117780416100422,0.0151723601615611
0.0132391000160273,-0.0186733085599525,0.0157715898612217,0.0160394385162314
0.00267673250415694,-0.0104452964026369,0.0167355560105334,0.0114193573392922
-0.0100710105955216,-0.00192107096702321,0.0189357008092437,0.0019466778534114
-0.037547860005922,0.00845480443149653,0.0247497875122263,-0.00813744694053436
-0.0638486678900993,0.0166373477451613,0.0194067834493284,-0.0136543090235353
-0.0590790722269273,0.0211947701277493,-0.01429074969633,-0.0126836245244249
-0.0340028349550863,0.0234495440276217,-0.0519226532517678,-0.00910707521450816
-0.0201867588343481,0.0210882560174175,-0.0471892111284516,-0.00888601992495786
-0.0238812946043286,0.0202927092479522,-0.00849278048886675,-0.0129395395505122
-0.0296486057534272,0.0255785330163411,0.0141063496413386,-0.0157443284165304
-0.0258977108842943,0.0240656754905795,0.00671434882639667,-0.0118355442374697
-0.0143746862875825,0.0121663235837539,-0.00289198789809498,-0.00290582884404796
7.87964096815169e-05,0.00408122604256822,-0.00430931391904504,0.00448981582743561
0.0238518768125699,-0.00304981454901183,-0.0138168238226589,0.00655416144890055
0.0511827939738341,-0.0188755714567308,-0.0273251616535244,0.00464319478882109
0.0602212318473623,-0.0276585050418837,-0.0273246635966691,0.00307167897939886
0.0459664984852396,-0.0168880375105972,-0.0156358102621754,0.00508547186502137
0.0223223452721497,-0.00436740543310681,-0.00268905204739998,0.00916097351792543
0.00623910629454247,-0.00559612758622079,0.00516399984013631,0.0113070030414862
-0.00188754058902363,-0.0100281888967556,0.00453240553397761,0.0102451409781586
-0.0142952804101065,-0.00472023879791151,0.00182856642572677,0.00735701570420759
-0.0253055797001264,0.00307940913398464,0.00424029990672413,0.00353106791275866
-0.0280134597597102,-0.00493938150352246,0.00487995606679623,-0.000834179191460336
-0.0432249549645104,-0.0185539698355889,-0.00131855605680488,-0.00455380374104506
-0.0761779569506682,-0.00958240283908918,-0.00758828292256724,-0.00651624652898288
-0.0951781808050326,0.0114987238118695,-0.0060258981910796,-0.00653319051958387
-0.0849724191704722,0.018236028965468,0.000601475272406645,-0.00546782973231296
-0.0634593427907831,0.0110060770869531,0.0031969815693945,-0.00498822779195085
-0.0412926646740156,0.00256731305291096,-0.00117918569720754,-0.00631384768789718
-0.0152410973174686,-0.00690331437665446,-0.00888355621007513,-0.00874247546598372
0.00725508767616791,-0.0214484111262069,-0.0180056296526493,-0.00991755888327217
0.0136974353765678,-0.0286475443895755,-0.0352348378468348,-0.0070276799228012
0.013570282364001,-0.017617389937569,-0.0517323257774143,0.00056859618102823
0.038024456572662,-0.000378503229937315,-0.0472827650668913,0.00768944474801018
0.0933894622427833,0.00591423775603694,-0.0237104767354043,0.00819042796316937
0.143914529765061,-0.00232672909006102,0.00260522338794372,0.00418259465283756
0.147491219984415,-0.013865282706793,0.0187022506584393,0.0007895876632387
0.0956578506186051,-0.0165589107786941,0.0218918839621233,-0.00346561421034327
0.0294817385714109,-0.0128177750048329,0.0130092267360197,-0.00991188141764285
-0.0123209581740109,-0.00481702262594905,0.000914534800379771,-0.013112958561789
-0.0327331226494344,0.00647033482029024,-0.00105208559681689,-0.00878437546454922
-0.0432897885965158,0.0113464649103697,0.00680207248979393,0.000752329239333709
-0.0481682882412529,0.00538269369173721,0.0190680868009096,0.00991408223276151
-0.045668632178464,-0.00438021863984627,0.0223686750751722,0.0132733644048792
-0.0255617364195106,-0.0140085518606344,0.0066916586715977,0.00999475026430994
0.00843126966994461,-0.0284048053484304,-0.0128115928425672,0.00503250508228358
0.0345626174394404,-0.0485034296527183,-0.0280723379237608,0.00222049148505769
0.0464454904137463,-0.0640674176342119,-0.0375283088960364,0.000497502412372175
0.0495777463275735,-0.059387833111095,-0.0219559518697814,-0.00237968716509635
0.0407702927578947,-0.038820036986537,0.00910978975161309,-0.00633555435798535
0.018315469022866,-0.0268550593102434,0.0193024109268187,-0.00977586007606226
-0.00994588635936196,-0.0211452071824269,0.0134757129510804,-0.0117203723473111
-0.0305729303785312,-0.00306545081023777,0.0120181696764716,-0.011466248364883
-0.0355216836696707,0.0188116888178073,0.00870999931118746,-0.00723180964750765
-0.0275650439558048,0.0369093948850361,0.00359148273283401,0.00133688174730957
-0.0212394925310465,0.0561712919473808,0.0070666712918271,0.0100755158823997
-0.0254902754944353,0.0603802981248789,0.0121468299384179,0.0140889221453311
-0.0240076212863669,0.0373447446733631,0.0073657521539726,0.0131251985551283
-0.00468073604683784,0.00944364171431196,-0.0079126682830081,0.0103613526150492
0.0184696605478248,-0.00647606255736119,-0.0287428998497115,0.00821256789458689
0.0249005369982256,-0.0192589775283218,-0.0365752103960351,0.0069627484936349
0.0151733508448441,-0.0337833727172179,-0.0194709468156497,0.00573265525966651
0.01359557686761,-0.04331479960217,0.00385970251169183,0.00391234344252142
0.030828712319453,-0.0414358268902141,0.0163808934371747,0.0013393655232052
0.0483538393561946,-0.0282396609035012,0.0228088900271196,-0.00141530184086374
0.0529322173204207,-0.0152068129707767,0.0272410458937535,-0.00279943958347027
0.0498749712416176,-0.0141677908802918,0.0254837767318339,-0.00206313268181053
0.0419159108812333,-0.0182414799841521,0.0137254628586783,7.50955940545487e-05
0.0243041244124673,-0.013727311996281,0.00142454019407453,0.00228387367213004
-0.00294405681043297,-0.00402628791560993,0.00298939027529105,0.00311063658387538
-0.022910486517674,-0.00021162478253986,0.00897345476722265,0.00139270774065371
-0.0207721395751537,-0.00123547697481191,0.00330684046467551,-0.00230091008853242
-0.0115889680388058,0.00613153821377623,-0.00684364574955579,-0.004553837082524
-0.0184352428664434,0.0293874248131797,-0.00532681979052983,-0.00377196167045929
-0.0316062060420826,0.049504865753324,0.00179122233014425,-0.00438626526091883
-0.026795040606925,0.039975363696103,-0.0131365245180684,-0.00930737572564723
-0.00759326252724232,0.00745675021464805,-0.0509677793809356,-0.0136629311439506
0.00444887998189603,-0.0173530986949925,-0.075203947374112,-0.0140211077409974
0.00152602042551407,-0.0148953853701414,-0.0591319661299893,-0.0144384879432936
-0.0096610466817916,0.00879211921281859,-0.0144192813647984,-0.0168013801233893
-0.029201366093195,0.0282665750268674,0.0217793587287476,-0.0159190566327911
-0.0526708214942332,0.0276404413048443,0.0317610402486184,-0.00771444306837589
-0.0676089834836857,0.0170647690167734,0.0261009007258307,0.00563566287308045
-0.0690817109350452,0.0114275994306012,0.0163685387430557,0.0190249332865056
-0.0553875019092903,0.00961521940014272,0.013564776035902,0.0280516969259565
-0.0347123853526617,0.00522140306684527,0.0161399555138951,0.0306521642636528
-0.018545035670778,-0.00210028818210389,0.00869423040299217,0.0276422106583746
-0.0103349589603387,-0.00910555313658502,-0.00241249461310053,0.0211813315946667
-0.00568651710456277,-0.0140639539775348,-0.00471974748577826,0.0118226250969821
-0.000275398787638048,-0.0234752459488857,-0.00764485998679744,-0.000817309787773481
-0.000787868260998428,-0.039682767831651,-0.015390044965725,-0.0133555177365159
-0.0110673135406144,-0.0414334981244149,-0.0142360593854786,-0.0206638738032874
-0.0208825361901298,-0.0157601711861771,0.000537050473368636,-0.0225214185466487
-0.0158428894883072,0.0121669442375268,0.013741047432349,-0.0222266630888738
0.00529648107299252,0.0258884413016774,0.0170699155156488,-0.0212976608605521
0.0265109976544408,0.0348235742609297,0.0120765239890919,-0.0197668281460474
0.0254310642620589,0.0362195476236292,-0.00263503075751977,-0.0175535273473451
-0.00293755840209926,0.0305920958590639,-0.0146047823116875,-0.0134101362842593
-0.0341141738376025,0.03219434758127,-0.0121939854959299,-0.00704781740309467
-0.0421818966873527,0.0334187449599423,-0.00185532633879141,-0.000793802460169513
-0.0354470829396707,0.0230826403927439,0.00537534652861234,0.00364228976506542
-0.0397308584137439,0.0132341571931018,-0.000124391004557937,0.00694110759190028
-0.0568746215398143,0.013092236245725,-0.00489380720505163,0.010148478820086
-0.0721503045112604,0.0140980473005664,0.0106563379718056,0.0125676032303696
-0.0731622032355855,0.00209247352733098,0.0229417235691805,0.0127339224406902
-0.0542969101504648,-0.0227022718980928,0.00202020944935346,0.0105296718424329
-0.0186243370875403,-0.0413041273261268,-0.0325674985683926,0.0070821997970193
0.0297589947410682,-0.0389452004634088,-0.0453865532917788,0.0039613581704652
0.074193822048148,-0.0209557024363104,-0.0332809725711767,0.0019293394888828
0.0815322314315688,-0.00393345950334483,-0.01296035690393,0.000435040713374208
0.0460805780994242,0.00395310059667102,0.00566607490704681,-0.000818144791972786
0.00527385194187056,0.00804127904753861,0.0165594884337754,-0.00122873415299609
-0.0100965608031123,0.0122023751386906,0.017847528633834,-0.000331531481615618
-0.00548934199114453,0.0116456916445833,0.0163557610985994,0.000716285834290657
0.00365955935029273,0.00693901686408763,0.0186807962171942,0.000133807687153103
0.00809866786680262,0.00586005419556685,0.0244036999760987,-0.00141325282145286
0.00145503017903952,0.00936954097654775,0.0265619570993067,-0.00101670749831998
-0.0105864533001227,0.0118573760815214,0.0187451888504421,0.00247509877385768
-0.0192874444162526,0.0100983020003058,0.0052824776054761,0.0065841423201683
-0.0260307767436598,0.00784909067443397,-0.00479065934193489,0.00815594739259983
-0.0334640787952751,0.00816943398417453,-0.00866750840058082,0.00663683515225664
-0.0371249412126366,0.00832690436904475,-0.00736400172983301,0.00405752350525703
-0.0311214954088918,0.00638312730267814,-0.005793034598549,0.00208579023854336
-0.0268065564244954,0.00334960156614963,-0.00643447580750044,0.00110569924657063
-0.0277218617148935,0.00123636117873316,-0.0079656750575364,0.00159750917039448
-0.016066165804186,0.00101155238777306,-0.00662056265634707,0.00363583987930508
0.00774616791138045,-0.00271661047070473,0.000310848145057035,0.00594133563574978
0.0290255210927774,-0.0155684233975597,0.00429272562253667,0.00676806148597801
0.0447756329243014,-0.0267602545668987,0.00377240621042796,0.00579844058183545
0.0587522785561632,-0.0241907893218754,0.00497076788760788,0.0037096567870145
0.0689957029084796,-0.0138312781266971,0.00359571726715915,0.000380152351702498
0.0723966473006193,-0.00565074952552568,-0.00481905782615592,-0.004458110070229
0.0609970888029181,-0.0019229921714054,-0.0147595305983738,-0.0100194999733364
0.0225557545711639,0.00248352436741335,-0.0155150426401606,-0.0145698781022917
-0.0316437155330892,0.0105892171114852,-0.0092004277442542,-0.0160351305364516
-0.0678613369442671,0.0172497262877241,-0.00775395605028038,-0.0128061263937822
-0.0764701443191002,0.0186576302732533,-0.0113695461105076,-0.00423174652295191
-0.0723891600930686,0.0170741767410753,-0.012223145457097,0.00886416505956121
-0.0605619355831986,0.01595573205082,-0.00734580835644768,0.0237256408401237
-0.0474286238913584,0.0161861753047612,0.000190134127603173,0.0357930099100211
-0.0410084419635668,0.0159291254387762,0.00992262879269995,0.038889382406889
-0.0340824836789112,0.0116902281046789,0.0200722106956529,0.0288811536074691
-0.0105121545939014,0.00360846781090759,0.0238370417245834,0.00989446382900516
0.046095652399798,-0.00599629774664946,0.021160198424807,-0.00816960411767684
0.108760648872715,-0.0174654498949982,0.0195868530577902,-0.0189751098909596
0.109889343581351,-0.0243713792104619,0.0243023904702982,-0.0225987674277111
0.0516986859910156,-0.017073172554809,0.02874418029066,-0.0218748788609744
-0.00369999811133361,-0.00142498342097452,0.0224729722314327,-0.018701690639093
-0.0364893414054687,0.00735873559190106,0.011122691502881,-0.0134686970579425
-0.0577137005593738,-0.000338813269895493,0.00802934935119765,-0.00854816855404382
-0.0562079766622258,-0.0171132855968497,0.00608846862584335,-0.00906165247820117
-0.0198818884408008,-0.0191811678458742,-0.0123881635555278,-0.0172711888022914
0.0182610221180892,-0.00133770229543177,-0.0305272379869615,-0.0268882164049181
0.0285962962771138,0.01796487731784,-0.0228546205605325,-0.0268699950087632
0.01750695720771,0.0252211332092518,-0.00607544787526572,-0.0137725822688512
-0.00908880026404638,0.0175739071493873,-0.000866207420647271,0.00476460459378281
-0.0329862034612177,0.00475970316486956,-0.00138035694920428,0.0196156362423627
-0.0324575603793108,0.000123697110329894,0.00771386822339989,0.0278217718870846
-0.0231651395791377,0.00491810385723869,0.0318213783814057,0.0305761774270739
-0.0229038509314961,0.0114019861837727,0.0531892216412542,0.0295296232080084
-0.0116469038830524,0.0130104987713521,0.0545624591320294,0.0253853804978287
0.0238540018576923,0.00817110033295513,0.0420030106233811,0.0165806692660532
0.0612194516275118,-0.00873695886870415,0.0196392620055202,0.00273868901732046
0.0769528292554044,-0.0304504064117159,-0.00891906150887323,-0.01185252460119
0.067470138771066,-0.0330739033366448,-0.0257300303648028,-0.0216121982544125
0.0470999188890703,-0.0215794430074624,-0.0292384227716143,-0.0238865572819995
0.0294960133054712,-0.0153568980156693,-0.0272860553350772,-0.0208014230890279
0.0145026731160147,-0.0101594050781492,-0.0215527026158212,-0.0177628292351009
-0.00133467261453226,-0.00464151511030023,-0.0249289108192293,-0.0174049761674157
-0.0145744381357265,-0.00706178292459263,-0.0450638440590336,-0.0171225763911209
-0.0173460942951291,-0.00898898127317957,-0.0548022466855483,-0.013177404851684
-0.0110416727890624,0.0027391349519979,-0.0209004812832611,-0.0040119059199306
-0.00641028700742331,0.0197504192174054,0.0340789376282227,0.00674039530748091
-0.00416912947285535,0.0232057067900209,0.0567617887087394,0.0122411491678666
0.00347402651137476,0.0108352342280177,0.0404309035149767,0.0103741392383441
0.00999443443028704,-0.00276052890800386,0.0191010312116861,0.00424180690434865
0.00469823966999772,-0.00878659370027708,0.00865862789646368,-0.00285730617852568
-0.00724634930308258,-0.0142597453396021,0.00110923877934297,-0.0105716609784631
-0.016412370551315,-0.0215513000995301,-0.00885466370640972,-0.0175216724623488
-0.0220181100535123,-0.0198886990061683,-0.0227076820095493,-0.0165977098487292
-0.0391293242913602,-0.00715004950756589,-0.0381775494022,-0.00429493444629574
-0.078359889038018,0.00483159836946149,-0.0449002475863382,0.0113588311561993
-0.106694592010052,0.0086867591985518,-0.040127489233693,0.020334776750168
-0.0937048469097043,0.00875109969360625,-0.0313380809479349,0.0211147851481909
-0.0584775970756025,0.00881370116032026,-0.0177803976659561,0.0177279599239742
-0.0166022889616818,0.00787020753221083,-0.000239507476660808,0.0126358674907422
0.0293704046263395,0.00439757849552636,0.00980671907681187,0.0065779512756893
0.0639205606789522,-0.00200185777635993,0.00481376320881215,0.0010500292089787
0.0874518456881582,-0.0108172467803844,-0.0130366666749805,-0.00241600962507341
0.116174143185073,-0.0208924210525655,-0.0305280895158372,-0.00345785950301513
0.145912273530728,-0.0289793381944504,-0.0291002189265854,-0.00282984416485246
0.1519868799971,-0.0293333710616921,-0.00708693829102927,-0.00159472878280047
0.117286511423846,-0.018489060143981,0.0190145016732175,-0.000302528507851945
0.0481058716294945,-0.00179552618757729,0.0374276774321061,0.000741445307272907
-0.0263113722242041,0.0152230686070688,0.0381080283145099,0.00089694862404829
-0.0804208036989676,0.0274619853147897,0.0184756322102353,1.42586420147544e-05
-0.106225825310668,0.028460969777068,-0.0011721052612011,-0.000654207493260566
-0.0956334304943596,0.019053858321444,-0.0125583377540519,-0.00021466195837052
-0.0651302862452723,0.00470298062670246,-0.0214041690813544,0.000690341295899995
-0.0509167077830923,-0.00831199726465916,-0.0223132746323528,0.00179455339722412
-0.0471847635110064,-0.0116659266990714,-0.0174629424059519,0.00393496580737961
-0.0295702812715276,-0.000147374775129777,-0.0144824818168938,0.00653758877733766
-0.0095034837218635,0.0162590870126156,-0.0164008519004717,0.00698118901511307
-0.000184256916296827,0.0227258176300588,-0.0177898890153933,0.00470035130967125
0.00647245103316866,0.0198783887642308,-0.0152802832776476,0.00279517077758889
0.0171437960651202,0.0130025071273341,-0.0261325056197566,0.00299972578104966
0.0315343361060964,0.00240586232912446,-0.0484076408206302,0.00311010117747025
0.0419080460128553,-0.0101104476012644,-0.0522279030446672,0.00134956839667157
0.0412339928837677,-0.0182789336840533,-0.0317547411283077,-0.000760028308156976
0.0338463646601467,-0.015794101775123,-0.00774342660089743,-0.00130534433047111
0.0291599261254556,-0.00654206647613615,0.00628832847916339,-0.000685281843987591
0.0313294106862097,0.00315616033013622,0.0148597830019326,0.0001625030583602
0.0365231032974981,0.0111605068499692,0.021185529290788,0.0010457075596872
0.037446722275954,0.0136978262784835,0.0213818398919834,0.00166673820080618
0.0315200957392207,0.0111283406331266,0.0179404736265484,0.00192857170809975
0.023238165690344,0.00730896081662588,0.0138619573804101,0.00202631862072553
0.0138913279625047,0.00567495675448672,0.0104401545935243,0.00210234006908403
0.00318024920189279,0.00937009411736594,0.0120459598127162,0.0021504003535115
0.00455788748385207,0.0144063159245554,0.0163039601392429,0.0016803899394689
0.0230849413310583,0.0131413240417736,0.0104261508598207,0.000225584088055392
0.0386762524133648,0.00411072916027467,-0.00734013765366259,-0.00137139037427748
0.0413480487128055,-0.00734618802893601,-0.0221770648911375,-0.00157968810784098
0.0381740081261415,-0.0133756121767349,-0.0258319941893385,-0.000567355399709662
0.0320716222650807,-0.0130980894419342,-0.0245186885952058,6.88192339959584e-05
0.0170411778483272,-0.0106620576421401,-0.0249735989962241,-0.000262843131326358
-0.00821336072529642,-0.00414544899265346,-0.0240310775801143,-0.000410216859939095
-0.0259797925010353,0.00610807812165804,-0.0194477127591259,0.00103533410107104
-0.0271071913898505,0.0108746054054483,-0.0179941456219307,0.00340843552190666
-0.0220232530421657,0.00717456123007696,-0.0180310640226235,0.00386526390420742
-0.0165452699728657,0.0056511530057448,-0.01235621926826,0.000353704977453045
-0.00842323604171641,0.0108675478332059,-0.00866945374475995,-0.00557370283585807
-0.000857466639655462,0.0138919913060166,-0.0125838804235554,-0.00997839769312979
-0.00640739743349973,0.0086849217561156,-0.0156796362942234,-0.0105626604888802
-0.0231823580743847,-0.00209391397545723,-0.0149260352003123,-0.00801575688614055
-0.0304501522976752,-0.00916644061818438,-0.0194825008558068,-0.0045603204727517
-0.0199646718709202,-0.00621172520758795,-0.0319703614079874,-0.00226047480273709
-0.00244588380483063,-0.00173335573218383,-0.0416827959835624,-0.00189145573818374
0.00814595345223299,-0.00816227071108466,-0.0459102360950904,-0.0023317454629944
0.00386995235993243,-0.0173440442520363,-0.0442352867846572,-0.00157118452269595
-0.00534108487668362,-0.0140159967138634,-0.0307621340327144,0.000783126627116937
-0.00215255743402165,-0.00437821691534379,-0.0170672464543407,0.00315594733250857
0.00421183648002874,-5.87066175165435e-05,-0.0153711279238915,0.00405017185068021
-0.0106807167687286,-0.000929052646129764,-0.0168360670767438,0.00386431349036696
-0.041019669739349,-0.000581485983264581,-0.0143450749195766,0.0039535790948474
-0.0628020940456369,0.00646352235178352,-0.00668075066631868,0.00418563684439043
-0.0727944969802807,0.0150975364504548,0.00387259793165321,0.00279990869353169
-0.0676671800590932,0.016379284787214,0.0107537077768913,-0.0012919218510546
-0.0456016759896354,0.0128975144755552,0.0139306968432084,-0.00634098966996161
-0.0377504282208452,0.0124679871650501,0.00929533528270196,-0.00883321563829978
-0.0505433855680928,0.0131615292510653,-0.0109325886514416,-0.00729395288970586
-0.0410443934863791,0.00558164724929158,-0.0427906192683292,-0.00340251277994299
0.0091419664312304,-0.00937904076675357,-0.0675186606494396,0.000455332255235566
0.0689966612752371,-0.0227002850012178,-0.0664389140971337,0.00222154222126768
0.0957619740238719,-0.0277530960411028,-0.0458322947031195,0.00150930148550565
0.0731668308244923,-0.0200829458492872,-0.021274875440182,0.000478865560078969
0.0270363384483784,-0.00611884610003153,-0.000271247803914819,0.000627383738352087
0.00171059394534,0.00205861714493517,0.00604132213570703,0.00121984901751245
0.0178270917715585,-0.0026371624664531,-0.00420325450068528,0.00144862074514716
0.0413488802924135,-0.0213281717928844,-0.0164154991910498,0.00196488411564994
0.0329429699527882,-0.0346354471998434,-0.0167382922483864,0.00326464381944216
0.00566336587293648,-0.0223307071598138,-0.00321526236884869,0.00332260522255775
-0.030840619323516,0.000151323583147171,0.0160447076280415,5.01432768759795e-05
-0.0755659998361563,0.0121813057139478,0.0298704353070167,-0.00459635554581515
-0.0948963931008096,0.0149346422409709,0.0272174348845401,-0.00728290415173335
-0.0729584471634928,0.0139050631331765,0.0114843332538299,-0.00751629307434099
-0.0366353992390227,0.0123717252101787,-0.00188382431912705,-0.00584730056606204
-0.0101608155286192,0.00985946676607736,-0.00736579088726783,-0.00243267170714923
0.00967714247085925,0.00497362335050941,-0.00766547621256795,0.00161503553015842
0.0249089288125569,0.00570895688769042,-0.00457122663330966,0.00458703296282746
0.0215044013938861,0.0142269477309995,-0.000982655497422807,0.00532292069272775
8.27412368129034e-05,0.0196084458548407,0.00246703600419773,0.00406931856660741
-0.0283193528917472,0.018862667674294,0.0124519922017812,0.00214399173407119
-0.0600825229895843,0.0164562454897415,0.0282484653136012,0.000439901985231373
-0.0826788286100379,0.0134382288621547,0.0395858635407254,-0.000902837558654676
-0.079886137057622,0.0109623956537836,0.0439270104396698,-0.00198465133409702
-0.0566217343081937,0.00797941719322391,0.0422451334448642,-0.00279243881164375
-0.0244871491468458,-0.0028446132120869,0.0377823044085796,-0.0029560757437413
0.00997730969933139,-0.0190231191343702,0.0365647226872618,-0.00218814881600987
0.0351836986694128,-0.028964634571729,0.0346566711401966,-0.000887087837441758
0.0502672743549491,-0.0274815746743383,0.0260481099433683,0.000372752316030252
0.077028977328823,-0.0156224720628651,0.0130584358932788,0.00130694437058313
0.126452085820615,-0.000569003711667897,2.20762402504474e-05,0.00164246525361361
0.175837748425265,0.00459062381157457,-0.0126403619266491,0.00120462147084165
0.190837892411822,-0.00509925384174947,-0.024639102637105,0.000430545342996894
0.147375418844036,-0.0153809681514659,-0.0238470336819841,0.000331934801434555
0.0583642789573706,-0.0139833056664476,-0.00362834052624843,0.00140495930793177
-0.0217595874278564,-0.00581366799679852,0.0208059908999413,0.00272104505784821
-0.0584309369029397,0.00069636856032251,0.0350293582130045,0.00282812612016455
-0.0796151319004847,0.00219387549717814,0.0378725935959973,0.00140389868716612
-0.109891633896627,-0.00244153989377158,0.0312151840827089,-0.000472945127333757
-0.128361770028998,-0.00622514950301364,0.0212242859233665,-0.00172974420612719
-0.114691308752321,-0.00205181857428969,0.0181607883942474,-0.00203713381858157
-0.071376757864649,0.00292180075852333,0.023732388830972,-0.001566853695199
-0.0196557225602777,0.00456209420362716,0.0357824549145485,-0.00110768508631334
0.0179704347366255,0.00668490116197184,0.0488739985058217,-0.0013245214101745
0.0402862140461428,0.00774929024879676,0.0551992930110368,-0.00167697236234301
0.0630316343884158,0.00294123972456331,0.0518826364896147,-0.00097481455572403
0.0868179829839919,-0.00880542728938822,0.0365651518757727,0.000849007505283104
0.0969605150343671,-0.0152391608672368,0.0200376764496178,0.00282323544347611
0.0920122887656323,-0.00339473102673822,0.019060368473277,0.00389154728190216
0.0779834107206758,0.0114832607010572,0.0241404998987193,0.0034384161935708
0.053246275600759,0.00915582527258548,0.0199187538920333,0.00255690952242071
0.0186429536214825,-0.00201774862544532,0.00956242688182912,0.00244422194795163
-0.0101850812544553,-0.0100671336020785,-0.0040104014183731,0.00201921327253256
-0.0209114577720276,-0.0158339935044533,-0.0312290410159766,0.000739354281287523
-0.0145360151141897,-0.0126361750553288,-0.0693432376011305,0.000802616438194985
0.000283576193119132,0.00167609503280157,-0.0895160684207151,0.00332202739836538
0.0167685123529333,0.00810213572343439,-0.0868367336293681,0.00630996079004385
0.0322017572984597,-0.00712932591042148,-0.0751604686047218,0.00741564130181799
0.0392268778212934,-0.0306826754498251,-0.0496944842478014,0.00608827447642908
0.0407069376026282,-0.0369680053163532,-0.00686480297376163,0.00305963812580742
0.0411136185047187,-0.0202713638933025,0.039161093069148,-0.00154790726013072
0.0307822909192282,-0.00172620281901591,0.0562121571544375,-0.00735329875694588
0.0103248009989689,0.00167381278174627,0.0367332303922478,-0.011593393209027
-0.0128744094068727,-0.00220990567507538,0.0126628578426917,-0.0114583341124864
-0.0343623184543833,-0.00147129346164856,0.00123863855042295,-0.00717542503362886
-0.0410299405780117,-0.00584459426023935,-0.0136927758744387,-0.000834432365744141
-0.0350189139783893,-0.0227228502376463,-0.0465061272677804,0.00544859314554204
-0.0360236587374884,-0.0266206002274794,-0.0694165486706004,0.00959817161028529
-0.0425906611889044,-0.00651270096366778,-0.0532734433465243,0.00972710286145336
-0.0403491518588396,0.00912598717619317,-0.0211710438133808,0.0059778567619533
-0.0372692747372428,0.00783400389728874,0.00379383681602116,0.00113280391797805
-0.0453681127021009,0.000578792566767991,0.0279391535299897,-0.00204488940966006
-0.0465531210270076,-0.00891234674237277,0.0490214772139208,-0.00303096334930085
-0.0247180731507448,-0.0185672311957053,0.0602324276492329,-0.00237999807645952
-0.00280073834697234,-0.0220568992080984,0.0623605205029037,0.00121708838961806
-0.0055472920348118,-0.0175604634748419,0.0535320174292198,0.00918455701226533
-0.0160365105056398,-0.00945289809951136,0.0343738822567292,0.0177416155101783
-0.00814109888333583,-0.00111773384882097,0.0125374563454298,0.0198448963050332
-0.00412099022516543,0.00663989079747918,-0.00883572416340155,0.0146806597408445
-0.0214755530189187,0.0155135063779875,-0.0374796459029729,0.0107828576079913
-0.0276250651514902,0.0255396440298726,-0.0678622752960814,0.015383850327355
-0.0129633105170776,0.0280164583100132,-0.0801296081190675,0.0244775295652175
0.00600767826554923,0.0184137998906679,-0.0702585068926926,0.0267450496697679
0.0222374643280033,0.00676549962374058,-0.0431214039097512,0.0139040695627752
0.0262300681133103,0.0039081837650362,-0.0101874707642092,-0.011380296161215
0.0122475150632379,0.00572746797787772,0.0114882504029453,-0.035633314438627
-0.00900768976800181,-0.000940676211485136,0.0166686904052366,-0.0474445870397522
-0.0191696538482144,-0.0184575446125461,0.0126231559508093,-0.0469474518462058
-0.0226205404575985,-0.0333863796299355,0.0117333562472543,-0.0384618644290428
-0.0348870053806379,-0.0323689637369571,0.0208863811591148,-0.0248740608070004
-0.0475754462967361,-0.0169792933543745,0.0366414515485973,-0.0109755265709097
-0.0467146541876065,-0.00484826719194823,0.046910275344917,-0.00157917360187767
-0.0281567136335155,-0.00677532782486852,0.0444689819855194,0.000921369921323717
0.00408340580529285,-0.00983539961834419,0.0382132432045611,-0.00428266752070553
0.0271270867541783,-0.00332197285395355,0.0375673789161751,-0.0107185834996432
0.0156922904032707,0.00842621052344125,0.038329079299227,-0.00701960801757549
-0.0189441636654461,0.0178793508207199,0.03344956765243,0.00745199215815778
-0.0385854002463204,0.0196726939904633,0.0246116482307945,0.0226284651210421
-0.0240426425411541,0.0157011289240981,0.0181646032260434,0.0320841807578731
-0.00262912465886879,0.0121745326226319,0.016691359307095,0.0335732324988678
-0.0163044442805538,0.0167977278568756,0.0181084978837464,0.0242885364775011
-0.0477659295435133,0.0254472821122529,0.0177617757337428,0.00753712727592668
-0.0495203593019426,0.0222068247880905,0.0187171370666566,-0.00712652990220215
-0.0255692797662062,0.00891190709573671,0.0261603363489062,-0.0152048257699234
-0.0104593975651682,0.00146147398982698,0.0298617503288494,-0.0193402967788873
-0.0127022990941059,0.00206289769197371,0.0298637888437961,-0.021856097204726
-0.0154406143680188,0.00186370252367965,0.0386325416027373,-0.0218332862244044
-0.0142681236402108,0.00609815789767078,0.0450178354746483,-0.0180238997246882
-0.0226207585212423,0.021538685098196,0.0365307075462916,-0.0117002171532464
-0.0334631285308109,0.0283984104902439,0.0303210489318011,-0.00761983777453417
-0.0100196881276612,0.0117594174285756,0.0334458569292837,-0.0105789272973033
0.0466543066185025,-0.00650079296060477,0.0252268492563734,-0.0187718522854535
0.0750977931287965,-0.000871250413956316,0.0120155553341889,-0.0251447104149237
0.0501312442942581,0.0157100184363312,0.0185617506741568,-0.0254889587546881
0.0157425672478346,0.013388405485418,0.0258404509777162,-0.0219494278237565
