0.00588595715760063,-0.00171960375458059,0.00219713303023372,0.00372790692396596
0.00369137937253584,-0.000624925486582404,0.00693806928900948,0.000855352521043316
0.00526767690657795,-0.00380971900983326,0.00898599528895501,-0.00225229266822391
-0.00954762734583656,-0.00419910600140632,0.010278248565228,-0.00460076942125622
-0.0481991179054858,0.00468116849894479,0.0101392461105256,-0.00526755244269291
-0.0791799660919085,0.0139485553026786,0.0115592596398655,-0.00446279563600377
-0.0663510263892736,0.00988116340709522,0.0162851319277418,-0.00296080897662411
-0.0204166167688574,-0.00394456267408923,0.01738117137381,-0.00148847965932348
0.0211611132548254,-0.0131197123819617,0.0115759468222847,-0.00120323201163808
0.041203019901412,-0.0134696562123671,0.00258693925962681,-0.00370802017050519
0.0436407944746763,-0.0100656785087007,-0.00414028513724571,-0.00934055909252661
0.0377740148172509,-0.00450121166543269,-0.00495302596653062,-0.0147512920468797
0.0305357243388812,0.00123183071815383,-0.00166885844675666,-0.0148705979914037
0.0248297810097716,0.00479025628351749,0.00161795866584547,-0.00807679800478402
0.0192902839445668,0.0123097871783677,0.0019900725028774,0.00264957018923598
0.0138383001087106,0.0283949275318289,0.00213048925117696,0.0130689323976236
0.0136375429902778,0.0400337317339016,0.00607877351319145,0.020667916304604
0.0154228258708411,0.0338810002275619,0.0110788455259335,0.0240227059853598
0.00908923787475262,0.0178104562689562,0.0127222401500379,0.0218110226750042
-0.00536216184888228,0.000961420366217963,0.00970428973030043,0.0148913881041437
-0.0174124628042589,-0.0142253961550079,0.00417564142590216,0.00655145687914034
-0.0184592407700954,-0.0198274147855224,0.000798613163625546,-0.000817822751483472
-0.0120350034501675,-0.0149778993773993,0.00100540967681586,-0.00667777422004602
-0.00658437888685443,-0.00895592579842825,0.0022829596290003,-0.0108012979879904
-0.004533449469936,-0.00698143894431025,0.00253589810954458,-0.0129479450400793
-0.00408323531758279,-0.00660646018721029,0.00220849631558227,-0.0131538425066387
-0.00435200748361086,-0.00457292909772011,0.00241119836679291,-0.0118064824776966
-0.00615951690404086,-0.00112836872910913,0.00140124157987656,-0.00952787958040829
-0.013612366581941,0.0019241263759224,0.000715972552725359,-0.00661424305698402
-0.0285684495031218,0.00294381501553499,0.001114920367773,-0.00325667143452586
-0.0371762708642953,0.0031449171294757,-6.61400864464898e-05,0.000193462170645925
-0.0275369751321594,0.00365776404689494,0.000209643212949881,0.00336560962378036
-0.0118390551841621,0.00433473072138609,0.00389952731369285,0.00567220340211712
-0.00334877649181365,0.00405595921189808,0.00592072621246635,0.00665339734534857
-3.90570667769888e-05,0.00216364740202567,0.00632736075113009,0.00590666782749413
0.000441233401116669,-0.000730173279393732,0.0093680690208064,0.00326611553886615
-0.0024870077087438,-0.00678358300140254,0.0112252241672628,-0.000496708009915507
-0.00686020239124871,-0.0129166077271838,0.00874608481062983,-0.00394998836816599
-0.0111744364793611,-0.00996388767398653,0.00557941216417389,-0.00557242370615769
-0.0136183839726909,-0.00121412140238621,0.00288395537387056,-0.00456952262045858
-0.0124237041433098,0.00240709954366188,-0.000766417797931498,-0.00149084792956977
-0.0109748988418097,-0.00106927525210763,-0.00419667699374439,0.00246580867108439
-0.0105008857865168,-0.00505028177975754,-0.00750295022259922,0.00733694870701477
-0.00479210556099565,-0.00418350671077592,-0.0117584748646741,0.0139504013871882
0.0200848477305433,0.00212317236446093,-0.0153924837169002,0.0195591558918392
0.0784681929719926,0.0140629315554731,-0.018005312250686,0.018560814696678
0.145304093809333,0.0232145392789557,-0.0189644260392613,0.0100909868570492
0.171584690417054,0.020589309553974,-0.0179262161838601,-0.000584713756182249
0.148403387464027,0.0111849509393372,-0.0156459475677008,-0.00826846230135401
0.101763013378299,0.00263852384982991,-0.0118194659301931,-0.0115739169553024
0.0559978041384748,-0.00207008187969795,-0.00862908812083472,-0.0119832679495817
0.020942873997544,-0.00157754110745937,-0.00681115601255496,-0.0110782283498888
-0.00324734695306722,0.00219286277491383,-0.00449484444227041,-0.00908739035167691
-0.0263542102032818,0.00411736089911824,-0.00201139229130998,-0.00614850762653275
-0.0692114574785949,-0.00226688848611735,0.000196161897014728,-0.0030537195180602
-0.140789003452779,-0.0209323228290175,0.00291585564876945,-0.000218993338185023
-0.217487537560041,-0.0468859780805917,0.00569800894582382,0.00262869134975184
-0.240902848616579,-0.0671608420656297,0.00822591785922642,0.00650847084266279
-0.169326922090967,-0.0658118133123007,0.00887801749320493,0.0122605870773883
-0.0475094777529517,-0.0378593759145032,0.00629930539805246,0.0175157124438024
0.0464457561923589,-0.00409117427295234,0.00418493049181806,0.0180245849483436
0.0916410464011725,0.00962078067251458,0.00315025828221944,0.0131686818221618
0.0995865057068967,0.000264302032735697,-8.6241091422426e-05,0.00619604305517127
0.0785886356223495,-0.0163816758308104,-0.00457697919993603,-0.000362682317728444
0.0538139221706184,-0.0229178422727544,-0.00750745889184882,-0.00612844793674514
0.0465843265717839,-0.0206857395105555,-0.00776187288563626,-0.0112739833511583
0.0471434984249254,-0.0211453788903352,-0.00552029310479402,-0.0162482058286764
0.0447582872256352,-0.0194152454417123,-0.00369180746424245,-0.0209574244379792
0.0450628799849913,-0.00438921295496619,-0.00542379008919451,-0.0232442162509811
0.0515933961920334,0.02033006357804,-0.00983892163031913,-0.0206702513173548
0.0508875500561236,0.0343463056883055,-0.0147770065136707,-0.0133728937366539
0.0294004898743531,0.0282615290256595,-0.0169205997527707,-0.00394971264046201
-0.00478203797435992,0.0202530180146217,-0.0161440661999388,0.00484449745349564
-0.0408749306151267,0.0147014928430929,-0.0176184119259436,0.0119964328418655
-0.0771749330281856,0.00143962624349857,-0.0203720655044306,0.0172170395435942
-0.099587686857358,-0.00750485775594752,-0.0207209863783189,0.0201701225448984
-0.0951160458110424,-0.00633390258643167,-0.0195312460204161,0.0206798135650139
-0.0771346397802774,-0.00878857651333924,-0.0169475883162567,0.017821592789415
-0.0632473978448173,-0.0155628903717901,-0.0123194022508538,0.0109014122484726
-0.0557963652085956,-0.0210467369510979,-0.00460732819331083,0.00135756572476952
-0.0504377435146921,-0.0305628691777631,0.00818431666947792,-0.00734680504110529
-0.044162881654054,-0.0430999653588316,0.0216115211519868,-0.0125390770394979
-0.0340481181656567,-0.0454096565253939,0.0271575370027915,-0.0143866007270677
-0.01917180582206,-0.0339911118505075,0.025471097559495,-0.0142581815575938
-0.00594290948178318,-0.019981082132663,0.0212507646155489,-0.0126638942962107
0.000428943028201045,-0.0185077660138513,0.0144061318391941,-0.00958624153647082
-0.00205730105122353,-0.0272870811446666,0.00595254987683742,-0.00643511829583448
-0.0162064988010703,-0.0238729314973646,-0.00251109615439686,-0.00527929302658991
-0.0300791044828684,-0.00767066341233342,-0.0100345053302459,-0.00611695683133434
-0.027154776135492,0.00378585291434948,-0.01460062747377,-0.00665576792740291
-0.0109904615626333,0.00516708565316595,-0.0167166057793157,-0.00503275828465199
0.00453697248606202,0.00165286618792771,-0.0177089838191748,-0.00197382704520343
0.012401962657938,0.00101133693498573,-0.0183374879268175,0.000696175664214762
0.0120235639325107,0.00325341088215319,-0.0176264802623618,0.0021000220634319
0.00439257341908145,0.0047726003680659,-0.0136078425634591,0.00270994932491799
-0.00571578706112488,0.00589614954182707,-0.00795946698845989,0.0030649637097684
-0.0133539780784927,0.0114675187509458,9.70970638237176e-05,0.00267691109204295
-0.0157628183307603,0.0303804732670391,0.0114624144647787,0.00136343538287222
-0.0102718242304929,0.052487373622157,0.018417600766367,0.00028214575047641
0.000388809994576994,0.0493549821108102,0.0161492454330493,0.000768013447610425
0.00846330959940343,0.022397262702769,0.0102386336378067,0.00247677914427892
0.0110582373819276,-0.000466597480734257,0.00670919665820102,0.00349903163292751
0.00869745853985897,-0.00956844750948345,0.00449642257397385,0.0028227458010648
0.000323619584707389,-0.0160345632361403,0.00196148538529352,0.00103373697542475
-0.0124954014101706,-0.0255010996239825,0.00023527900456722,-0.00106831007975102
-0.0212461852024339,-0.0309145108295686,-0.001925087203649,-0.00265592048043191
-0.0184655847807836,-0.0285454282137673,-0.00526424799789313,-0.00260781264376695
-0.00920533512763951,-0.0203766801807228,-0.00922337075382952,-2.39388932369656e-05
-0.00169254313371324,-0.00804165295171262,-0.0102046587409644,0.00486667714806777
0.00145605746968629,0.00568255449445422,-0.00722812901581587,0.00991494591533177
0.00238495007203956,0.0129327605152116,-0.00633510199018295,0.0117868320077417
0.00382311487842448,0.00407766735537571,-0.00737842140380105,0.00903773973635376
0.00273368657087857,-0.0137426135570874,-0.00724441651905884,0.00393679225023474
-0.00241656049638291,-0.0245286459808875,-0.00585573440318999,0.000114719979483261
-0.00731467723901513,-0.0292123230196433,-0.00266687187245295,-0.000911122467605271
-0.00870172505988414,-0.0373895944185449,-0.00111996152590796,-0.000322973678306685
-0.00941981569107935,-0.0489896320148424,-0.00341002054424863,-9.45584815378528e-06
-0.0131827163825084,-0.054509980011292,-0.00600388751904863,-0.00064081899765138
-0.0176275386077411,-0.0504648339364584,-0.00654611910940761,-0.00114818112902366
-0.0164573937623956,-0.0419733130014701,-0.00431081915969663,-0.000551505432092026
-0.00741269363015313,-0.0209692809177636,0.00133733179661504,0.000455230554192563
0.00687963759901874,0.0289814277288636,0.0103382570694998,0.000867597819092514
0.0234531679778302,0.0978380410249531,0.0223365787189642,0.000847211533681101
0.034259987593837,0.141948381551765,0.0304543745770033,0.00117898403687807
0.0316329678873253,0.126095699711216,0.0224144405472207,0.00202095459306302
0.0213362155813238,0.0684982720301446,0.00398466183148833,0.00274045070477832
0.0122982929324345,0.0224380904154584,-0.00422002776179405,0.0026531951402425
0.00584491726282596,0.00934496877474147,-0.0019705892832205,0.00181643084636424
0.00216939612411122,0.00561238175438736,-0.00380789906686313,0.000800568167034799
-0.00174263857096288,-0.00761805018452509,-0.0125877104814556,-0.000106739286981294
-0.0104210301784366,-0.023655399256013,-0.0201516345927019,-0.00067356080609346
-0.0204962753682369,-0.0326425597314889,-0.021234830653487,-0.000511071159390297
-0.0234438374409019,-0.0357111450477065,-0.0209177385625027,0.000296337123406314
-0.0186751767718322,-0.0327430231544542,-0.0223041263319071,0.000908576367239953
-0.017458686814955,-0.0193145183255622,-0.020228551142397,0.00102686513788665
-0.0202216163438423,0.00706121921699806,-0.0113276382900372,0.00160476540336571
-0.0126806901127521,0.0360781352912195,0.00275355025448263,0.00304523060667886
0.0129134521612119,0.0472629068622971,0.0169657466800519,0.00425253365742878
0.0381470592554381,0.0390244508512427,0.0265847299836908,0.00413948834089151
0.0293307414298083,0.0235365994529554,0.0299065954621148,0.00278844111820805
-0.0126926765416872,0.00716334996608932,0.0269536875781132,0.00103857732258919
-0.0436232183361663,0.000730158454460655,0.0212392944008861,-0.000335685934770022
-0.0303880683353124,0.011891531339064,0.018890371693833,-0.00107227000550493
0.00651641113087215,0.0273487119617338,0.0209561320907445,-0.00146442938315902
0.0270904412811915,0.0352595626167829,0.0199514513336353,-0.00186135919921083
0.0234165690814704,0.0403966538774035,0.0134277770442847,-0.00222564163709721
0.0144004114347912,0.0398722567781013,0.00568114986258767,-0.00243031182894893
0.0113422938042089,0.026920852333117,-0.000791255281060495,-0.00267556308697766
0.0150380816736491,0.0130065561559412,-0.00453822683481756,-0.0030661693202569
0.0319946984704696,0.0104028667659548,-0.00633187287047136,-0.00331205479254143
0.0591262290175862,0.0178599517563489,-0.00649271985991682,-0.00302083017787809
0.06584214932938,0.0265584562966556,-0.00496751403931026,-0.00193236528052742
0.0353715159635687,0.0255546948516799,-0.0030873455343701,-0.000102302531047093
-0.000589405349132224,0.0161109287354032,-0.0015234961943181,0.0020263688247843
-0.0113955475731233,0.0131274710277275,0.0013780174186395,0.00339801289688324
-0.00435380554962125,0.0205380169888175,0.00783891618997751,0.00312523313557809
0.00517161021853419,0.0250675829182021,0.0174686262218251,0.00157594567173877
0.010777945867296,0.020644989405351,0.0272876128504496,-0.000283021361900538
0.00838530321528031,0.0122095382365709,0.0308954541990461,-0.00167361249057655
0.00350231839617756,0.00607291323281699,0.0255911330756027,-0.00231181152558094
0.00403215773991186,0.00340140673188113,0.0192628009523465,-0.00237221425586866
0.00649591864837474,-0.00448641992087833,0.0178916166401156,-0.00218852984726523
0.00412874693054373,-0.0160267383811281,0.0171819542066519,-0.00229857928715565
-0.00313802149087405,-0.0174544918088847,0.0147136502192771,-0.00262693253037341
-0.0070004640637535,-0.00800694182928617,0.0139130201607349,-0.00249160774573171
-0.00175132163175984,0.000384533953525175,0.0131740097160683,-0.001822919450276
0.00599877226130587,0.00183094871515933,0.00915402339147217,-0.000749667429565692
0.00996238660366474,-0.00180295448567459,0.00343454872427566,0.000627434578508047
0.0103120427549006,-0.00578243598745192,-0.000445626392490539,0.0017695675058269
0.00833662771879219,-0.00731575519553488,-0.00153220987719629,0.00223259599208271
0.00674463132273801,-0.0081534667035251,-0.00115187504614305,0.0020587206311982
0.00621760575101553,-0.00883075095871537,0.000244402261623692,0.00145137799637258
0.00377206061110468,-0.00893889827072538,0.0031289702292028,0.00051205248219175
-0.000588901607167206,-0.00945054661232129,0.00597839710808238,-0.000621508946757116
-0.00255766339573215,-0.00960828903829416,0.00639633341025229,-0.00182488658237199
-0.00101570386459374,-0.00815095281343957,0.00534250950673922,-0.00251532571947839
0.00546403824580695,-0.00602311083759585,0.00422375342310457,-0.00155712457662997
0.0217062779616225,-0.00420593019615503,0.00345695942724034,0.00100927342706151
0.037743477068938,-0.0032571137409395,0.00352485389593467,0.00331674915279922
0.0308353190550473,-0.00434539751589605,0.00314872351073509,0.00365417496709119
0.00169205440894732,-0.00939306441543577,0.000822489933037459,0.00222776256249138
-0.0229820066630544,-0.0157906422550927,-0.000246431224423513,0.00030604767337728
-0.0294147078530205,-0.018674168993481,0.00145537735725602,-0.00141683982393122
-0.0246197894538065,-0.0183414912967888,0.00149765713474174,-0.00304876612788148
-0.0156780812913494,-0.0144596981531826,0.00113621265780229,-0.00479020746503163
-0.00624369646368025,-0.00732720266945317,0.0055932264444005,-0.00612596210584794
-0.00323702901693716,-0.00712741052244235,0.00911281683638082,-0.0061244127997881
-0.0111457031537648,-0.0171582109861263,0.00602079938529094,-0.00495300773612393
-0.0197426874117808,-0.0277966301464792,0.000217903865034588,-0.00390747358173963
-0.0202258672628587,-0.0318360094539979,-0.00415087456082136,-0.00423394795704295
-0.0164431038628879,-0.0291875931548993,-0.00511962815690837,-0.00652420730856595
-0.00920836407196712,-0.0228567242374796,-0.000724200173883719,-0.00935582742013915
0.00313058363934374,-0.0177787104391864,0.00600313110786881,-0.00932593944159588
0.0138535671261032,-0.0189973913401621,0.00838541346472751,-0.00442221349000702
0.0138745658092534,-0.0228955211201523,0.00716805537038547,0.0034548823005142
-0.000578835113993179,-0.0188955210765417,0.0055918700558909,0.010331459136194
-0.0245771978788592,-0.00434131706905123,0.00487820253503303,0.0136136795881964
-0.0421434408543281,0.00514432099851836,0.00338612127406323,0.0129718553223452
-0.0447649554311421,-0.00114034597463634,-0.000818592751319796,0.0094252620299306
-0.0406562734727575,-0.0141724356588604,-0.00405821197065601,0.00474978879625868
-0.0287649249797278,-0.0207357582563022,-0.00350264693946594,0.000692448988766208
-0.00133428433619662,-0.0153594209238945,-0.000577849924129507,-0.0020370715806597
0.0261178628823198,-0.0029244052762757,0.00184247500715586,-0.00356741688751122
0.0406857108211724,0.0139387731064296,0.000869248194874066,-0.00438747100185711
0.0518729772932515,0.0318967370098336,-0.0022471245381793,-0.00553331729033673
0.0639192385198008,0.0316588105656384,-0.00325823203297437,-0.00748618086978414
0.0605499566489553,0.0024684901812212,-0.00253002436193655,-0.00907267734965328
0.0408329592774438,-0.0312940956727209,-0.00461193168784895,-0.00881491772424001
0.041335169830214,-0.0350122256324979,-0.00877718979437451,-0.00641476699750827
0.0714089669205498,-0.0163877794202725,-0.0112353683157652,-0.00294317451772405
0.0819007588473428,-0.0142286132280506,-0.0115775095514635,0.000214208011310105
0.03355752143141,-0.0358810674046803,-0.0109216046895677,0.00295789060648181
-0.0361600303271608,-0.0540442318269106,-0.0117835199273472,0.00563089213636015
-0.0588511072561032,-0.0462631102688084,-0.0142088902411269,0.00704030251722281
-0.032102295910882,-0.0159259738703412,-0.0136190316824177,0.0060487536661963
0.0036159884269093,0.0150620640859422,-0.0102380365068229,0.00344652080049975
0.0238546769854791,0.0314484099953783,-0.00824204698106094,0.000821965837776339
0.0213826848283314,0.0331436902752396,-0.00688755278219155,-0.000639044683015788
0.007919385608203,0.0203024406976802,-0.00559533583658574,-0.000935567465082347
-0.00651334299822728,-0.00406719798761603,-0.00615412289245188,-0.000707533884072302
-0.0266125098592622,-0.0275872551481769,-0.00790846954050688,-0.000160650935135425
-0.0478537315164924,-0.0349165706589551,-0.00762146793481942,0.000641473197987828
-0.0502595341143392,-0.0232385285069279,-0.00173192762087913,0.0014259716707496
-0.023999174295108,-0.00506740516232361,0.00890889967355508,0.0018667340278476
0.0195241671396625,0.0129104492736561,0.0174706056987486,0.00222400086772351
0.0561343236463171,0.0258267349107945,0.0165610928885618,0.00338994800667232
0.0686091970830868,0.0235533934481587,0.0042106939138714,0.00519958097262786
0.061274843915856,0.00963740652052738,-0.0109191481889176,0.00584462142258018
0.0476354074448213,-0.000328306153780294,-0.0204610172415434,0.00422302858939501
0.0355811890061503,0.00451211733836308,-0.0247479522672522,0.00142705594040655
0.0233725462183891,0.0227357618060928,-0.0247198937503781,-0.000638207061713558
0.00643397668834208,0.0406449974316265,-0.0227348883246593,-0.00106471577948831
-0.0128962670367681,0.0412671738936132,-0.0223082389661931,-0.00042330449893391
-0.0320913201688111,0.0213386616547214,-0.019304543434226,0.000509663503620267
-0.0519605684257207,0.00273361566492011,-0.0109090456444415,0.00155802943117339
-0.0632618892702317,-0.000324922044809488,-0.00516017001767861,0.00238164296782773
-0.0527716126070282,-0.00329204441782439,-0.00560031183242485,0.00253695974082325
-0.0248213457196742,-0.0115377145471005,-0.00706275261049298,0.00185453415731053
-0.0002852902129373,-0.0128359132551025,-0.00387707181292343,0.000714489742186088
0.00956811713229924,-0.0124086592811261,0.00279196358396963,-2.68709717660633e-05
0.00864652257768266,-0.0244696424166293,0.00437114750558905,-0.000484955024631677
0.0062852376192379,-0.0407803837424847,-0.00337482203018088,-0.00191723076045442
0.00827112652528446,-0.0390279377965673,-0.0160173958104702,-0.00482270255709578
0.01126112223702,-0.013760628510439,-0.0253664412681573,-0.00786399939672784
0.0111638535551605,0.0184583932280111,-0.0285259436173851,-0.00879654172052667
0.00604303157089353,0.0424310619371207,-0.030938021293173,-0.00638503096878667
-0.00337662061794314,0.0596210204977985,-0.0326395250941617,-0.00119109443217576
-0.0136607816842451,0.066280190798308,-0.0304390575025267,0.00544719368341095
-0.0231362553929461,0.0526129718185178,-0.0247452229150819,0.0133593079105772
-0.0399772593379832,0.0283331871556349,-0.0165250163000133,0.0224145501409458
-0.0629199839724297,0.0128551321930324,-0.0113635368218502,0.0280294854476939
-0.0668092231548386,0.0114579790668808,-0.0110721167219974,0.0237911250549565
-0.0478037371595554,0.0146396491615181,-0.00958315398560181,0.0102292407622231
-0.0278126262731257,0.0143242627172585,-0.000904147274702182,-0.00496104508522263
-0.0134867179783696,0.00506993003266368,0.0167150589308011,-0.0146779275866773
0.00127912379652329,-0.0113422635579,0.0336185747520622,-0.0172473599225135
0.011120168560421,-0.0275332679680715,0.0371948754532098,-0.0154619297746091
0.00757509864910933,-0.0402123031634189,0.0307787477241165,-0.0125161545874215
-0.00276192055801157,-0.0394386891863083,0.0257606104485717,-0.00963241818776974
-0.0150757462361821,-0.0263318786198174,0.0204088362757242,-0.00677863735280518
-0.0324576401711347,-0.0224414815164347,0.00701672256364121,-0.00400240784172264
-0.0434652138118507,-0.0360837335117815,-0.00920571778900981,-0.00159361802137599
-0.0368880040630394,-0.0516940441342474,-0.0217531365802983,0.000478165086112911
-0.0282008593072293,-0.0556504614066713,-0.0297376780679726,0.00213103696334255
-0.0264204650012777,-0.0518714302957564,-0.031972714237929,0.00318105886663554
-0.0229692143231434,-0.0433406186149344,-0.0287298404327519,0.00383295711373982
-0.0145969392815063,-0.0194138909150122,-0.0193794692793238,0.00412330627190554
-0.00205128993278685,0.0261682896947437,-0.00558150420612296,0.00386489374055538
0.00968237503464888,0.0641737942623124,0.00466014021886245,0.00325802246972541
0.0148893876784277,0.0600057093906824,0.00662983242935365,0.00275622110277818
0.0164245018811449,0.0301638118069232,0.00568280867518312,0.00259551124634527
0.0235518367714174,0.0157675677485641,0.00827075496049301,0.00267718348989076
0.0364997513136441,0.0265254749740913,0.013437158306562,0.00245072780456022
0.0403741258082293,0.0370996443582916,0.0160351246146489,0.00150710653718255
0.0268626480310619,0.0343255458547078,0.01435054407417,0.000486036019616097
0.00312121374213462,0.0278926297270727,0.010751389199956,0.000975171396475831
-0.0212639539482671,0.0141878041940228,0.00604340708942405,0.00420799436991148
-0.0368560209794278,-0.0140363219775256,0.00172359715132197,0.00857064750609184
-0.0385620446073272,-0.0425200093186001,0.00144941527363046,0.0101127977460695
-0.0301924314838938,-0.0530932807558236,0.00623839404848548,0.0070677367476413
-0.020340638114382,-0.0514343028083018,0.0141503896364319,0.00112090511974645
-0.0165411618693628,-0.0497022106347471,0.020244762185757,-0.00576890754639836
-0.018574104403527,-0.0428095949968866,0.0209119796198668,-0.0126924257925402
-0.0206965471388635,-0.0304352312569604,0.0180939296965643,-0.018440253965507
-0.0190793607455767,-0.019276043974931,0.0144984068524258,-0.0216647139387564
-0.0142062049854194,-0.00832428780171966,0.0113002680097165,-0.0216759377232682
-0.00805125464923925,0.00424409879845292,0.0107684748596028,-0.0181413757886733
-0.00138555018472129,0.0189419282471825,0.012517467091342,-0.011618765881492
0.00583825950921546,0.0400108545677894,0.0125584793961777,-0.00408165437191556
0.011561385230982,0.060808248509692,0.00984330918589696,0.00257989118080351
0.0125787007400473,0.0609455490533966,0.00626130916753961,0.00757339006273019
0.00930602996687616,0.0390927305918398,0.00340325284241862,0.0108903271673353
0.00727945681676395,0.0155025839180758,0.00260195389348653,0.0128328371288234
0.00968683260337664,0.00590944423334676,0.0027384097931112,0.0129945447790791
0.00993054283927387,0.0128102151054597,0.00122594114482639,0.0107571480997966
0.00217923121997801,0.0249705733349699,-0.000522181049414898,0.00671264852056602
-0.00675644400492262,0.0253865595293251,-0.000314604238446838,0.00230549200419712
-0.00672084963964805,0.0145489141485462,0.000839445041659562,-0.0012946838303847
0.000535928179985918,0.00665052259964997,0.00158742505207298,-0.00378319635617015
0.0079387479767284,0.00755502904160036,0.00120112644329869,-0.00573774960125895
0.00881229547278878,0.0148395914195869,0.000305477958429586,-0.00745983212885563
0.00128700653108288,0.0247038328289048,0.00123456860733746,-0.00833468935021102
-0.00710330565921352,0.0339292799225331,0.00416068627461948,-0.00805676870416359
-0.0142301819745116,0.0394284149258566,0.00555186363746108,-0.00702156564561244
-0.0166140922598087,0.037115205538218,0.00334230654063184,-0.00577543188002146
-0.00696864692268511,0.0264709799765191,-0.00109743627157275,-0.00474659423574686
0.00990892152876606,0.0156976751484097,-0.00374463687848052,-0.00417249870541749
0.0230548865713873,0.0122748464738804,-0.000801821360070572,-0.00409032089717179
0.0307355965112636,0.0129766894848741,0.00391640550887302,-0.00422251816036058
0.0430938078096301,0.0155509677026215,0.00362570924963116,-0.0046111443838896
0.0626200427680078,0.0222765564311828,-0.000221928701053499,-0.00518142877491738
0.0705177454581333,0.0243297673026075,-0.00291809695552267,-0.00492418189877015
0.0481720652559886,0.0145586580940091,-0.00380535587947632,-0.00318248535419404
0.0115481937104731,0.000416389958379781,-0.00622023615387496,-0.000801018626231045
-0.0100690258958697,-0.00593453577446748,-0.0118967412481033,0.000813047572031104
-0.0139132601259827,0.00102495898034645,-0.0164531826472842,0.00155214511563363
-0.0119401309209049,0.0134563661953376,-0.0189636118571092,0.00211134947664754
-0.0168911618065352,0.0193873455837829,-0.0197479636624034,0.00264810255907243
-0.0330622054965029,0.0217406145839781,-0.015986917613422,0.00340942242304478
-0.0408913281539937,0.0340137456548686,-0.00858112234502358,0.00459515187619537
-0.02519895810796,0.0485631765089381,-0.00215622383598882,0.0064371779828325
-0.00365906396335065,0.0404324514570365,-0.00145693367880833,0.0095436684311938
0.00196441865151007,0.00660600568612407,-0.00350845520333626,0.012366693240183
-0.00155389717381836,-0.0267343994684323,-0.00204081680294129,0.0110103208395389
0.000810314179569664,-0.0379954551064491,0.0004441684036759,0.00430681387016407
0.00381200449968355,-0.0331368419869611,-0.00238602152846598,-0.00343444450254918
0.0018109819503353,-0.0284108587472693,-0.00881779441337644,-0.00710641061632217
0.00964990131917159,-0.026082433799205,-0.011195903507228,-0.0060888859092863
0.0353553096569698,-0.0226562845725707,-0.00516404520891013,-0.0031015370761492
0.0594290384683614,-0.0181190585013895,0.00453553112855029,-0.000375559534108539
0.068803137959337,-0.00860514198546308,0.00921558610213254,0.00176726317250714
0.07036871682848,0.00799822400180565,0.0105469857689277,0.00363332188583442
0.0687504372239021,0.024554246671975,0.014527532740221,0.00497713749430363
0.0513502133000112,0.0321648751873696,0.0176714985794378,0.00509389239813209
0.0167105831276132,0.0306638457750794,0.0160375643216806,0.00373454798749182
0.000747066487385609,0.0236741215482142,0.0161546453096368,0.0020107601266555
0.010209981698278,0.0125077479628777,0.0217486872072518,0.00136502525308427
-0.000505334767530133,-0.00419679599625501,0.0231571350925481,0.00195066896267573
-0.0443631888790683,-0.0251036740042358,0.0115345232502816,0.00290214125117886
-0.072521318227474,-0.0370143807219187,-0.00586310694922346,0.00375977548136085
-0.0492148127780494,-0.0324549191763435,-0.0179725337147217,0.00464209663694223
-0.00120201135395261,-0.0193056073701094,-0.023969967615777,0.00552618480286384
0.0255109993730443,-0.00709191724221623,-0.022796289892743,0.00606654023370612
0.0153887998538955,-0.00690038263151085,-0.0161237379769944,0.00591953993917356
-0.0125408336041185,-0.0219463378127491,-0.0155294912514591,0.00543321552385059
-0.028633692476167,-0.0374653728218799,-0.0214677330443469,0.00515623778037431
-0.0245754452117333,-0.0409666105268411,-0.0206803983643909,0.00502830228346099
-0.0132252624513721,-0.0354835171123964,-0.0109058774875737,0.00479059868805462
-0.00226427007795958,-0.0276310253363255,-0.00120496873021148,0.0035779405471699
0.00368926211718336,-0.0190656299240666,0.00592438560501131,0.000621518292492212
0.00236695323980229,-0.0101170559398287,0.0128652393881859,-0.00297215584990935
0.000807835868649881,-0.00160257552073692,0.0174291142180457,-0.00545988387658993
-0.00141574349649862,0.00402105696835698,0.0175683671867343,-0.00610913546976103
-0.00920478623588769,0.00303973596490537,0.0166021362402545,-0.00528100378983814
-0.0162094728162212,-0.00426820535736667,0.0158982319010167,-0.00397959897082295
-0.0130754206575912,-0.0117073345052852,0.0141210153212239,-0.0026302727145835
0.000625240335632209,-0.0107566455909972,0.0132036935491097,-0.00138066568472182
0.01406385597429,0.00112650310200818,0.0132318808900336,-0.00115529070917749
0.017128286873796,0.0151499355108639,0.0122912389123498,-0.00185130523070208
0.0174522793607191,0.0169936024194549,0.00955111923887913,-0.00159951206354777
0.0173629337394681,0.00342799333069128,0.00565254517208755,0.000521069947094145
0.0042514846570937,-0.0126700984240464,0.00157517777932328,0.00358238252268278
-0.0152363840244921,-0.0211699865427115,-0.00381972408297444,0.00610704353338087
-0.028834777208959,-0.0230680315166956,-0.00919323090151778,0.00683716728788841
-0.033919985481719,-0.0198852509920581,-0.0110612891115849,0.00551219498304166
-0.0207664981779393,-0.0140950019952487,-0.0107850347740548,0.00291114742617818
0.00489921648019073,-0.0095430772999908,-0.0114821731712582,-0.000122730057569303
0.0213341305720666,-0.00701471450836108,-0.0130649401229839,-0.00289972595395592
0.0266677365045104,-0.00504555547688015,-0.0141446832608241,-0.00488944243110638
0.0381273273227517,-0.00241179868236317,-0.0152640669734026,-0.00598864875453857
0.057980981694677,7.27868903667309e-05,-0.0160470563491246,-0.00652606732452811
0.0654908486582299,0.00411008144350041,-0.0156533846269575,-0.00680952603690988
0.0584185515240857,0.0130788343627548,-0.0156661750203081,-0.00662146913881898
0.051179949737548,0.0207897038825295,-0.0150449178064551,-0.00586084281224574
0.0229471734747544,0.0139732095749345,-0.0113875592148238,-0.00436271064142001
-0.0378979126302315,-0.00785608734054493,-0.00736157386885741,-0.00123712629851
-0.0795266912560941,-0.025353579657876,-0.00602613305435918,0.00351073886252302
-0.0674217489468762,-0.0193292216150396,-0.00641742012419514,0.00795289918389908
-0.0298690021596962,0.00694510601963859,-0.00692523356527423,0.00988618311103913
-0.00488989748712051,0.0266568541289867,-0.00771005451770014,0.00863971380983641
-0.0136303436528935,0.0206203997071189,-0.00978473388423288,0.00483439366495439
-0.0462358211456972,0.00351200140586216,-0.0113637807627506,-0.000143749609491059
-0.057057384703021,-0.00432951478504841,-0.00851874701320583,-0.0042843546937011
-0.0236561715753874,-0.00343874183199881,9.3448762474968e-05,-0.0064868844301774
0.0230328056040372,-0.00618306540186326,0.00984788177868049,-0.00690178758514524
0.0502793218231731,-0.0145700939064749,0.0155972643764399,-0.00606395263722502
0.0560261703963585,-0.0162711571461631,0.0143928609630099,-0.00481954763957607
0.0500142218664685,-0.00900097839839184,0.00623842857012859,-0.00388867109786247
0.0392050740940701,-0.00162804802456854,-0.00424599232301937,-0.00404692369864649
0.0298051025881585,0.00254037433593584,-0.0108564156378083,-0.00593460491292149
0.0239342073076835,0.00500298382434052,-0.0107194582615882,-0.00792143334147907
0.0182089220702563,0.00363643110338788,-0.00810777167879755,-0.00700975005198776
0.00852296685404305,0.00113096555831485,-0.00653980926978152,-0.00246685442489359
-0.00242502943576877,0.00401577630361708,-0.00444919589944576,0.00390777659701379
-0.00914676847614097,0.0125532558213875,-0.00200855125895958,0.00953541564783839
-0.0153574196741835,0.022386435291971,-0.00102883209765374,0.0124556539355934
-0.0225295842465559,0.0225998524247345,-0.000708166746605382,0.0123103901652447
-0.0252514584551917,0.00991037618567833,-0.000821118173159651,0.00960954873249842
-0.0263683533501932,-0.00624541057720431,-0.00222675677506661,0.00497986552103248
-0.0321254119582277,-0.0195826670531085,-0.00179142457370198,0.000115194562100653
-0.0380463341945112,-0.0333896792838953,0.00090199645838695,-0.00271696874717261
-0.0383633598359027,-0.0497871315255974,0.000213837435125642,-0.00356656686366896
-0.0365154316999266,-0.0588943690064368,-0.00260237718177528,-0.004607615983623
-0.035252216005451,-0.054933271873004,-0.00358234493411942,-0.00634967323046197
-0.0324307991434879,-0.0472647334180175,-0.00536130839094722,-0.00730335176278664
-0.026453661519964,-0.0426332278567097,-0.0090842927922392,-0.00678632329450068
-0.0172417515301115,-0.0418345988809438,-0.0122313014864075,-0.00554889718524612
-0.00354015055689307,-0.0433874950724586,-0.0146097628953323,-0.00437017575556902
0.0107694657212707,-0.0381660379196073,-0.0165005781373389,-0.00350865895805326
0.0188368573867175,-0.0159512258149461,-0.0120794098820779,-0.0029040880487018
0.0185417421661463,0.0266073914999456,0.00161748669432673,-0.00191319243708753
0.0139338089435346,0.0631560313174299,0.0133267105367304,-4.2537909986414e-05
0.0137677806209283,0.0521526003583066,0.0127827827858707,0.00195673745319459
0.0117074787112557,0.00713266216080453,0.00464772854868581,0.00257039069085302
-0.00446570101224428,-0.0217737264692318,-0.00242055310075815,0.00148077990959465
-0.0250097628654307,-0.0225601239836053,-0.00634177529246326,5.72282567732839e-05
-0.0395163444851169,-0.0137233256090994,-0.00745101705266045,-0.000636758327285913
-0.0549402473622598,-0.0147636789143129,-0.00525101105425237,-0.000652899152835548
-0.0751032003625924,-0.0329055660721788,-0.00546358624003045,-0.000434082835368598
-0.0934591400252241,-0.0520162194144603,-0.00988555242351191,-0.000436426720572767
-0.0880802189695697,-0.0518763568149982,-0.00945609077666612,-0.000808120582639509
-0.0389713686285902,-0.0276138520860092,-0.00230170761588949,-0.00108392777449239
0.0198331197570257,0.0117356222030775,0.00426981499547923,-0.000998158116890528
0.0518004938302348,0.0421003875161131,0.00768585209573361,-0.000677258063977643
0.0765960476452176,0.034013145207807,0.00856974049276857,0.000367487119896134
0.0982124367064275,-0.0144066551815377,0.00480264323664506,0.00203003897421643
0.0930146496516409,-0.0665182019648316,-0.000524137609139299,0.00313837129589508
0.068707841956982,-0.0782812083369989,-0.000780623422343651,0.00370887801592578
0.0494369128555793,-0.0464146886248224,0.00370925107622153,0.00435553659833391
0.0373274107983759,-0.0081777435360204,0.00720784653688347,0.0043571448807843
0.0227552459421406,0.0174737382068,0.0051095278115918,0.00292850236287589
0.00643905811167814,0.0334904331871911,-0.00130541562983058,0.000609365492267819
-0.0039023185493113,0.0469328038125368,-0.00469161270689311,-0.00154917565401362
-0.00628721486744625,0.0693436345470142,-0.000802166384841408,-0.00280212512313195
-0.00987421502735987,0.0821778514951535,0.00518334993846742,-0.00264185739502882
-0.0241404349958243,0.0611162111039164,0.00573446303351102,-0.00112355327406776
-0.0421494046949248,0.0223247450223561,0.000911025925195211,0.000573408700731194
-0.0447406137901367,-0.0066648506700593,-0.00195597261632665,0.000973698373722719
-0.0256805755037527,-0.0153926208788313,0.00191027322631395,-0.000135281255902665
-0.000558330214585921,-0.00702419023786859,0.00744716690570186,-0.00144958201660087
0.0145528252148727,0.011121942858665,0.00959624523604642,-0.00148263472485558
0.0205378979547711,0.0266646111047618,0.0116072726243808,1.0607599425986e-05
0.0233342548072779,0.0266566093145673,0.0143022725264593,0.0020166612573085
0.0234547996734003,0.0149474306531479,0.0133286437551706,0.00361762920774393
0.0238358826938542,0.00612854364436437,0.00916367072942965,0.00475559094419156
0.025171607621666,0.00697682692999372,0.00693008791104227,0.00523908425991732
0.0228721512981052,0.0165702060412885,0.00511038134145801,0.00381068726694927
0.0178514822017477,0.0304568877418999,-0.000921084072528676,-0.000385018625290499
0.0143094972564118,0.0379495122227497,-0.00731453109474337,-0.00574204114814727
0.0124756775707252,0.0348226020250652,-0.0120161044944366,-0.00907681371446416
0.0117823436465959,0.0285477433351934,-0.0182609455512421,-0.00880285377037037
0.0139543466485966,0.026378571569687,-0.0222550964032167,-0.00581356207398915
0.0215462911638858,0.028296719756367,-0.0202472557055383,-0.00116873156152035
0.0286977264602021,0.029022392260258,-0.0141692106524607,0.00496176934299768
0.0223987119759508,0.0282276769693298,-0.0076153044216641,0.0131622681662876
0.00647539380496132,0.0283538158912889,-0.00343114536922,0.0220183594415257
-0.00234839841622618,0.0273834614476299,0.00064655577263216,0.025501834421965
-0.00308197487055894,0.0241569943605314,0.0058591712637347,0.0192722229469221
-0.00865829066625896,0.0186518652644424,0.00960974546714667,0.00679516400272452
-0.022751878748688,0.00796926272136753,0.0120056589752043,-0.00530575051169865
-0.0348587171916151,0.000501801679197505,0.0166573653277903,-0.0137374331746769
-0.0377192589515448,0.00732780372325052,0.0239135953708641,-0.0184920117132877
-0.0337163809842211,0.0170351450840496,0.0272512717106566,-0.0198018725301749
-0.0251818145021987,0.0209610699133931,0.0225279733745103,-0.0175090638942152
-0.0132673551891041,0.0298789049372797,0.0143590632506347,-0.01260902022589
0.0021374684387477,0.0420050391427448,0.00866078032566631,-0.00689815616325874
0.024891993420518,0.0420599665826166,0.00919950193794444,-0.00175256903889516
0.0535094226930579,0.0291896707066417,0.0115914443547131,0.00194857088501654
0.0736491594358002,0.0129439638756883,0.00251107897467821,0.0042954139013429
0.0661472579914762,-0.0025693562036143,-0.0138712401306812,0.00583215326562899
0.035724921720937,-0.015979194669394,-0.020894692686057,0.00672627379510248
0.0106255810217701,-0.0221819896549612,-0.0152973081686955,0.00705111966887987
0.00227483040505,-0.015563704690663,-0.00299319087467609,0.00684514017544979
0.00781241368753486,-0.00339476981015072,0.00927338416007868,0.0060763286718881
0.0217616938355139,-0.00640822874296868,0.0174482951403297,0.00464307119684691
0.019091507829921,-0.0285919329060906,0.0185721832924063,0.00255338911478184
-0.0193244637437742,-0.0481114472125783,0.015265915104931,0.000151054258257855
-0.0620043052400341,-0.0466034187512468,0.0173649104897608,-0.00115254564015811
-0.0620066154369802,-0.0246787678393459,0.0222790938250321,0.00122812641680865
-0.0267442933488026,-0.000602089188480773,0.0190709725236441,0.00752686814537175
0.0044382682332293,0.00439644697568548,0.0103104338037618,0.0131053685172432
0.0149282610972786,-0.00622047848050408,0.00604024712423032,0.0132875608055536
0.00878447344113994,-0.0123889947314157,0.00769481136934361,0.00862565076988544
-0.00371153608878516,-0.0099101322854817,0.00640476150661241,0.00210418733914499
-0.0167771761032474,-0.00699770401478896,-0.000684090377148861,-0.00529813030130418
-0.0264562710063904,-0.00826184284880975,-0.00561809613037874,-0.0131399327940632
-0.0251499248261404,-0.0137154803377368,-0.00418839496699583,-0.0192686459651864
-0.0158286941911367,-0.0161148224464481,0.00213653125458212,-0.021859978957604
-0.0070419550803985,-0.00687503363383182,0.0106669603207115,-0.0208785594518408
0.00496994044968282,0.00803191362802064,0.0156939807159633,-0.0167315157582931
0.0277999134123167,0.0121367047870546,0.0154533143024761,-0.010165627544976
0.0495042508969721,0.00219004530444384,0.0156698420918361,-0.00270280585918477
0.0501826420889688,-0.0117778499325957,0.0164565307527988,0.00390754383606147
0.0378687689649035,-0.0251757196976772,0.0147277420264621,0.00855798783410881
0.0334977683076924,-0.0349306858452821,0.0108596233051239,0.0115093183507244
0.0314628131210917,-0.0327312368633927,0.00449443612922044,0.0134436632099585
0.0224152175821121,-0.0210857918345663,-0.00189059103116611,0.0142611776939692
0.015941388823178,-0.0129481191393851,-0.00612142880285524,0.0134081901315963
0.0121215815271388,-0.0127514704036103,-0.0102369277301321,0.0108779588457135
0.0057062683870869,-0.0146104287826239,-0.0149878684957104,0.00732421001998701
0.000687793783239472,-0.0126557269932283,-0.0179755664515818,0.00337451313868538
0.000121696311705881,-0.00799150464437028,-0.0184413052469599,-0.000653868092719712
0.0108181554375011,-0.00671673958615413,-0.0164465363640291,-0.00444480581400707
0.029621213785647,-0.0162561199292415,-0.0119159386142704,-0.00747259266292787
0.0390617808337124,-0.0366747190760807,-0.0117952524397388,-0.00957363536521266
0.039307642537521,-0.0531431393675826,-0.017789057262219,-0.0110032284348596
0.0376644787640715,-0.0553037438777521,-0.0218269677633066,-0.0114511340407092
0.0295859290032424,-0.0505860378826424,-0.0233758404885123,-0.0101935169763287
0.0156865194156314,-0.0452154475210035,-0.0224860543369538,-0.00754372629139631
0.0140848792772231,-0.0329435775626239,-0.0157693250204849,-0.0046642990530736
0.0369469534768959,-0.0137768652914321,-0.00441526826751639,-0.00219861513221816
0.055117270637211,-0.00332609066709993,0.00705712871207051,-0.000273200919176803
0.0237978154271661,-0.00429878473336748,0.0114175693318014,0.000961396293664367
-0.0571913836356781,-0.00357506982769945,0.00565655615687901,0.00156532023225159
-0.129113261168118,0.0111038307742965,-0.00170312728394081,0.00226037903175285
-0.12953828587966,0.0409657465759155,-0.00325101468414639,0.00329452490017628
-0.0656107226233561,0.0668593391258323,-0.00226517746784573,0.00345177809598988
0.00736764951204499,0.0707558297526645,-0.00147695336573691,0.00194620563466864
0.0549823034587704,0.0531548276806378,-0.00237983658845152,-0.000155990446756139
0.0713395140276588,0.0228443900619932,-0.00705365777942667,-0.00126899826100575
0.066921493328775,-0.00945663971336157,-0.0123009317494994,-0.00110954326766963
0.0560261493972537,-0.0315763231796214,-0.0122197661060361,-0.000551386140332139
0.04460287065574,-0.0423542370219917,-0.00710818571940154,-6.70115091668865e-05
0.0353860646529916,-0.0461002694577732,-0.00336773295072659,0.000876851236483502
0.0311097196054782,-0.0406232010427122,-0.00200665062252392,0.0023538974776131
0.0321318320798856,-0.0286629410261515,-0.000921764290710381,0.00336668362048347
0.0287488167435275,-0.0162274783385147,-0.000411113322643653,0.0033142430591879
0.00418310339974848,-0.00474603154185664,0.00237855959448087,0.00261827186004947
-0.0431068330949834,0.00452329955428324,0.00706391640573062,0.00216595061961053
-0.0839438610480866,0.00938303631251312,0.00935292009392504,0.00212732877844604
-0.0870632611681458,0.0113291222193662,0.009674631102367,0.00213931551101028
-0.0619305796723468,0.0145403869848202,0.00990001924216974,0.00199401799753301
-0.0351841246444263,0.0174392626274726,0.00976129673774007,0.00143855977744477
-0.0200621785563157,0.016905896846235,0.0100907753261674,0.000489531148462266
-0.0179943096867972,0.0168719903017411,0.0139482864987315,-0.000418540728256765
-0.0209647064277669,0.0202742023074607,0.0189538510782915,-0.000638291924173478
-0.0228104835638673,0.0232751089166966,0.0185452042520973,-0.000280111933754018
-0.0236359827831855,0.0232265576048597,0.0136855590232491,2.00673497371171e-05
-0.025236581595499,0.0196597907651166,0.00990998291676507,0.00115428070574187
-0.026570212086342,0.013319390285217,0.00818684884770477,0.00379722899378832
-0.0263130305986775,0.00910858769121197,0.00686142170937111,0.00589386132853554
-0.0247031185991115,0.00893399027148866,0.00598958622700242,0.00533934311859079
-0.0197260078666074,0.010348050012768,0.00628063286977295,0.00296753422730762
-0.0151285764927144,0.0126518087607582,0.00914298442260997,0.000775416462617638
-0.0220359339172777,0.0142288059544405,0.0135901322403224,-0.00124763635509298
-0.0351840148502707,0.012273290008606,0.0139127793477319,-0.00424233150003703
-0.0389040088956496,0.00921811135553429,0.00999689425204876,-0.00789679436736645
-0.0347136179372573,0.00931091329680483,0.00554889133921062,-0.0100444530663434
-0.0326620080046478,0.0116637758394313,0.00114093706868014,-0.00844984573915064
-0.0336510357138667,0.0147429154096357,-0.00185490588130257,-0.00322335834954595
-0.0316071209545132,0.0165597186248325,-0.00244976439689197,0.00358478526047607
-0.0257907283886512,0.0150305037170958,-0.00219830212363873,0.0107815128268554
-0.0194695237189217,0.0128157822875522,-0.00221293662392742,0.017733198894663
-0.0137232822962846,0.0113144590516174,-0.00276704763785754,0.0214765444329569
-0.0134483459724322,0.00995667332204892,-0.00469084002807804,0.0188532978140568
-0.0211956728164297,0.00857168783571178,-0.00575271529984799,0.0110315272961391
-0.0270094442545595,0.00469213616954857,-0.00538022977023166,0.00197816390352196
-0.0253237933980894,0.000552571914125525,-0.00499072561250106,-0.00517526487179417
-0.0226143217087785,0.00144623163045335,-0.00349221190816402,-0.00885468251583566
-0.0220262314463499,0.00334021243611638,-0.00234708431680914,-0.0096384413849181
-0.0200967096130917,0.00138041475557123,-0.0027462882646892,-0.00999175663664801
-0.0135835836284723,0.00207584515534911,-0.00329799578379469,-0.0110908194467705
-0.00623041928100061,0.0113663388150231,-0.000460836234572432,-0.0120286229327496
-0.00505686592864268,0.023633215315191,0.00659409438804279,-0.0122880165597932
-0.00913008846759129,0.0287167847963803,0.01201120213813,-0.0125863698932394
-0.00837547668414925,0.0259004838476994,0.0120279650897037,-0.0135655072930468
0.00223801258348087,0.0228589513058538,0.00752158449515751,-0.0138423112288266
0.0140021751675065,0.0223819625629061,0.00174884076429538,-0.0106970036735905
0.0159083370246459,0.0220934475102672,-0.00162875848256904,-0.00325224497437502
0.010289022170289,0.0170140971664213,-0.00484656892141403,0.00626166449856169
0.0064829491731636,0.00665487035980907,-0.0106108888032983,0.0138712967913516
0.002846330344967,0.000528691716896158,-0.0157856092564867,0.0168080706795649
-0.0038493559596652,0.000249113384690153,-0.0170620058881066,0.015460132030752
-0.00879625778909998,-0.00261555072282845,-0.0142723090689061,0.0117263966773824
-0.00949461117987169,-0.00855198924968974,-0.010448543818111,0.0070679087627822
-0.00648566117639324,-0.0131148119746965,-0.00858320062239118,0.00259300833642451
-0.000800465456324326,-0.0113686029028704,-0.0072621294508097,-0.000931562374032481
0.00214569300125457,-0.00374399617681921,-0.00415234042416024,-0.00319530846406582
-0.00140205899863874,-0.000415116535879497,-0.00141468440281566,-0.00426062973008743
-0.00804651228837453,-0.00744141984050599,-0.00177860889348078,-0.00479680323485122
-0.0132840686830762,-0.0135044720746322,-0.00131326107464359,-0.00540278745983018
-0.0159723758537809,-0.00671006049344269,0.00268849326654248,-0.00541692657748839
-0.0171086702207254,0.00397533010209567,0.00453772595258871,-0.0035508312481384
-0.0170136207457907,0.00582065721692674,0.000989175645112706,-0.000574793044260025
-0.0149750162040978,0.000906059961190473,-0.00273267374657764,0.000773107038180417
-0.00999672714248794,-0.00621483986475206,-0.00260910977184546,-0.000487433418220536
-0.00583568398909693,-0.0190750359035211,-0.000838560307409133,-0.00284335648787887
-0.00756315327039101,-0.0367671581741527,0.000550973846370892,-0.00460208413066032
-0.0126156840495192,-0.0519722746384117,0.000657356187889061,-0.00541514729363158
-0.0137533342205838,-0.0577307931044533,-0.00106984057874933,-0.00573106690835
-0.00265762759482273,-0.0513754422288306,-0.00284430009183811,-0.00533901305141852
0.0250982724234904,-0.0414270126855317,-0.00271980733943717,-0.00369420099197727
0.056121317008561,-0.0372278016537996,-0.00265989633757752,-0.00118033586896376
0.068924097992539,-0.034104442291659,-0.00577759949535697,0.000922240893244611
0.0664108569686405,-0.0240301363057339,-0.00880893142488342,0.00169878364690911
0.0666360407763515,-0.00805234378305776,-0.00738919170912997,0.00138227823342561
0.0666941495898404,0.00460079491769411,-0.00372799801455204,0.00113428235503151
0.0523772938882934,0.00820949977236514,-0.0012641796788722,0.00208693751177102
0.0255520085517633,0.000989559498106009,-0.00406786020050922,0.00444890944792486
-0.00369970296684673,-0.0221105129576498,-0.0116423649992184,0.0073878897786978
-0.0382788712706401,-0.0557206339027681,-0.0172163664133821,0.00936123329227125
-0.0683540384810958,-0.0787249236597193,-0.015903870521553,0.00951297717661394
-0.0527906833185096,-0.0769702167381965,-0.00924733269201296,0.00818804540772062
-0.00289301094207623,-0.0603830344590309,-0.00381999285007717,0.00568880035258526
0.0187297712115894,-0.0447416745209092,-0.000849102301846096,0.00249521225263784
0.00430611680649154,-0.0316828328663994,0.00178611190411589,-0.000182144377951029
-0.00390260619926946,-0.0143528964291818,0.00293359510424125,-0.00163049558368762
0.0133259893991871,0.0103042232521646,0.0033237793155766,-0.00206386899503344
0.0323410133146834,0.0421748407084313,0.00678479339825901,-0.00186756529687969
0.0244621090974449,0.0826778113211354,0.0109805864409436,-0.00164218156954271
-0.000889634231734722,0.114118928265633,0.0103853053729274,-0.00177580536707521
-0.00813502729126271,0.0989645079827217,0.00733349447215263,-0.00172693889460155
0.00624737683702442,0.0398171038918137,0.00521022252193013,-0.00106522727939926
0.0149109594555462,-0.0147852938108955,0.000474705940081224,-0.000319569850337487
0.0115164954086924,-0.036481875115224,-0.0113190545753986,-9.16350534128637e-05
0.0119241943172018,-0.0346645026073251,-0.0242858425590816,-0.000401799977573661
0.0194439993872368,-0.0298252038291115,-0.0285450743190943,-0.00107433722593752
0.0213493185232637,-0.0275463105403491,-0.0255863845354808,-0.00171734247144184
0.0194188144462927,-0.018174191780352,-0.0220562294246142,-0.00187427716090832
0.0275036260605379,-0.00559553297847008,-0.0175007460978399,-0.00153602191973938
0.0372683489653295,-0.00143210624933985,-0.00593761028925679,-0.000881880009413526
0.0345036007907471,-0.00455590212293506,0.00636346122128215,-7.83377065999655e-05
0.00941533188209207,-0.00348195550745244,0.00684914911243488,0.000525129991406153
-0.0339183413209004,0.0102471254564262,0.00169843849647711,0.000562569471610095
-0.0606829523099667,0.0346628182731137,0.00210862905876462,0.000261665422272269
-0.0543780118702198,0.060887916430225,0.0044044462976147,0.000238969484844805
-0.0292969032339589,0.0746184956577703,0.00554815489713113,0.000673939609711641
-0.00452998580861753,0.078964465456076,0.0115565999777705,0.00123526282455694
-0.00230245484097687,0.0864991706734851,0.0181072845661222,0.00170684456536743
-0.0330384787283768,0.0839746691819963,0.0158794357153173,0.00224051797748992
-0.0701100279991569,0.0604877628272833,0.0120837360425483,0.00287435950510405
-0.0509955623744216,0.0406435381513903,0.013232950713307,0.00317676239924072
0.0421935768417434,0.0456639700436189,0.0102941321859407,0.00272409919213648
0.122187897764037,0.0541408596891313,0.000801226385967475,0.00149058280940792
0.107647279397707,0.0352913073266315,-0.00491495995898444,-0.000206703817681505
0.0337055835233251,-7.43239033868526e-05,-0.00323337644960449,-0.00150711017150486
-0.0248618881819929,-0.0138371242554833,0.000477573408386291,-0.00175707316277544
-0.0495183745087589,0.00242605701164483,0.00282373714654327,-0.00142256603441073
-0.0538167042990148,0.0206811452938373,0.00339391065167756,-0.00137847660007792
-0.0454326200805369,0.0258211957249976,0.00338392215904712,-0.00177398870693567
-0.0314846892354574,0.0259163752243193,0.00239424259624244,-0.00232386932859169
-0.0212810990232379,0.0236405567810323,0.00113761380545153,-0.00272805754687811
-0.0155679976166606,0.0181317998520106,0.00257536383041705,-0.00256359682056518
-0.00985254936309274,0.0127526662603071,0.00399211701851389,-0.00206513047633395
-0.00500943779004615,0.00764877192718116,0.00312477565802319,-0.00170567351498795
-0.00147877897430782,0.000926143630829276,0.00135563242936247,-0.00145104757747774
0.000937009362389202,-0.00477593351387251,-0.000980703960338984,-0.00114216858097129
-9.53690165900233e-06,-0.00536528726351428,-0.00220081015050621,-0.000718664621000466
0.000279505628085021,-0.00193811320377716,0.000793525878042184,-0.000315089054255793
0.00532152912446791,0.00393157416908512,0.00878607345202239,0.000134522039825671
0.00858176963465395,0.00695612005578513,0.0168191942278003,0.000801103760933618
0.00746213114960589,-0.000588705510900954,0.0197780972831088,0.00155322032096074
0.00553546325624341,-0.0141203960386082,0.0161958282455558,0.00193640502441594
0.00366316257468743,-0.0237624624362143,0.00824121542071331,0.00162194024580457
0.000843192613490703,-0.0222202142735549,0.00348177686721166,0.00105343166930345
-0.00364427963203534,-0.0123619952676966,0.00312748621220401,0.00100324138906851
-0.00740366333268779,-0.00751150331925985,0.00119624297474325,0.00158191894452036
-0.00772662024630194,-0.00691339549091372,-0.00209359569575504,0.00215602287165933
-0.0086970132919097,-0.00411037123363742,-0.00274361530251826,0.00220728382682766
-0.0119606600575549,-0.00754854626739843,-0.00176299529088644,0.00167529575238627
-0.0130448508684435,-0.0158438352164052,-0.0013096609441059,0.000508718752586157
-0.011224525727669,-0.0139991902987923,-0.000552209384602374,-0.00131829207296484
-0.0100922854844769,-0.0071237387290427,0.000530782582001279,-0.00358489675607606
-0.0108075994254713,-0.0108085036565987,0.00347813841466047,-0.00578822068788487
-0.0112256075186174,-0.0236408231356497,0.00887580232629279,-0.00673904205003293
-0.00969558028747856,-0.0345509089540149,0.0104857410359627,-0.00567291971579647
-0.00642931705853663,-0.0365619982724424,0.00512533137571861,-0.00373019749187197
-0.00337006062853826,-0.0330535447666372,-0.00287270193579292,-0.00206958199487373
0.000611015629391611,-0.0254206460717148,-0.00803111800831964,-0.000199524181864024
0.00940266104511754,-0.00538154981076422,-0.00659074161678047,0.00249787202698603
0.0213727181948073,0.0165363160071491,-0.00133402811524551,0.0053956643149398
0.0273058052522083,0.0194934827943793,0.00152821208924288,0.00704476281506032
0.0186679735137515,0.00918008612014064,0.000459209590362275,0.00660882744411771
4.68246810559625e-05,0.0020616827871106,-0.00137301794871918,0.00462523274090845
-0.0145902267729096,0.00103797753643303,-0.000552362243008496,0.00246649293081465
-0.0190122667472535,-0.0021902916878598,0.00098798303429047,0.00106280924356981
-0.0186041900123681,-0.01188425868162,-0.00153283495467055,0.000122191116136447
-0.0169860105161216,-0.0168216126236093,-0.00505115374644942,-0.000898564893195956
-0.0113786879377878,-0.00820336890986172,-0.00294561534451284,-0.00194891973300256
-0.00340086514842231,0.00760147904157251,0.000726606731326777,-0.00277805248070197
0.00312472493576436,0.0177539846142882,-5.73408487004271e-06,-0.00351554852582857
0.00676140410338173,0.0156518496547473,-0.00183376044044992,-0.00414732426244153
0.00683218390376827,0.00613807410587103,-0.00163079587776022,-0.00419879759563293
0.00387559130352911,-0.00407377385539404,-0.00222983242080164,-0.00362719145492004
-0.000847233845615608,-0.0100292113143082,-0.00835501866475614,-0.00280661639613078
-0.00386296738716423,-0.0117821347296723,-0.0153928039798225,-0.00207042529341466
-0.00251717987171636,-0.0149637060970638,-0.0142645255956932,-0.00170599865928344
0.00152363473348895,-0.0220250773903662,-0.00781990135104831,-0.00178196816011668
0.00427545081365146,-0.0279269177340466,-0.00254056682807176,-0.00177676764074177
0.00226203511308294,-0.0284669808603292,0.000343291888679972,-0.00103625698774856
-0.00425908086768529,-0.0307279107922743,0.00200762975170687,0.000806051262188561
-0.00791375265865262,-0.0393234411279177,0.00347606091496581,0.00320201102319824
0.00870173550729717,-0.048671101035411,0.00433916200373132,0.00376415150692923
0.0448493449994043,-0.0516463896940661,0.00589950229489007,0.000820332887395082
0.0697287887631395,-0.0405025950026931,0.0107810027145629,-0.00381707835817616
0.0651090048454026,-0.0173253792970922,0.0144224682730027,-0.0067252368809044
0.0327106608891336,0.00364942972639984,0.0112099481572457,-0.00618373285489171
-0.00643837418171918,0.0134823323796022,0.00738704871524767,-0.00273731262488459
-0.020368600834403,0.0173716358540343,0.00552225467128988,0.00261130819852965
-0.00515475332843256,0.0230904330113187,-0.000523864324400998,0.00937146918114861
0.0212055220685452,0.0255015607955838,-0.00871486142526082,0.0171623391532067
0.0404436694901286,0.0155900926730065,-0.0117734739385794,0.0230894658094092
0.044792526088176,-0.00337309478388596,-0.00907026415179143,0.0215642815627169
0.0359508881169799,-0.0193290280257208,-0.00672193064205812,0.0111788722644545
0.0127945554288577,-0.028297449392727,-0.00653218424279524,-0.00229523883753885
-0.013079380430681,-0.0369879424662021,-0.00648893178190571,-0.0120006482865451
-0.0214477565136649,-0.0441959744364757,-0.00679015199443491,-0.0157505781011732
-0.0135816549252461,-0.0406886220352283,-0.00689302850604425,-0.0151558224191654
-0.000947345963848295,-0.02694060640437,-0.00831896692938113,-0.0123854877873217
0.0100677960232707,-0.0176483738954003,-0.0121315382093606,-0.00908797357128775
0.0130801682622378,-0.0212752276145961,-0.0124048722567341,-0.00608878644191854
0.0083328641689474,-0.026493489871707,-0.00571180459808504,-0.0032763050237267
0.00510244829694107,-0.022772089710835,0.00233992184914388,-0.000229284534288887
0.00740067871407156,-0.0152303912940084,0.00824915359703226,0.00287065999395646
0.00972381420416165,-0.0151346448901884,0.015251175572276,0.00525729838225006
0.00714436597417879,-0.0239955014846261,0.0216964784044331,0.00648125635560918
0.00233226252267157,-0.0326025103394264,0.0201861071549289,0.00645272258615193
0.00291155905161336,-0.0335747470072327,0.0116372611421227,0.00515870417218652
0.0101452702396656,-0.0252866899315993,0.00425740932070966,0.00361298239406331
0.015393725507362,-0.0106140404747575,0.00145207904137029,0.00339105836236356
0.0089010417575816,0.000220978940212752,8.59513897334546e-05,0.00448278116130293
-0.0108630511060233,-0.00382617639670869,-0.00344784312298897,0.00560627238145807
-0.0290747553741356,-0.0151704593676319,-0.00860842957010299,0.00592221807505881
-0.0196982850676642,-0.0145727348873859,-0.012003380084611,0.00519976925581273
0.0137064064180924,0.00103571946155081,-0.0124154980311639,0.00370252753339072
0.0294931783976118,0.0205076809606366,-0.0141084399692687,0.00206202527482746
0.0140425820824946,0.0273648192858508,-0.0184897812685447,0.000559097296586971
-0.00294068899368219,0.0132977026893096,-0.0209180526982128,-0.000895153176725868
-0.00856029899164173,-0.00865999860859126,-0.020852420466079,-0.00250438585437476
-0.0143899232269377,-0.0271016689762891,-0.0198337120669711,-0.00422713739771292
-0.020056463442673,-0.0428047541422148,-0.0175127551497168,-0.00544103999119641
-0.0191569831312932,-0.0549546072036314,-0.01218524042099,-0.00558961631414751
-0.0171177346506543,-0.0555309139773817,-0.00318838398598641,-0.00480871566709432
-0.0181330036290293,-0.0388983841129982,0.00513902362825722,-0.00387817719201147
-0.0187745435861749,-0.0107475713236355,0.0113928243976684,-0.00309992904674442
-0.0229632373697298,0.011999685933334,0.0177425366329795,-0.00203491776077445
-0.0359003722868476,0.0143832727915461,0.0244277434900113,-0.000700561934046427
-0.0408515464647119,0.0115242491089045,0.0307820303776646,0.000283188276741584
-0.00412327820917271,0.0201849626517378,0.0350747887971881,0.000307099260838215
0.0652281756961526,0.0236535796841304,0.035136174003349,-0.000699262616528548
0.110989192909524,0.0212348306612518,0.0274083678073871,-0.00211908976828441
0.111509450256825,0.0414931976016412,0.0143783421853949,-0.00293859184336008
0.0849071871833561,0.0780412973227592,0.00405324895218816,-0.00251227092437719
0.0485488902067279,0.0929584825142069,-0.00508814230451742,-0.00129166326450759
0.0124096597884077,0.0797179864562353,-0.0169535304771696,-0.000192921002631591
-0.0147156336322578,0.0578077180333806,-0.0271464454467829,0.000193027334605117
-0.0257048836003538,0.0337663119965935,-0.0307092039226758,-0.000447114957693212
-0.0287182780115372,0.00910496283964285,-0.0238977795286835,-0.00166254437044019
-0.0437692728915998,-0.00984116707506849,-0.00828113935944258,-0.00261506328874192
-0.0814448081433405,-0.0238864972425773,0.00406707843821713,-0.00322161698118451
-0.114119587838317,-0.0337277006748559,0.00784199449371219,-0.0036597179336224
-0.098266178759408,-0.0350742924408122,0.0091186252363805,-0.00381101537438299
-0.0419085824191103,-0.0287737101550949,0.0107897082498471,-0.00320897558772812
0.0100343162515115,-0.0183057945594078,0.0152092302560525,-0.00134752988956785
0.0353577432317447,-0.00533440272488929,0.0246468710593454,0.00123133341588767
0.0393575375011091,0.00703674078528732,0.0310232558563523,0.00315782970974089
0.0338638289641253,0.0153151663788779,0.0259362079236727,0.00370811626377467
0.0269150790411434,0.0202219830355811,0.0160068424075351,0.00334542485435586
0.022037354782984,0.0238870149615849,0.0108260989733881,0.00247093568758704
0.0198851081542981,0.0267799864037209,0.00923651138331266,0.00082640746235339
0.0203303888619455,0.0288325727434167,0.00709259632268916,-0.00131810418431052
0.0241623658608056,0.0300102228167182,0.0054440694733696,-0.00298702612229221
0.0277457315070727,0.0316337900045766,0.00562217708924704,-0.00362377986289916
0.022425800113346,0.0354950255127032,0.00590993221375608,-0.00339513835081066
0.00674432713042225,0.0420735094697418,0.00594465776338963,-0.00256822863227898
-0.0147910010132794,0.0440655701933617,0.00558498400662131,-0.00150809175694544
-0.0332100439492808,0.0306763385632255,0.00420653859311035,-0.000580330444509444
-0.040766739233243,0.00696298750965468,0.00298688602032003,0.000181821885547333
-0.0404162446211267,-0.0140166974143346,0.00266984698442315,0.000599706416545686
-0.0344037416392436,-0.0276017742628975,0.00342162234046927,0.000644250039790898
-0.0259685297912557,-0.032721705608561,0.00608006560405061,0.000811057208454245
-0.0206396518625038,-0.0274779281442812,0.0111820243592515,0.00124820784235998
-0.016956511071306,-0.0173006038712044,0.0142300699550457,0.00174491745938671
-0.0152426285654347,-0.0114844382083724,0.0109443363880444,0.00200833273502099
-0.0191705477072827,-0.00712307083094658,0.00526110873439154,0.00193555198398358
-0.0242349209018755,0.00267070933721945,0.00146124700609501,0.00220065701483126
-0.0222461288788043,0.0189780753573122,0.000915339303606502,0.00309721481398922
-0.016049719308779,0.0432038584825687,0.00335010479432881,0.00375747432169399
-0.0137091955193015,0.0652429478049588,0.00652717322136265,0.00358836746757708
-0.0147934218484295,0.0606690958007292,0.0079198321634769,0.00302714664995339
-0.0135311030015188,0.0311209661536059,0.00700136493154528,0.00241794770663983
-0.00863013569734,0.00385464180112711,0.00541911731876717,0.0014777478128262
-0.00502504443341205,-0.0140369836735612,0.00263629021621609,0.000382154255264046
-0.00425532835518223,-0.0277559794361275,-0.00191387364452119,-0.000381410902537047
-0.00476145415099613,-0.0326852432711273,-0.00461755099221372,-0.000644630403822923
-0.00666457707105833,-0.0265298920457049,-0.00434275981791512,-0.000329052310645737
-0.00850778686726802,-0.0140689652977079,-0.00365143659832211,0.000341707539875515
-0.00834963818388488,-0.00200652639860295,-0.0039585755998621,0.00119178912928521
-0.00198173897689401,0.00431585281243099,-0.00633889206738388,0.00220816669036365
0.0170059291792305,0.00519591876634821,-0.0110776110687414,0.00288980301697938
0.0413901141786442,0.00602717671017624,-0.0156494943936246,0.00271815039950161
0.051240957496637,0.0113233657525263,-0.0167532768140071,0.00184062401243055
0.0435506253273514,0.0198702882446565,-0.0145012264307561,0.000891303389567496
0.0325964151648216,0.0228727604934349,-0.0107579153711307,0.000380751744564061
0.0239402681561999,0.0137043697683882,-0.00781232137301341,-1.13606876767824e-05
0.0144668098848395,0.00376714908641662,-0.00864813731981499,-0.000961838439472218
0.00285703937899505,0.00170864241584021,-0.0118376162220598,-0.00225373995237753
-0.0117030693847734,-0.00384440877432621,-0.0127932313338808,-0.00290084098934722
-0.0469835335326443,-0.0184802594838017,-0.0103211933491016,-0.00238235047628506
-0.101211145641759,-0.0338483618642243,-0.00728254162029141,-0.000733169027636886
-0.11934426218859,-0.0381041480294896,-0.00723947508833532,0.00174125805192691
-0.0851209458582359,-0.0255213307007111,-0.00576091746891431,0.00372304934903485
-0.0443025895107418,-0.0074254052207109,0.0027902938103605,0.00416816508797669
-0.0198831197801143,0.002477984621734,0.0123536066763617,0.00452850756346602
-7.68243288273157e-05,0.00370831499089589,0.0127305244120847,0.00666791261353511
0.0217644029937269,0.00135060337095089,0.00344466617321074,0.00961478316431289
0.0403635167709392,0.00742132703356621,-0.00573253842280262,0.0108119122362592
0.0554455573047176,0.0391605767639578,-0.00729783286523176,0.00955083689070015
0.0635200046178021,0.0807237811314121,-0.00340644028335783,0.00652971985959097
0.0560776908957065,0.0892195536752028,-0.00265726542439632,0.00167517022719026
0.0378942344538211,0.0636240006595528,-0.0071828407677709,-0.00497753405179418
0.0262455915240941,0.0339387366217961,-0.0112055332300466,-0.0124032652604373
0.0268465977479937,0.0054526947226685,-0.0118507186277021,-0.0194616609462419
0.021728142289886,-0.0262503289270378,-0.00828592205644384,-0.0255673182543521
-0.00419783972393001,-0.050202549649628,-0.00171622614232146,-0.0295747044166517
-0.0379248699963811,-0.0499021901455877,0.00539182872146928,-0.028853755579918
-0.0588220418082548,-0.0291548082467978,0.0113118112296396,-0.0213424983997386
-0.0714068635525447,-0.0180575135767475,0.0123266073194507,-0.00823478130672472
-0.0733825492555867,-0.0276446269148479,0.0057841465664071,0.00631947527690921
-0.0407564934868429,-0.0381308861258257,-0.00373996302975946,0.0183386663475728
0.0139155334259949,-0.0366608104931394,-0.00809709878762574,0.0256792337446009
0.0385331786018111,-0.0271111211823448,-0.00742973031220328,0.0272807747086268
0.0142895975889835,-0.0145743839940936,-0.00534250950959628,0.0235027856582371
-0.0189452484371026,0.00167206769497894,-0.00178858862074474,0.0167648262742086
-0.028593810951186,0.0159446761746876,0.00107434629998333,0.00994383406456479
-0.0208649660183026,0.0242618179551287,0.000187239050647963,0.00407745575601439
-0.00967917873918601,0.0318210640423685,-0.00112487307938177,-0.00153679214055042
-0.00415297531491684,0.0297644032488236,0.00300092932850376,-0.00703653137822454
-0.00718573662665356,0.00944287907311652,0.00808562124913991,-0.0115616782433522
-0.0162757470514287,-0.0139147361469547,0.00675522060330879,-0.0145855019033693
-0.0243192138034703,-0.0239795965646206,0.00391089817380194,-0.016111646548521
-0.0238767776599417,-0.019169253913269,0.00542619380428771,-0.0161355263938581
-0.0151258616365846,-0.00696606787454696,0.00783200722733762,-0.0145138198711806
-0.00373699369703516,0.00572637282746737,0.00662251985762785,-0.0114671425255046
0.00945486047710693,0.0127141070541793,0.0015366958976712,-0.00794413280674319
0.0266244248523463,0.0115313806521873,-0.00415977587068095,-0.0050827027441229
0.0412654220671547,0.00819281504140837,-0.00563795558856771,-0.00311637359540635
0.047687189673482,0.00801502137754835,-0.00193457522497794,-0.00159389394509541
0.040669428791541,0.0126598914225624,0.00222432503313099,-0.000331795676763409
0.0201295299106692,0.0228080408434502,0.002530693948758,0.000886211130920775
0.000840690539506757,0.0377928535876613,0.00291871580842738,0.00244653241267384
-0.00663599288807996,0.0471244867743427,0.00814610216534775,0.00458702100675809
-0.0012772966257409,0.0359961805979692,0.0141828854509291,0.0069056612143124
0.0127624461657002,0.0108519618108879,0.0176795798720687,0.00818982363179294
0.0302134812129711,-0.00394338643432792,0.0189619813894155,0.00786959934108195
0.0473101890145674,-0.00733656102445857,0.0157815048713188,0.00661266156642832
0.0506098690141981,-0.0152320063910497,0.00672392333790423,0.00523197284594747
0.0408137033707142,-0.0215001098043522,-0.00527172649532349,0.00404394983361515
0.0420308659357125,-0.0150759941026888,-0.0163815415182434,0.00285342018788172
0.0472341936649764,-0.00591471634865874,-0.0226080858978607,0.0017987152028376
0.0319090446945129,-0.00531918099116476,-0.0215588791621302,0.00139453026763961
0.0109875618415514,-0.00735887687486451,-0.0159287942558632,0.00160127183942727
0.0139410361457631,-0.0036853459901111,-0.0105320914259335,0.00214719203709562
0.0324856796543592,0.00241367797395406,-0.0068579523228513,0.00271792170760957
0.0308353009576596,0.00253998083604408,-0.00249748335334561,0.00292592249032771
-0.00538430974821549,-0.00410538624416792,0.00455128514654283,0.00295356549373951
-0.0582859500626514,-0.0126095902448368,0.0127253212468818,0.00330102493959347
-0.0887859532690028,-0.0219056232973181,0.0166446402244587,0.00364101640628025
-0.0656213930525238,-0.0277303056070606,0.0138778881106036,0.00331110749948085
-0.00930355351672348,-0.0252904272278236,0.00983934595025496,0.0023769437803214
0.0312906768817206,-0.0179043992928314,0.00713864468392296,0.00128586732209262
0.0406447690262901,-0.00608862021636979,0.00297411995861858,0.000547084098392698
0.0379386075569862,0.00945479552785011,-9.87857047262883e-06,0.000513124311225408
0.0358101068697302,0.0187887949408459,-0.00065953192249241,0.000876496623056083
0.0325680703452684,0.0140666637030062,-0.00216710372612981,0.00122688323677574
0.029715981224022,0.00123204737455801,-0.00440741663144663,0.00157149829772332
0.0290748176583915,-0.00127605271348657,-0.00657525732496191,0.00178089892103441
0.0247956575098455,0.0186250606362196,-0.00586616672692066,0.00193609768537933
0.013312629371575,0.0401598377330217,-0.0038428519450108,0.00245929308621458
0.000302651727979434,0.0369160599020811,-0.00488542668605391,0.00334605358821738
-0.00481621351741664,0.0162335261972565,-0.00590945328069008,0.0040445192493551
0.000856354854179536,-0.00483212186619103,-0.00331881258558367,0.00407940117353631
0.00407352605333606,-0.019836751868692,-0.000596410098688466,0.00348249107699765
-0.00667827179797682,-0.024216399791328,-0.0021271519566259,0.00253389168427485
-0.0187127837856839,-0.0220179217855042,-0.00437655757339522,0.00156052401919241
-0.0171974104453636,-0.0217107776049688,-0.00232848314076621,0.000546269302839532
-0.00804579479199304,-0.0211801415342816,0.00213559849790643,-0.000866979067382725
-0.00358431846453616,-0.0178085518310896,0.00349352682892934,-0.00235604149913684
-0.00562558564817561,-0.0151835776955015,0.00114900402779429,-0.00302077077913289
-0.0112031579390497,-0.0121889106559053,-0.00256700550340832,-0.00263001859676773
-0.0181484582639263,-0.00657633681594991,-0.00704448272031618,-0.00183901332060838
-0.025931772768714,-0.00676409204793504,-0.011522636730078,-0.00126826753862516
-0.0337635481051407,-0.0130238412044313,-0.0165386663475471,-0.00112241760316535
-0.0259675553665108,-0.0145467367648365,-0.0206271538096624,-0.00155511700458178
0.000188126851799326,-0.00979484785794423,-0.0195894197948396,-0.00241687312244352
0.0158668135738593,-0.00750425368928342,-0.0142786179370159,-0.00325650490402839
0.00276428689951,-0.0172811183544357,-0.0107540997267939,-0.00374598587807011
-0.0207913202419595,-0.0249126368063079,-0.0123246408836045,-0.00391563813719244
-0.0216348727272861,-0.00519390606421134,-0.0126961677017112,-0.00386643255609372
0.00798310493973919,0.0299756780003015,-0.00469079882041036,-0.00338569711298981
0.0457561642349854,0.0450493571616092,0.00736209860030762,-0.00236524236228476
0.0750476408982925,0.034729926028607,0.0136371404122138,-0.000928752669782367
0.0924262612398644,0.0250004148065032,0.0118428080440099,0.000671080095821054
0.0830847424302829,0.0288887813297815,0.00739790420006764,0.00185438640736384
0.0451770931925452,0.0301502920446686,0.00292015802281759,0.00208603647447665
0.0130790451076823,0.0146589030524934,-0.00411822658939242,0.00131503877271594
0.00644117929518832,-0.0069315979554737,-0.0110970636106833,-0.000490929153166819
0.00763989394930414,-0.0218132590907455,-0.0112032502420593,-0.00334744954618405
0.00619228672964105,-0.0234649212203018,-0.00903128948145357,-0.00629288271950528
-0.000711475057922621,-0.0062096660992384,-0.00866465413921119,-0.00780091068068152
-0.0169998091708773,0.0113379895770801,-0.00799194749282917,-0.00727147470126477
-0.0188086543951955,0.00345201014479351,-0.010877218028973,-0.00516015239824272
-0.00224409459956735,-0.0197333917170454,-0.015518391472702,-0.00255730190011186
-0.0137617282662025,-0.0333242087473954,-0.0153645959141092,-0.000699106999904762
-0.0547674082314196,-0.0258699918077302,-0.0114108930654615,-7.86244444286046e-05
-0.0669144033279373,-0.00807840711541253,-0.00701086263250134,-0.000141765150132858
-0.0277572799147722,-0.000420739024662217,-0.00188962896444494,-0.000103455875349553
0.0188560069117511,-0.000809073448266782,0.00224574391323771,0.0001178603258083
0.0300024113166389,0.00149290884575221,0.0040325258998585,0.000371446213503419
0.0209434079226603,0.00964117729170954,0.0090772989279271,0.00087639179673508
0.0214753866466785,0.0260562437004676,0.016978330461593,0.00177195727962334
0.0262986770059752,0.0436975408660338,0.0227348833020163,0.00270690765450837
0.0215556761432265,0.0379220270573714,0.0280723696990233,0.00331649396958542
0.0113214145947578,0.00314920285655289,0.0309133262741218,0.00379004284503982
0.00409527652861382,-0.0277662123163379,0.0255855821477742,0.00438298919082759
-0.0015212980369598,-0.0373423053645894,0.0125674758782053,0.00473426628252255
-0.0124868295338273,-0.0404150263376384,-0.00764457549661687,0.00411794537891942
-0.0279864450028139,-0.0466830088813502,-0.0295804956772525,0.00227395699080391
-0.0360293756486972,-0.0479249897533441,-0.0373623163977186,-4.13912543821031e-05
-0.0267933599428128,-0.033259885672341,-0.0248396282643974,-0.00168791125181826
-0.01151317989715,-0.00584470839417289,-0.00544153500163905,-0.00221791492296189
-0.00919684472523506,0.0138131586451673,0.00510658408859876,-0.00192801513322855
-0.018636134134278,0.0130816106671129,0.00757945673654494,-0.0014772448055684
-0.0281169793256267,0.00368699227594723,0.007562357624557,-0.00113879062663417
-0.034814234455799,-0.00660756292959071,0.00516360192146198,-0.000413658567370871
-0.0411899744007103,-0.0190709250033061,0.00284941268634687,0.00106875239977036
-0.0490472366993552,-0.0277131506885421,0.00125675599427955,0.00292210015778491
-0.0582841461009949,-0.0342772716437252,-0.00210943717421656,0.0043453246591163
-0.0625078323514459,-0.0414629219999083,-0.00449324737714153,0.00430499145311876
-0.0592489398877052,-0.0452290837278309,-0.00110846025718203,0.00219256237429713
-0.0574896222516361,-0.0462764782581237,0.00678067391154807,-0.000711130599072832
-0.0597439794612755,-0.0378405575381038,0.0141773398467368,-0.00190728577703463
-0.0569591292831406,-0.0121047449362327,0.01685631283845,-0.000609004382072138
-0.0444953893749177,0.0135077009375879,0.0185594600205759,0.00121076774029904
-0.0228572038173326,0.0238305548659097,0.0244925668203145,0.00139035474031848
0.00403991653190758,0.042554978598436,0.0298141077550143,-2.40750789443319e-05
0.0284901911743527,0.072423220526088,0.0275173122498986,-0.00142550205332675
0.0546694210465644,0.0713585492017386,0.0162961172213911,-0.00162664010385963
0.0816717665299539,0.0343970491452203,0.00359931691508569,-0.000892932097223498
0.0820948603334159,0.00251134341469214,-0.00172922937828271,-0.000159474876163976
0.0490012645500468,-0.005196545473258,-0.00301498291343671,0.000255996277288972
0.0148992364129243,-0.004524958693507,-0.00501392186387455,0.000623781455038751
-0.00114387225552472,-0.00635021137682856,-0.0063718550410879,0.000929312402557812
-0.00887650445476727,-0.00429326026756304,-0.00933819662957553,0.00066139551356557
-0.0184748064815887,0.00397884723250325,-0.0141868980974811,-0.000235260160936483
-0.0305319379143639,0.0112467010710905,-0.0167383316351543,-0.00114669922493791
-0.0559410037758642,0.00993158923044731,-0.0162668638319467,-0.00162602643260354
-0.0991665673963077,-0.00308544697042749,-0.0142582932529327,-0.00141676268449882
-0.118399330724422,-0.0152387755361243,-0.0111621871429795,-0.000870456054248317
-0.0809275746085121,-0.010985755742094,-0.00846971962741035,-0.000835527679604969
-0.0119077844476331,0.00308843947356848,-0.00664773368951654,-0.00134843328975585
0.0462576787853025,0.0120615355236576,-0.00259773435539909,-0.00176998070284325
0.0720477562933738,0.0134904480674497,0.00475835947500707,-0.00160103302284597
0.0698820072115833,0.0156767317459848,0.0130420055428682,-0.000869728160530916
0.0549743922045724,0.0189371005925701,0.019252377906646,-8.6497333787815e-05
0.0505584806450202,0.0158796764520667,0.0227234159810186,0.000235999333963112
0.0618550376699977,0.0124785209378737,0.0230373024292385,-8.03472139162182e-05
0.0644433664136124,0.0187364124338145,0.0201415069392397,-0.000757661285872703
0.0540966826862115,0.0289577246020611,0.0185841821434867,-0.00127911082256713
0.0411128631232317,0.0332120220337058,0.0178567389157635,-0.0012066712448195
0.0234448948977564,0.0323950846610708,0.0113392279779999,-0.000636346952221553
0.00370508353364817,0.0314731259835811,0.00137944300610871,-0.000224909601286738
-0.00915662226467836,0.0302646027678073,-0.00474898884167275,-0.000195048385204877
-0.0106192006983484,0.0257072753873298,-0.00629016634543347,-0.00030467609950161
-0.003223164537027,0.0201072969689057,-0.00593265801092263,-0.00048906659367334
0.00432817605269237,0.0174564630897295,-0.00601174049139687,-0.000603924736548133
-0.00193380495845605,0.0169737582722604,-0.0054559115530113,-0.000342128785977775
-0.0272692337999544,0.0188838837783966,-0.00294921610816,0.00029030550589758
-0.050404484266424,0.0154785592687456,-0.00233997921962584,0.000928375262662977
-0.0457207803016987,0.0009259590477553,-0.00502308961207071,0.0013958035084217
-0.0164918930980113,-0.0136063392574539,-0.00762245228047109,0.0016093762479083
0.0100489218956939,-0.0217968741971945,-0.00755642611505821,0.0013977171848334
0.0193965676985213,-0.0232167595694205,-0.00551036224246099,0.00110006295225044
0.0221997483616965,-0.01744494724506,-0.0025975100234,0.00101694454834069
0.0238065019645462,-0.0103701237623454,8.39494913389442e-05,0.000823449632189449
0.0197438204428759,-0.00707485438302418,0.000404500795117265,0.000408278168043122
0.0125692207927097,-0.00906594265760196,0.000641337286486849,-5.99295939703775e-05
0.00644508831897278,-0.0129574107932457,0.00159534504697174,-0.00038761229453552
0.00514266657621395,-0.00966143685132283,0.000616439311112207,-0.000542212022241717
0.00897640166544097,0.00514463816534469,-0.00136659428692751,-0.000671550257678825
0.00854653991919475,0.0220265264663152,-0.00145485608079981,-0.000714262472205983
0.00165519269582442,0.0279640147732989,0.000174919126492559,-0.000425995439000667
-0.00515641539124791,0.023072867476756,-0.000930145423770483,0.000283169640334929
-0.0108630538636809,0.011979359845245,-0.00582770966480463,0.000881982752357705
-0.018702354387577,-0.00161651873467835,-0.00982740390227733,0.000784959415363001
-0.0240103697667658,-0.011586550734211,-0.0104672001881245,0.000184332130558044
-0.0143615487251495,-0.0163746770767022,-0.00961624533813099,-0.000323445780918787
0.0104608570261091,-0.0150222737302616,-0.00728341511299383,-0.000603579748465339
0.0226941759229213,-0.00920375146745054,-0.00427975299504201,-0.000865436452892687
-0.0034599930679129,-0.00840364164423171,-0.00580396354250222,-0.000976414857271953
-0.0401607493713666,-0.0119210423991863,-0.0106326241626631,-0.000607209807484099
-0.045055183782203,-0.00573662881037755,-0.0145024563479592,0.000218327308238254
-0.0239998427490628,0.0110107193428055,-0.0167820714558902,0.000706276404565975
-0.00376375303557711,0.0236175998623775,-0.0141485849778157,0.000248382080346258
0.00564309963492209,0.0235925314543214,-0.00759599222827356,-0.000461151002518131
0.00534524497022033,0.00850892413860937,-0.0061327251449821,-0.000687224751243206
0.00767756516333484,-0.012806214067064,-0.00931027089469617,-0.000761333401782676
0.0233132117554648,-0.0240553342093736,-0.00901631257682823,-0.000987844387206314
0.0356172231833991,-0.0240588851704357,-0.00656136521228459,-0.00104917648522632
0.0292125185117591,-0.0217077455291796,-0.00419586223528047,-0.000757943461205169
0.0134939607055511,-0.0234671249306663,-0.00403901727854163,-0.000301966880994076
0.00272420285873891,-0.0291030601150469,-0.00674421589013978,-6.99694284111034e-05
0.00422400433440287,-0.0338217300031847,-0.00386861637974743,-0.000407830293011197
0.0163132626571863,-0.0305697322491038,0.00603241449917053,-0.00107117791144317
0.0368739202375958,-0.0141674968050429,0.0145936459500285,-0.00127864938838097
0.0492544387277397,0.00477396137147192,0.0146711123503308,-0.000799358281645746
0.0184988681969759,0.0101203640486279,0.00755083020319978,-0.000115360752055672
-0.0467076616084796,0.00860317811942554,0.000250613496289596,0.000607139096313913
-0.0856219582873727,0.00986906687896314,-0.00910775251620266,0.00126457892847491
-0.0623432808385406,0.0023976003234186,-0.0226526916511351,0.00124024427208744
-0.0118709893399029,-0.0253153490119508,-0.0325165216254732,0.000261529405860343
-0.000118901710122146,-0.0596660855388122,-0.0369331751991975,-0.000823758334005298
-0.0329740323634183,-0.0731234101064569,-0.0386832052678696,-0.00102426943664867
-0.0506598838584787,-0.0643352742089146,-0.0339779748357435,-0.000603605939630746
-0.0350114614552532,-0.0616711984830283,-0.0263302239637741,-0.000489970040312663
-0.0235862058700494,-0.0746952040073893,-0.0254603728020827,-0.000944260137440795
-0.0207165601462712,-0.0755651798135643,-0.0286425613577359,-0.00165337018724924
0.0065378485133583,-0.0469952328245226,-0.0249604793381625,-0.00236368543333103
0.0725544696331556,0.00142439685175062,-0.00912685396036204,-0.00287536712729942
0.139455872335642,0.0554030105139061,0.0143397801112176,-0.00269563835714084
0.142173374903461,0.105567512497726,0.0413032964628112,-0.00100415450801138
0.0763781427140744,0.132428931166047,0.0639406712473677,0.00282687544923521
0.00271585344840994,0.100071559533072,0.0666282628297561,0.00786110434441666
-0.0439961751706663,0.0199496788596056,0.0503001258541167,0.0111241443604828
-0.068927304855778,-0.0451765174243337,0.0277646892269336,0.0102375458066831
-0.0749255559983875,-0.0642013140876372,0.00573786689075265,0.00598651288884441
-0.0638582441234018,-0.0563482227993998,-0.00993791998650996,0.001145885508098
-0.0413370376780516,-0.0481868253754007,-0.0158577461801541,-0.00237027978142318
-0.013799724936579,-0.0439306038864022,-0.0147309372286485,-0.00416566798746606
0.00682201060853178,-0.0340283717898768,-0.0109335547010114,-0.00443319275496104
0.0129269558934935,-0.0186215404283461,-0.00753199659920039,-0.00338798230834589
0.0105411747817714,-0.00778830031380559,-0.00427745331080272,-0.0014553381466287
0.00656586998638964,-0.00517470954856207,-0.000983501919297901,0.000444223185493391
0.000480586784984425,-0.00504604169471884,0.00194409446180945,0.00150720826439042
-0.00568369431931965,-0.00228117193179057,0.00532367250440953,0.0018232926654267
-0.007939854239214,0.00325708293839628,0.0072367440299664,0.00189005299200494
-0.00610926766851137,0.00981711026483862,0.00712416145734192,0.00158694391997232
-0.00299082415026831,0.0150143282738136,0.00817342641808492,0.000989477536078448
-0.00128071379259848,0.0203956747869208,0.0103311819553857,0.000827571444845185
-0.00205470536480472,0.0271079607055655,0.0114578369440402,0.00135198621098616
-0.00293605461486065,0.0307761773014225,0.0114749066926742,0.00224769829221488
-0.000984633257589821,0.0304333084132129,0.011591109559848,0.00298723314523853
-0.00127047672955777,0.0297468074462059,0.0126975329707372,0.00314212793425646
-0.00539101268574115,0.0297021405049889,0.0115586919598179,0.00289644105148861
-0.00370578033542004,0.0253721407532504,0.00599916536876644,0.00248685814992681
0.00465535021221967,0.0149046261580534,-0.00149697003383543,0.00128139264047431
0.00771885847674823,0.00676811520646422,-0.00698089109326419,-0.000933964804945214
0.000845693362060868,0.00451903877450361,-0.00569413094959071,-0.00239464665360096
-0.00640238229447598,0.00135981825027851,0.0028014912071867,-0.00193405755210392
-0.00614590778450106,0.00533529456510582,0.0141950857771282,-0.00129614623778222
-0.00183935480697617,0.0297588426438302,0.0266697147682818,-0.00213206946062698
0.00421323629719072,0.052585641908705,0.0377546905007543,-0.00322096733335995
0.0108294614829039,0.0478032638959513,0.0403031338634584,-0.00277294421951181
0.00841282822820801,0.0308934253848039,0.0342278764430166,-0.00146404468352864
-0.00451021578422565,0.0204808172815385,0.0260202142321508,-0.000728654751387013
-0.0130136169132712,0.0115330586042412,0.0173020698001982,-0.000486203411918957
-0.00858084012487421,0.0043284218301792,0.00868519011680211,-0.00035170681227241
-0.00101994025825764,0.00849123644782808,0.00211108627603027,-0.000137638525559028
0.000420150405060445,0.0260005567208355,-0.00194899450669923,0.000342317192591715
0.00265293252426782,0.0388483684172937,-0.00363825350601082,0.000858534805161675
0.00827583291075789,0.0238110235412537,-0.0043107046912213,0.000970473190237921
0.00850610616367534,-0.00580935851779359,-0.00634441714737743,0.000133009125015701
0.00501181465103969,-0.018664461509615,-0.01243440246814,-0.00149071203172847
0.00409901179372678,-0.0149456977449612,-0.021355026570398,-0.00283354328677628
0.00513002481516428,-0.0129689450319113,-0.0246913267267447,-0.00319760802248481
0.00360053266919365,-0.0161653992762112,-0.0177741406408369,-0.00257613093550062
-0.000703866196408165,-0.0173332980266168,-0.00628280104217652,-0.00150854539497628
-0.00401190758297524,-0.0125947641029796,0.00217015588450844,-0.00083902198665979
-0.00822882750623975,-0.00627527704803248,0.00413685487541523,-0.000930506077642118
-0.0140017763196235,-0.00481531515887881,0.00203008466909615,-0.00144175168253867
-0.0174986813492593,-0.00539070167017811,2.00165209131593e-05,-0.00198161518184266
-0.0170992755711741,-0.0033413974307034,0.000694101810400223,-0.00225329344427605
-0.0152523195778935,-0.0016703154353246,0.00248667407874296,-0.0020295934414894
-0.0138170699797419,-0.00130115166557019,0.00154795349906457,-0.00152784390842228
-0.0112255801832478,0.00302721185889608,-0.00148374822628234,-0.00109061561352495
-0.00749792966486258,0.01290452278016,-0.00406937642083172,-0.000769286121438624
-0.00127991884208653,0.0189688599855537,-0.00507332511820785,-0.000331746221712365
0.00733758453205629,0.0131051174642558,-0.00503804429862852,0.000376827372489706
0.0182427100071605,0.00344861157034516,-0.00399798545302832,0.00111200210160761
0.0337279337689361,0.000131830905515867,-0.000735235340614364,0.00167853541191312
0.0448631126518008,0.000594668922491549,0.00283656512267253,0.00206204709492515
0.0424591835786691,0.000308587843094187,0.00377577453094859,0.00208727934995784
0.034297116359484,0.00131597998001967,0.00219992106354375,0.00166595281662397
0.0336715454609755,0.00630785018732393,-0.00220307014782361,0.000916571378362279
0.0398338627492931,0.0109631067569829,-0.00594930609955405,-7.34717973072362e-05
0.0381043875410291,0.00422654205933275,-0.00574124130850178,-0.00110351409745249
0.0200644581031101,-0.0129623801893719,-0.00341923845512507,-0.00184478929524248
-0.00538532432825518,-0.0251806342853755,0.000551975448268905,-0.00205016194592763
-0.0248894660633757,-0.0281455198331633,0.000914311092183788,-0.00179186368660197
-0.0319375809039585,-0.0315031927772177,-0.00534077916532841,-0.00145661499206652
-0.0267312299672681,-0.0379278282078117,-0.0104596252041536,-0.00115643788485845
-0.0113476777992031,-0.0378099447541403,-0.0101934059338747,-0.000518438764535945
0.0152162841090085,-0.0269395198871032,-0.00876936026516024,0.000651643502091178
0.0508626564332015,-0.012857378754736,-0.0106653458460505,0.00186433033474079
0.0768777649389789,-0.00281573072358941,-0.0164095789576065,0.00232539080508345
0.071209476044656,0.00933029710272242,-0.0222750224638753,0.00198095401279078
0.0455316665311755,0.0335208996551975,-0.0236746907799682,0.00159425695236313
0.0276186548828361,0.0540464283427913,-0.0206393523831062,0.00153537572108211
0.0216641147650343,0.0460678352790717,-0.0175675706519355,0.0015644368863342
0.0183147123255007,0.0155251838440011,-0.0150945032338564,0.00128086778913225
0.00237843634889057,-0.0120588863179781,-0.00856595343063155,0.000608590770479025
-0.0274808009269406,-0.0246179704439865,-1.79790052532262e-05,1.00399524504841e-05
-0.0407525494857772,-0.0245782083557408,0.00585094166077135,-0.000338674079028399
-0.0276244495092264,-0.0160052656254454,0.00969316332821175,-0.000710878556824124
-0.0133701206113243,-0.00118895941895502,0.00940308014490125,-0.00130048518304864
-0.00558130526858346,0.0164118647019001,0.00205553598363575,-0.00203475390246109
0.00945881085655724,0.0301376562784783,-0.00719000491386207,-0.00261465988978198
0.0275779183218261,0.0371196866672613,-0.00654049649254461,-0.00291507439156534
0.0290598605933785,0.0383635088338531,0.00546461455995781,-0.00295647584043706
0.0127679072301459,0.052147675074297,0.0182517022406476,-0.00257180639106512
0.0059392705484537,0.0906875636193431,0.0236348780823383,-0.00151819582970045
0.033770819969897,0.10348610712552,0.0147166123422505,4.92094090744268e-05
0.0797409323520135,0.0524427249455546,-0.00941483927091243,0.00124939977377407
0.097569090648112,-0.0138362588825963,-0.0320507424119186,0.00141494782424848
0.0702289994712806,-0.0495908194995289,-0.0378432411046571,0.00135429352059489
0.0258665484836852,-0.0623810231407792,-0.0291212184318611,0.00214473930242497
-0.00777080408889763,-0.0618452270566,-0.0123125558015502,0.00338735565698982
-0.029902380855672,-0.0559512156909748,0.00554347407089655,0.00410872252103655
-0.0525575826067032,-0.0589591571275303,0.0239724884289547,0.00388692871866306
-0.0732111867385527,-0.0511434118330174,0.0444902665672435,0.00297489732765277
-0.0754770480394456,-0.00218485600047867,0.0519363809820696,0.00217298217482128
-0.0573617549125813,0.0643791071620845,0.0407927210602698,0.00163231553235474
-0.0350328740204197,0.102814555441277,0.0271193709097898,0.000635125912823519
-0.0176600327902712,0.104897729867095,0.0148129435409615,-0.00108824150415013
-0.00443157743039544,0.0893078058157098,0.000993929852919281,-0.00321430989311141
0.00344885235068849,0.0668041208649121,-0.00935058736723936,-0.00529194341162117
0.00688702184255875,0.0382517378539887,-0.0144379862431744,-0.00672104236588835
0.00743588813265159,0.0062342569626166,-0.0146878442391804,-0.00679679227025917
0.00258127346724716,-0.0246313256953046,-0.0127147224349211,-0.00522458172957509
-0.00972382530972307,-0.0437865356057725,-0.0108934068830152,-0.0025362754752847
-0.027088882564427,-0.0436157256017232,-0.00320346938241115,0.000466326840913156
-0.0453410601214552,-0.0341758219427781,0.00926326697687142,0.00350135884019716
-0.0540492057994204,-0.0272175949607232,0.0129260673729011,0.00657089298740835
-0.0450338851675229,-0.0211879923761622,0.00754029115930952,0.00880418951956125
-0.0305894250555096,-0.0135178488840527,0.00428931533668439,0.00871043610273279
-0.0256478842882069,-0.00617892610514631,0.00741258211195248,0.00627350735778535
-0.0272220783583917,-0.00139504125794933,0.0143086028809904,0.00317482438484836
-0.0264074915787736,-0.000511699216709412,0.0200788418497891,0.000849808956739928
-0.0219334030569755,-0.00442709739211533,0.0212193560573811,-0.000378025129745209
-0.017112096306157,-0.0104238292646693,0.0181732291952539,-0.000829361913487215
-0.01462352943931,-0.0136400673418132,0.0148393322865808,-0.000876729042310566
-0.0156922420727562,-0.0160320537385452,0.0122607505042514,-0.000735221399324381
-0.0185546369748712,-0.0204275117982419,0.00799376664768794,-0.000323106314039305
-0.0213372323974086,-0.0254612482945017,0.00233956610147814,0.000492520114563962
-0.0241122135792764,-0.031199466286062,-0.00233460297020444,0.00112253806296134
-0.0257952977684287,-0.0383590033812187,-0.00422447635286714,0.00106649794869363
-0.0252199359608535,-0.0426041000985373,-0.00310558916432924,0.000521634017838075
-0.0241680735381395,-0.0375313362860287,-0.00270646253135356,-0.000262297953431788
-0.0249212885374555,-0.0302335137242231,-0.00796764916029259,-0.000608697852293662
-0.0286718363935099,-0.0326088735207096,-0.0203669708823612,3.07999768745266e-05
-0.0362864873463392,-0.0439162985305311,-0.0362368767793039,0.00121231157680103
-0.0428875695756318,-0.0579202667710282,-0.0461096160169848,0.00232342025750301
-0.0460116085913562,-0.0709477626447688,-0.0423956149757909,0.00325763546059493
-0.0497597509989713,-0.0725849929827559,-0.0239997230721225,0.00389089007849756
-0.0486121796562115,-0.0382772190457567,0.0084829353282023,0.00323567989185405
-0.0336441385604361,0.0196114128489997,0.0427150134762228,0.000560226923045722
-0.0146851313867707,0.0407166334623109,0.0528646012929315,-0.00336389495345733
-0.0134323166214514,0.00924279073077504,0.0349609278449397,-0.00717629527649779
-0.0324989922099695,-0.0262992153719116,0.0101840568234812,-0.00941677303581285
-0.0521920904980063,-0.0352071276213694,-0.00753536331024059,-0.00892228389215613
-0.0553060833298731,-0.0312338690029234,-0.0149353110583696,-0.00601961102100272
-0.0435847197105212,-0.0307421660429741,-0.014308537024922,-0.00228730942499324
-0.0303717241878578,-0.0314056729064932,-0.0149703820422143,0.000940611539535044
-0.0199236318120819,-0.0229978995657405,-0.0214906533520082,0.00295308764546296
-0.00566737298059474,-0.00744005432494647,-0.0291357026906816,0.00350403223090117
0.0161059438437908,0.000858999382653941,-0.0331377309658489,0.00298917426469215
0.0504273660351716,0.00244556200341642,-0.0259374256622409,0.00209816471885772
0.0917170722140113,0.00681424400931443,-0.00836735234491022,0.00155282901589761
0.108949766850486,0.00679702949460383,0.00792912675455739,0.00156541469055667
0.0919105031950836,-0.00398056058372589,0.0130205210329972,0.00122022462496989
0.0606398490000133,-0.0202161568991571,0.00309427922702634,-0.000263423120427767
0.030067229705467,-0.0332673777002977,-0.00724770932566998,-0.00203978202331735
0.00485479179146342,-0.0365745949126404,-0.007823993942146,-0.00283131979360997
-0.0180101555869375,-0.0264385499556448,-0.00634165098749739,-0.00298420140908488
-0.0362678705345599,-0.00872469123888715,-0.00489873861304642,-0.00354832130781548
-0.0473399830179072,0.000497183397166128,-0.0026421879441785,-0.00417868394810094
-0.0538938692554806,0.0031660506166204,-0.00165661369284994,-0.00405129265281243
-0.0473257785091515,0.00950364642174713,-0.00396222333543732,-0.00334828955119607
-0.0229149202121681,0.00830173647266123,-0.00961519513699461,-0.00272640830661511
0.00531082951497241,-0.00771950650970064,-0.011241069517842,-0.00266690790730208
0.0224058063483365,-0.0218921458921048,-0.00544066717488293,-0.00315599637966386
0.026437717036419,-0.0183979417139373,0.00081021902163996,-0.00345540242087923
0.0257785016087783,0.00373028920267073,0.0050386064023713,-0.00277549905543456
0.0332837556667869,0.0226525139690029,0.00549144207818423,-0.00132139178819072
0.0617650509159587,0.0222828168365534,0.0039254961655401,0.000132728236661128
0.0976547944199878,0.0230771519668598,0.011032135574352,0.00150277374447865
0.0936944149799373,0.0248928618928886,0.0213310786455891,0.00331962492871102
0.0463845254931742,0.00755092841602943,0.0233540893254765,0.00552623044169633
0.0177422070912213,-0.00609998665563118,0.0197903652356431,0.00707719698091095
0.0239429524166161,0.00584075196917498,0.012533264562996,0.00686626516665637
0.0281307519792701,0.0292071328188925,0.00425927192482562,0.00488654035992666
0.0284821297718833,0.0457799276669815,3.123806280848e-05,0.00240461456945491
0.0399072941745412,0.0368697119186642,-0.000572516129530099,0.000889679263932992
0.0529330755757477,-0.000153103885631473,0.00248355924549479,0.000684065765331142
0.0521226225184962,-0.0353920770324655,0.00902534402564883,0.00109093921927417
0.0409563548955185,-0.0419437480515607,0.0121982318395076,0.00142770293486497
0.0321129474079584,-0.0256248983649217,0.00788753616200896,0.00112613196829931
0.027462076746558,-0.00524548809173235,0.00153082397803877,-0.000108075174232827
0.0241618571254014,0.00907728652492047,-0.00080927795203725,-0.00170294503252417
0.029597012934168,0.0183981521153227,0.00151621800313259,-0.00247861956795627
0.0523132967818131,0.0272172358928772,0.00475211987926817,-0.00192514572610608
0.0635924130016127,0.031160945130939,0.00553261759223901,-0.000808692299073241
0.0209997177217366,0.0355169738189697,0.00367770236026191,0.000147446925596869
-0.043179619303279,0.0568656995018567,0.00211677664958557,0.00112063690186675
-0.057817803016638,0.0716278887040201,0.0025974288859207,0.00260579847082459
-0.0258518877756986,0.0476820161795249,0.00325869433581153,0.00406763565628698
-0.000739253661878492,0.010939715795966,0.00233890469479212,0.00426902735927978
-0.00516596896170764,-0.00690951640910888,0.00156401230980384,0.00341379708182042
-0.0193874913542098,-0.0100498149160447,0.00167444933990926,0.00246899007487899
-0.0198132119736868,-0.00676106460014693,0.000609606847351314,0.00170317123707417
-0.0121648877926907,0.000742373151200474,0.000790031923976347,0.00103882841060461
-0.00891512163194425,0.00731046813286461,0.00371369123687521,0.000583956951310918
-0.00674237607087694,0.0107169621892991,0.00615320061392346,0.000642780808106418
-0.00193008936538983,0.01387291478426,0.00690959268436234,0.00111058937959855
0.00449696836375534,0.0167404966749804,0.00683076027568193,0.001371719483601
0.00885183795202158,0.0200446082366943,0.00719956047305935,0.00105785717063264
0.00929723291829789,0.0258129716078059,0.00754729586622226,0.000446503122005222
0.00842948500387642,0.0348865702638306,0.00607800957235551,-0.000172665211748421
0.00527536446735538,0.0456960258489129,0.00369296932511295,-0.000658786970442859
-0.000936706067322927,0.0495684257776499,0.00302474708413677,-0.000905764733589567
-0.00736237498689494,0.0417470623592634,0.00298370552978314,-0.00113731052191693
-0.0126354208266321,0.0285745155416064,0.00134897121375597,-0.00145730431294568
-0.0168146758688632,0.0180303498923672,0.00166476319016381,-0.00165368277886837
-0.0199700774844404,0.0125091020879148,0.00350132474827018,-0.00164647093909889
-0.0213274225827844,0.00997568456184696,0.00237318717156854,-0.00166677578779732
-0.0211652382955637,0.00762074246733093,-0.00053559766351634,-0.0017269796070065
-0.023159440015247,0.00557018849133364,-0.00287547098998028,-0.00186814075263337
-0.0267093477368652,0.00656294532234109,-0.00526202152686577,-0.00248324569103132
-0.0263944784143116,0.00933460883857058,-0.0084547027572091,-0.00323917769399841
-0.0230966956315607,0.0109826506817714,-0.010526681883469,-0.0034696238842861
-0.0211167715627906,0.012243549593821,-0.0109077851471297,-0.00314399217028586
-0.0209069786766947,0.01373285823473,-0.0110493928218084,-0.00263278304841493
-0.0196091964644857,0.0164186694469063,-0.00985979944037031,-0.00207275665092564
-0.0147217393555531,0.0198924575916885,-0.00609942202126803,-0.00142632306949232
-0.00733552743881496,0.0176034557590202,-0.00347053215837495,-0.00109898647056557
-0.000503676469818078,0.00841302345854556,-0.00395931928333662,-0.00137013796256399
-6.15222584760154e-05,-0.000174838805733079,-0.00446046482986131,-0.00182159752524727
-0.00482903545950187,-0.00289748145506563,-0.00354616058826145,-0.00186779510491679
-0.00152035355032418,-0.00200089691791611,-0.0019844897473123,-0.00154246394448972
0.00974273566806462,-0.00567855669974288,-0.00324361207741175,-0.00124299577770496
0.0196973347504756,-0.01184013275005,-0.00872472393968668,-0.000883243342993003
0.0332984274110879,-0.00929417250421386,-0.011892950610638,-0.000573165553532597
0.0477604651145499,-0.00679945325102276,-0.0105094827730955,-0.000803171266114909
0.0492801792953243,-0.0177882210335263,-0.00977643524807648,-0.00145860724572306
0.0437246543243634,-0.026163193810444,-0.0128280033813944,-0.00196599382316701
0.04642524290782,-0.0161339930106967,-0.0207334230808919,-0.00202093470722367
0.0581616395885121,0.0020833915419178,-0.0275421469685252,-0.00194630617789605
0.0625280383772062,0.015395654703187,-0.0261090472410204,-0.00206597199598937
0.0500283483716121,0.0242448375034186,-0.0210123793883706,-0.0018148449645462
0.0382079991716277,0.0385430664028412,-0.0167802995256476,-0.000385447759478726
0.0234856628270874,0.0463895425575866,-0.0110243561796643,0.00193228786868294
-0.0314882337000333,0.0184032548841735,-0.0035750094053546,0.00410318296681995
-0.110570922032375,-0.0239628819502431,0.00336750089705549,0.00502467736880274
-0.140295991770142,-0.0250782013564962,0.00732957216472438,0.00359226205561807
-0.0980769308524804,0.00845933918113542,0.00414139918486651,0.000405947495842656
-0.0277153279187655,0.0290025669142974,-0.00716356325900778,-0.00211800239847873
0.0278366347968109,0.0290279521054605,-0.0178437650545771,-0.00297162150995398
0.0516243283340289,0.0228318872649709,-0.0177001994945279,-0.00296642422883278
0.0502042049560404,0.0168427196681753,-0.00588736620776031,-0.00237001597110801
0.0425793765496777,0.0125520342077043,0.00900259067955063,-0.00104509813987859
0.0392872128079662,0.00464870991275106,0.0178443949925928,0.000395797347144026
0.0377474203527315,-0.000433189778435629,0.0205572359588307,0.00121831641451097
0.0325633591031278,0.0128475454414286,0.0193302202861528,0.00134915266359581
0.0232547895586206,0.0280000631147187,0.0106968471563553,0.00126195817698324
0.0126155307659137,0.0206538817826884,-0.00248009122671902,0.0010983249977343
0.000646298615644986,-0.00493978377198263,-0.0121000127784296,0.00064001282192154
-0.00739489609425984,-0.0407151974416053,-0.0159739759461281,0.000240771262343887
0.00399261296163692,-0.0756213397823827,-0.0115968537774402,0.000417112086100986
0.0346019744517525,-0.0990389620370728,-0.00401360060703223,0.00126155302668276
0.0630221703511607,-0.111271248034333,-0.00306537489049091,0.00264993332878109
0.0813445997771415,-0.108339223407883,-0.00253925436403806,0.004211602287138
0.0874604177111137,-0.080910670813512,0.00396357216029914,0.00534908406132473
0.073976850341059,-0.0384866353520218,0.00840246907045187,0.0056983039663174
0.0478559660862948,-0.00543105695311269,0.00706533549112206,0.00517516663398229
0.0196195206059412,0.0204152316891876,0.00695226758685592,0.00401830959400216
-0.0103689563672719,0.0471573156141941,0.00937830567690672,0.00255359250898964
-0.0537400374776527,0.0528070997498959,0.00723315536611787,0.000914942146340313
-0.101291740533849,0.0327071511364429,0.00413811264114655,-0.000485301746341191
-0.12496540977597,0.0186102883320228,0.00829651761487959,-0.00128654647367259
-0.131207019909884,0.0219128651503739,0.0143363942132744,-0.00132878873793157
-0.122427783280201,0.0278016079717572,0.0160760594556787,-0.000815168471691739
-0.0796289186857816,0.0315941654814049,0.0142483012273439,-0.000550110936862146
-0.0209285177354983,0.0290704573262619,0.00904111680062476,-0.000737648114265597
0.0104593420714837,0.0129540852473807,0.00371214077254665,-0.000864519956910288
0.00984291108418492,-0.0126073959858091,0.0011335738105914,-0.000500371381443961
0.0010440044253435,-0.0401945373929426,0.000866158121122696,0.000350694814175089
-0.0111520987687796,-0.0643204668253771,0.00242935883579153,0.00103010267782369
-0.0247517006398384,-0.0781028263268743,0.00697702789714836,0.000807545338201273
-0.0275369108882607,-0.0834422307273332,0.012141711299,-0.000318430466882883
-0.0225026129581141,-0.0896534571657607,0.00930834568030661,-0.00141412590059797
-0.0250998936340023,-0.0948387540100539,0.00115097654919349,-0.0017235879063482
-0.0326420622854558,-0.0962342565264948,-0.00337104547593797,-0.00135278685100534
-0.0275937611758371,-0.0966866768547352,-0.00422028405499709,-0.000551620019271619
-0.00822283101970075,-0.0865107598078181,0.00115523608649433,0.000270837458668912
0.0164543005880458,-0.0586438799344486,0.0157445725079422,0.000722282073683445
0.0372620828634848,-0.0249052913576565,0.0303069923763226,0.00117016221319414
0.0420451125909604,0.00992711066235312,0.0357933289730817,0.00193404743166979
0.026374719111652,0.0355996652766471,0.0316387641902326,0.00259115585755018
0.000750639441121172,0.0293856940974963,0.0183786690466398,0.00262629042990907
-0.00820580832111713,0.00296224574774231,-0.00276633360621335,0.00164944527794368
0.00247626772017261,-0.0172543137749583,-0.0233620984398017,-0.000225114004284296
-0.00026002915393334,-0.0325495943087014,-0.0356762427213546,-0.00192651612147353
-0.0168053326574516,-0.0370142695773615,-0.040688400133696,-0.00223206381281049
-0.021018629506613,-0.00965977359953551,-0.044663569859822,-0.00136182315923748
-0.0120639052291138,0.0242975008595328,-0.048165774050164,-0.00087266760732023
0.00154259265706056,0.0163330141381578,-0.0396151999682218,-0.00111406195636624
0.0108330433734851,-0.0174315684263465,-0.0181212691738037,-0.00115745733623261
0.0155428219760972,-0.0154217767699315,0.0047556661908298,-0.00137493725336391
0.0289586132319958,0.0376518503108374,0.0226549071332224,-0.00253312991730101
0.0361521171541497,0.0720473089865631,0.0293549686911917,-0.00376466849326004
0.00545148351892268,0.0282093529642971,0.027145674938137,-0.00353311422305199
-0.0448687046481583,-0.0536168798008689,0.0259493625481182,-0.00155754988282589
-0.0630676756316435,-0.100294768327147,0.0225433147184195,0.000697100719918928
-0.0412809762054357,-0.076364096170019,0.0142644770463135,0.00177354774741031
-0.0125652803634479,0.00834915466934401,0.00839988748550627,0.00173831915416908
0.00175994459917093,0.112560411484437,0.0042798972578798,0.00151368013281254
-0.00817503823727058,0.165610120367454,-0.00318481308341407,0.00132447958111072
-0.0420931037118259,0.118880125653323,-0.0103065625555424,0.00063629197761988
-0.0541156532820106,0.0251236069320899,-0.0140015424359293,-0.000494223077235845
-0.00189022595757765,-0.0350884978285528,-0.0180126520970717,-0.00148818570883524
0.0753195527388278,-0.0498653381609327,-0.0224611004137177,-0.0021166367498907
0.110383148217883,-0.0494645603308645,-0.023766053555711,-0.00220229621226007
0.0891193694522541,-0.0512385266030412,-0.0193952415566984,-0.0017214770198891
0.0470820376875194,-0.0458174270929178,-0.00738971515782732,-0.000982106606282382
0.0274463457791577,-0.0268565704930131,0.00732683424616894,2.63101174760266e-05
0.0378247680376998,-0.00421865036691519,0.013980714016061,0.00120690707401644
0.0470980002972887,0.0168756746470355,0.0123012528249197,0.00202666307571321
0.0376121779655178,0.0401712751419504,0.0120240419472237,0.00230949759163303
0.0220090082426634,0.0677288158154725,0.0109441342728008,0.00215437463226387
0.00909997269933183,0.100324681261128,0.00207597637603083,0.00184650463126705
-0.00348103839868158,0.128099674766253,-0.0076527220341785,0.00158250831476101
-0.0117942094727985,0.132477209496826,-0.0105315082215044,0.00108109841695254
0.00070945798648627,0.110884190619859,-0.00702065965251121,0.000277213302669198
0.0340771483410626,0.0759021124431317,0.00115598485640608,-0.000563230330702871
0.0564832170756945,0.039650063509916,0.00849204107868601,-0.00125064191654993
0.0461020389523189,0.00297171599533275,0.00711553510552514,-0.0019315459041207
0.0194639178522443,-0.0263153813561012,-0.000126558315937907,-0.00280841116107529
0.00383631295829891,-0.0315776512018992,-0.00601999816108126,-0.00350950131307312
0.00291183136602963,-0.022285438758247,-0.0116636190152623,-0.00338646490775962
0.0149087523841258,-0.02301325760866,-0.0148094502645424,-0.00224007536856204
0.0503985910375595,-0.0379088939638527,-0.0099251671488945,-0.000618866850689649
0.0833583354708688,-0.0421636307580993,-0.00221980320977218,0.000588910938841072
0.0552998806675465,-0.00856262064871868,0.00784310342043458,0.00134445287603066
-0.0180627763731637,0.0426136092603331,0.0233873711155112,0.00276168044495522
-0.0554342004854676,0.0605180544724707,0.0370430729344298,0.00540942760768909
-0.0515607941148417,0.056168969989726,0.0385848266470257,0.00817823103980551
-0.073741985957886,0.0630115071275393,0.0253468134203745,0.00922935076599291
-0.12333363080267,0.0513266045172846,0.00903245065285531,0.00788474436235871
-0.142288210951279,0.0113831709112193,-0.00104450538007115,0.00521838919574327
-0.116142507292861,-0.0161086818602419,-0.00431330314159393,0.00222528758447126
-0.0717033439614699,-0.00935447359066414,-0.00249474724870456,-0.000963524041578297
-0.029673327385434,0.0169171677294928,-0.00280158472161447,-0.00402261875143141
0.00670260389331617,0.0336082797279048,-0.00745372223507407,-0.00624790130200374
0.0439064614145371,0.0291823631074815,-0.010274083857459,-0.00694078401197734
0.0709014182078101,0.00771265855268834,-0.00767924379247083,-0.00601622961486551
0.0685998327196439,-0.0139746322757255,-0.00119006103154126,-0.00408702317396275
0.0490166757935316,-0.0174139939561103,0.00384368242654671,-0.00182712731080731
0.0292392646269347,-0.0103099103021121,0.00530187054460756,7.65760654860906e-05
0.0074475577236892,-0.00694845288778517,0.00246410714960053,0.00116906066151936
-0.0179662689768029,-0.00856679059857075,-0.00541046563144241,0.00151146512622864
-0.0410494442734603,-0.0110637625001186,-0.0128032589668991,0.0012248260775747
-0.0559952299152802,-0.0115290987310106,-0.0170652350582128,0.000750186576989443
-0.062083189640486,-0.0139063613651119,-0.0174689935720231,0.00102048363474082
-0.0612256581608929,-0.0164789630859735,-0.0151364146962081,0.00218327058319791
-0.0547681667371564,-0.0122955668703101,-0.0148495590756557,0.00336489944591445
-0.0476015371056663,-0.00896051484747927,-0.0153699439024424,0.0036210947916022
-0.0461378254628286,-0.0179377164849014,-0.0140840879894636,0.00258674423894526
-0.047354343800992,-0.0303265812155077,-0.0116579850633243,0.000736330391957253
-0.0423313227251394,-0.0290547811802093,-0.0101272859596402,-0.00111454004822738
-0.0276866347819451,-0.0171729496876274,-0.0110866328820275,-0.00242296644182871
-0.0144824070657728,-0.00364886737308855,-0.0146848487722569,-0.00314222746566919
-0.0190164368911065,0.00587836202511976,-0.0169446173907167,-0.00321592498528274
-0.0341084738112457,-0.00337689611690182,-0.0130177937104497,-0.00203988977531883
-0.0371417280176937,-0.0332788863069466,-0.00496661412406905,0.000147254215631184
-0.0286784030914523,-0.0676583216111368,0.00130770143152954,0.00149513945590923
-0.0279959533965675,-0.0902084705367986,0.00179686449868909,0.00059337395743347
-0.0495910150347754,-0.10564071409196,-0.000680767886274545,-0.00180532354990252
-0.0869405099264975,-0.134053310175583,-0.000875944680532794,-0.00386436172051907
-0.105836833342218,-0.143409937637484,-0.00177497878106387,-0.00430517725398616
-0.0812216341004836,-0.0995310427516187,-0.0134214704462986,-0.00276796902908137
-0.0316742473239889,-0.0744617736006301,-0.0329405717081249,-0.000799902302442491
0.0105844046798144,-0.111477516285834,-0.042162062474519,-0.00112758966234816
0.0404697778467702,-0.137314707892929,-0.0359567369494738,-0.00406430702399893
0.0630802295932267,-0.134277569193932,-0.0311799736924873,-0.00675291764817936
0.0689955336791701,-0.142551602895148,-0.0394654704035367,-0.00682271499476059
0.0640344999680284,-0.131727207417511,-0.0488632013092512,-0.0047250508139341
0.089643915353885,-0.0513193367614172,-0.0445914789972592,-0.00231502678633431
0.169702478893691,0.0781658836364267,-0.0276592216124118,-0.000802978181277193
0.247958773063787,0.201026194107627,-0.00204484239538115,0.000210765588286627
0.218396817767965,0.281709856703203,0.0292817091590831,0.00240424575337871
0.0438944368101777,0.267515490574105,0.0483025363514145,0.00677905013255097
-0.152066554707047,0.140731923234363,0.0383880665513709,0.0112430530652009
-0.207533215773816,0.000785243908618449,0.0114580728528338,0.011918495035462
-0.130251458578338,-0.0772430712093871,-0.0192134612928745,0.00731760755776297
-0.0246635077136801,-0.119620336979218,-0.0519590916662182,-0.000557075460401098
0.0500782414290187,-0.130159665930479,-0.0673026254991601,-0.0085385304111857
0.0678727124948442,-0.0746669786008181,-0.0485034313119012,-0.0143193768760658
0.0439357699685367,0.015687026630454,-0.0125174057983739,-0.0164286000890108
0.0134274782717431,0.0530801864359092,0.0143533869476033,-0.0141052288680934
-0.00896708683363086,0.024859001163418,0.0232518298499142,-0.00821545616462299
-0.0104696569178449,0.00153748914722823,0.0202149313117802,-0.00129247681791459
0.0147320295450075,0.00651394277938516,0.0123786019642373,0.00408208896281832
0.0592452894314517,0.0234600771400462,0.00219464750932272,0.00666252887975112
0.11346300762586,0.0675095716660897,-0.00275704693369879,0.00658145319765021
0.155981810711466,0.118700192693678,0.00581218445707494,0.00487924043017585
0.157555460019501,0.134584739252166,0.026461789634186,0.00280651398982774
0.10992733249721,0.136450550166458,0.0560976912720341,0.00182154257817139
0.0356888817080597,0.137806335946977,0.0780440406745562,0.00339818615000738
-0.0303295963422781,0.113089096980963,0.0716680223992787,0.00721397505364041
-0.0640574414176794,0.0766980012157052,0.0421852234080972,0.0109883322315215
-0.077907499545975,0.0488707481978792,0.0043116502734761,0.0121910533548971
-0.0864135550094851,0.016058635845265,-0.0225188009488325,0.00939622991713456
-0.0431132286757294,-0.0172017339453624,-0.0212146945349063,0.00357926250986831
0.067090889077063,-0.0289901150532204,-3.59878374922738e-05,-0.00251792384597646
0.132967269254437,-0.0203225938678877,0.0231549129761133,-0.00642273661799427
0.0712307191850702,-0.0144760309682759,0.0342904901849841,-0.00659244335624903
-0.0464222979746528,-0.0224418891338999,0.0274277256490458,-0.00318920393973627
-0.122465872912832,-0.0255970694198566,0.0146563300630107,0.00134976711478744
-0.107450762788989,-0.00327911043867662,0.0114781371058256,0.00442026515755294
0.0119400884895362,0.0439684579677555,0.0163978896708963,0.00523933052162143
0.136890857923194,0.0978404861014912,0.0183562637253081,0.00367504275757803
0.137392880824437,0.126528145643872,0.0169907138541523,0.000207528736111079
0.0366320470666624,0.108426518133973,0.0169691019929997,-0.00255589269111274
-0.0641825395080211,0.0666725427178177,0.0128831070199288,-0.00230252198725988
-0.131012491994603,0.0303781828680506,0.00502916264583594,0.000295090344176848
-0.158118192323352,0.000804511618481815,0.00139867654065374,0.00300828200356475
-0.131597223715357,-0.0180594389146822,0.00175683416928906,0.00426509425604415
-0.0658845242812946,-0.025070899854514,0.00989911519938221,0.00378883924133618
0.00920252876911941,-0.00204786930558994,0.0273949905388362,0.00262160950982139
0.0775651478718045,0.065628934334536,0.0383393718520726,0.00219908582192675
0.100298284632955,0.109367494565869,0.0364380208624404,0.00251837330414335
0.0366677051637195,0.0632581947146632,0.0346275262308527,0.00307040056145476
-0.0751186798469392,-0.0339667660328942,0.0353314206712036,0.00445823519361894
-0.148111491542492,-0.0967033703876325,0.0265654865137798,0.00670184408527351
-0.138427939144629,-0.0922479565566936,0.00969611442502518,0.00808984861866672
-0.0822064441733139,-0.0673107194159161,0.00211123777863697,0.00687583305110939
-0.0292825065959719,-0.0695223418575133,0.00427853974618532,0.00338264148485739
0.0130270620846175,-0.0900155526604901,-0.000668537535650072,-0.000506534095758157
0.038487775378839,-0.103316731662621,-0.0116226211642502,-0.00377930432297965
0.0371248933584056,-0.105709092319473,-0.012415303683742,-0.00620960697776841
0.0178544974180755,-0.100424881243895,-0.00202516917724476,-0.00720032287269133
-0.00426294717847189,-0.0909352996490797,0.00760086834011465,-0.00657034598791736
-0.0215145915087475,-0.081236416192909,0.0115984942699557,-0.00498520402613062
-0.0287554322239413,-0.065939904786866,0.0065801547798675,-0.00327608422903483
-0.01831505073941,-0.0424858864634601,-0.00711125569576773,-0.00199299384193519
0.00603974879892038,-0.0188104049542415,-0.0160203797823407,-0.00129480391889244
0.0136059723194402,-0.00146436660577293,-0.0144118483294082,-0.00100336773982862
-0.0274774154268617,0.0174633652206267,-0.00873446925832253,-0.00101532766761839
-0.0853268420024886,0.0571130266581734,-0.00246157133856656,-0.00121133620575757
-0.0931440942411158,0.110510715161695,0.00311468934273622,-0.00123526836254665
-0.0494156624187913,0.132270352108173,0.0044781372665219,-0.0010399711536307
-0.00736524693743158,0.104298458721292,0.000411617272733275,-0.000792789716851641
0.00367050429226098,0.0640950963951291,-0.00450088059364114,-0.000588846965072441
-0.00368060012590046,0.0414520200540748,-0.00648367323311369,-0.000634132519711885
-0.0132418574154137,0.0313529782546679,-0.00532766540201777,-0.00102443174768294
-0.0220225590334903,0.0194056175537781,-0.00225645921519195,-0.00157102086969445
-0.0273561678225597,0.00247309549270594,0.00212734877106552,-0.00221182236148691
-0.0264727521478139,-0.00539499131634461,0.01076336360009,-0.00294275208333036
-0.0197397800949864,0.00271886070764352,0.0227666193301413,-0.00341865472613217
-0.0132229301022183,0.0122765781315865,0.029372355856428,-0.00334653009292149
-0.012494294158353,0.010306309787308,0.0244503082652321,-0.00278949821161233
-0.0178287467316318,0.00185647714334236,0.0133936045556824,-0.00188479532418288
-0.0239396610796488,0.00120806443987775,0.00623970009121203,-0.00102197063708118
-0.0226594647439041,0.0131947071106632,0.00272561144117868,-0.00091967281917761
-0.0183826853985226,0.0274883520557775,-0.00114744826146994,-0.00188194465823885
-0.0183802091575638,0.0333509676346705,-0.00505663941959631,-0.00335602706962352
-0.0171982456484434,0.0340160670347089,-0.00893461056025017,-0.00452362221943719
-0.0117114837357714,0.0390772325176858,-0.0150204310562432,-0.00500937180074148
-0.00620329236046438,0.0449776427028875,-0.0213206164942608,-0.00481322702138729
-0.000302514415811667,0.0436690014745677,-0.0209691150312561,-0.00413285222997286
0.00340072167088474,0.0434952080177903,-0.0140104631325378,-0.00324529002029366
0.000446978187099356,0.0521559552562937,-0.0079465135317475,-0.00210105566418845
-0.00286422532807351,0.0608070028950157,-0.00762491344181144,-0.000636889782892761
-0.00326366919144943,0.0591069524444162,-0.00873347594149227,0.00066414534848248
-0.00156407049700424,0.0469099991455436,-0.00814033878502493,0.00131872000365491
0.00286272545397428,0.0369236034255542,-0.00538981923995892,0.00126722081705955
0.00785625433038617,0.0362332219198554,-0.00049949277647578,0.000887978373895214
0.0117952583454105,0.0357279792142982,0.00469303137084305,0.000849464979643363
0.0149369124747193,0.0248604085983885,0.0140804068968262,0.00114370991178439
0.0171382466067041,-0.000721299437418915,0.0249461531325343,0.00112861601741418
0.0158706375628314,-0.0239250078416304,0.0258570972662678,0.000528892788723431
