0.00326422380641937,0.0194725105214575,-0.00388753907022688,0.00717488397918028
0.0059020596800032,0.0189266232227821,-0.00510006104201854,0.00916708766898465
0.0126154498872587,0.0217035167180876,-0.00605478668277752,0.0074595775514473
0.0179044500043526,0.0283891768977212,-0.00503961040731231,0.00280203357717471
0.0132049516245473,0.0267843722255293,-0.00425124654386051,-0.00137502246155304
0.00169797711285062,0.00807926888878647,-0.0051879904728394,-0.0032592679498568
-0.00549135681895515,-0.0139426105440181,-0.00741080321524886,-0.00363802889070931
-0.00989686997766866,-0.0202507130165038,-0.00889016538255871,-0.00373830583440294
-0.0192876560569181,-0.0161132614185692,-0.00880170518936755,-0.00386813237629307
-0.0296298247671666,-0.0154625632063834,-0.00896288794716817,-0.00361539960306908
-0.0280325070254117,-0.0163033971617098,-0.00951463756432339,-0.00316962570225273
-0.0153355565374263,-0.014835094521245,-0.00866981995807636,-0.00378684975875917
-0.00651286579622883,-0.0170183669858546,-0.00574737513720766,-0.00584804420338334
-0.00761686960104928,-0.0299032512293642,-0.00197886562217705,-0.00767892371690453
-0.0118604770608322,-0.0519789980496119,-0.00267104758872396,-0.0068528562545184
-0.0130177484245467,-0.0700888494000726,-0.00922390738696498,-0.00284005645028172
-0.0096369251756216,-0.0781830441919524,-0.0162430324474467,0.00150897226223651
-0.00108982579381836,-0.0761873179798364,-0.0183621410817343,0.00375360562058098
0.0125754344188124,-0.0518413672710652,-0.0130697652579645,0.00579946817079004
0.0248931718146059,-0.00382027371612624,-0.00441840079064409,0.00967182355707401
0.0225026218968222,0.0265377149225206,0.00119191315819329,0.0126246537288216
0.00705665545749441,0.00100706517974983,-0.0003349587369957,0.0104189985463586
-0.00260270452148176,-0.0393625881245392,-0.00596729827672584,0.00299563946255071
0.000142956032896166,-0.0332372240241377,-0.00771836178955695,-0.00575399304294907
0.00835180649238005,0.0148507441207258,-0.00462713632360933,-0.0120511841933949
0.00916441078437509,0.0595376222302183,-0.00151057720161182,-0.0141081701926505
-0.00641585982038459,0.0736739222702131,0.000722600164327451,-0.0122804413571096
-0.0186923766095456,0.0623828203700708,0.00368012902590076,-0.00829385967976077
-0.00836410797759743,0.0356708624647163,0.00678538988045924,-0.00385348032560169
0.00971843115547333,0.00672383390826442,0.00719304787502736,-0.000212861798954626
0.0145381130838116,-0.0125559036594026,0.00458822700974025,0.00180558869459383
0.00602962094503835,-0.0287008367943142,0.00108367638214726,0.00232257607752183
-0.00328860957833323,-0.0457400267483769,-0.00101789156986281,0.00223338547663826
-0.00425770164960435,-0.0494227486927625,-0.000711923672700107,0.00248233244868325
-0.000201437878822881,-0.0396202303272479,-0.000223160195532045,0.00397045713968294
0.00367194864347495,-0.0357344047756098,-0.00110085561323548,0.00692596335409
0.00914810531560664,-0.036155603644677,-0.00379419549829835,0.00996646847200781
0.0101005810017429,-0.0276860188869556,-0.00595399907202633,0.0103153553780921
0.00668555989926003,-0.0145993853839751,-0.00504190845905672,0.00708435660043925
0.00911573203976443,0.00152170428040807,-0.00139109050821056,0.00326018805095269
0.0145067487749442,0.025121416705143,0.0014962635121471,0.00165892460316874
0.0184708934187365,0.0458456043603009,0.00152937770348552,0.00135418577075618
0.0270171127354215,0.049963140766922,0.00162241863441144,-0.000544821606944614
0.0377236775899557,0.0410619194698447,0.00292015564994809,-0.00466676849254664
0.0403748843595182,0.0320052709306044,0.00410361217082767,-0.00822997328939925
0.0366091517970783,0.0302191613510611,0.00675490135166112,-0.00824889655754943
0.0315176644687455,0.0337135789268969,0.0119331755768616,-0.00429046334705514
0.0194887218787601,0.0358077492323797,0.0156439384922923,0.00158922385198477
-0.000881612529747208,0.0348780423990091,0.0150253144142298,0.00663970364517131
-0.0169786075344745,0.0289697887244697,0.0119877539393503,0.00916282569601475
-0.0200521078917973,0.0199659323366392,0.0101034644136202,0.00884371526943317
-0.0129433894796063,0.0147846810228968,0.0112037914584007,0.00648355508852197
-0.00374518272855961,0.013659806321747,0.0143398601578163,0.00380054463921389
0.00113770078154974,0.0151137560765564,0.0167844863257417,0.00229073682881581
0.00303172291996248,0.0182023249737387,0.0174317312951517,0.00162151165552397
0.00679454720418836,0.0219401185876821,0.0172584330184937,-0.000142515245093177
0.0140572461403681,0.0276868253869983,0.0155740500816899,-0.0033664313063923
0.0210619348869689,0.0328642620784245,0.011150310346438,-0.00553465686686617
0.0263597434646192,0.0309600152374288,0.00420014090848161,-0.00518156504686532
0.0367168293198333,0.02352080456489,-0.00122910230037139,-0.00379077233587294
0.0467951150063981,0.0192423740073901,-0.000766089493681245,-0.00290489538439536
0.0401649280330863,0.0190941788163673,0.000595550094958321,-0.00227801124305421
0.0225150250854227,0.0184197379084916,-0.000510906856939365,-0.00115513176143196
0.0101741819720747,0.0151423150764811,-0.00123258242340612,0.000344703007161258
0.0038164720104011,0.00920084167205469,-0.00014607218343172,0.00146063060739963
-0.0012302525765058,0.00293127663296127,0.00230910639728588,0.0012022824203058
-0.00537420290497753,-0.000627778448891305,0.0023275941551275,-0.000725636162255092
-0.00751760850768772,-0.00101392908080499,-0.000353325751432728,-0.00278252254112492
-0.0085995916584658,-0.00157468998892986,-0.0019924760959888,-0.00303741253679401
-0.0107360853500678,-0.00410359925776636,-0.00299864492132128,-0.0013384237729241
-0.0135028703703331,-0.00651097356599358,-0.00554015915429918,0.000933568390536584
-0.0118212508159386,-0.00780491040735658,-0.00786806199117775,0.00173149226871772
-0.00389203783972573,-0.00909218390715129,-0.00681598890642196,2.27779245019758e-05
0.00678954560401935,-0.0103526555718234,-0.00568173951460548,-0.0025993002367213
0.0160179382786601,-0.00837091541954929,-0.00676640643079359,-0.00418418086733736
0.0182213622727643,-0.00308560312059841,-0.00382778619523853,-0.00427063256769751
0.0147469279072294,-0.00433246693071188,0.00220816333034969,-0.00308092299241546
0.012424325985384,-0.00861862106569974,0.00418180867077707,-0.00158962512170336
0.0126451075660235,-0.00107163507628512,0.00154052926944816,-0.000916240333984257
0.0119735704106513,0.0150227012557488,-0.00104251823523713,-0.00136481351856884
0.00482875925166782,0.0257070780089017,-0.00214798105830911,-0.00247806313899562
-0.016356389051043,0.0188787338578971,-0.00434374701314355,-0.00365506251682817
-0.0363848291412089,-0.00120466558577186,-0.00721981310179222,-0.00427427712257987
-0.0318056385488746,-0.016303433088117,-0.00750156640435249,-0.00369647838594304
-0.0181354528875244,-0.0229625932391669,-0.0054460113044052,-0.00223387183540632
-0.01758312054217,-0.0287492619752518,-0.00423767157763576,-0.000907523271496334
-0.0234584566541603,-0.0371875883813152,-0.00618582548718641,-0.000586396822785081
-0.0246305358500816,-0.0462621416756999,-0.0131987265827754,-0.00161526464572808
-0.0253140164233297,-0.0460290418231884,-0.0196379398827453,-0.00345652487621461
-0.0300556989358753,-0.0327611706461947,-0.0177071028977761,-0.00458039813083223
-0.0295853166971046,-0.016583150610981,-0.0112696276526659,-0.00262749394745992
-0.0199204020380613,-0.00652430047598919,-0.00934123862878992,0.00385193555389819
-0.0128367352165142,-0.0109033887802324,-0.0129055174638091,0.0116200141222981
-0.0172322660424,-0.0281384293628506,-0.0168621258115392,0.014143717431309
-0.0220697038813345,-0.0335456699480386,-0.0177531068300839,0.00979324207012201
-0.0105623177010131,-0.0136665615932249,-0.0138043079868682,0.00362385140970435
0.0101073759936187,0.0104951451213713,-0.00685253551600752,-0.000146849845342561
0.0171879247866479,0.0138146913841033,-0.00364805459218945,-0.00247916961225702
0.00286231454969503,0.00093768246532033,-0.00587578240707677,-0.00509734655146039
-0.0157948360924034,-0.0082250208505353,-0.0085355199040317,-0.00680367130952271
-0.0202154543287541,-0.00702870880373907,-0.00738909654755474,-0.00596336926469774
-0.0148196733002127,7.46471987420132e-05,-0.00303696246268426,-0.00306982546724796
-0.0110462244503247,0.0113041999097728,0.001301807019918,-4.15442066663543e-05
-0.00741106285306801,0.0276265192206889,0.00398771101432029,0.00184422980700198
-0.00339261708702318,0.0398624246297358,0.00405237076354339,0.00252864603626581
-0.00749278221417546,0.0325906541992123,0.00232579163656036,0.00224585172339222
-0.0189732478882583,0.00518495229579656,0.00107811577261586,0.00135417024766788
-0.0291413969657726,-0.0227822963853423,0.0015921888843508,0.000927602586376639
-0.0338529772849516,-0.0315873754942571,0.0045790524350474,0.00183487653924123
-0.0313394324020077,-0.0249055866918589,0.00950238257488051,0.00343810139117907
-0.0248076051218146,-0.0186230006107594,0.0132727092783117,0.00496643162109925
-0.0186407419188461,-0.0156218436874165,0.0152367139617325,0.00683632642715649
-0.00971540118682999,-0.0103822688811701,0.0161329863535804,0.00927991465043973
0.00282332262995311,-0.00106506707601734,0.0139581023765682,0.0110059634884005
0.0105065594589607,0.00381911939185667,0.0086232251065012,0.00981880458993866
0.0117603834050476,-4.37438815853453e-05,0.00426440053095287,0.00546118620851641
0.0160539297836681,-0.00377160456532617,0.00321879158916279,0.000206903096325371
0.0210911716650905,-0.00190469183303037,0.00332542830283055,-0.00391735973199929
0.0172065308914493,0.00599551880087955,0.00163856124629486,-0.00607634254276254
0.00858110681577783,0.0165317683784467,0.000326008429708334,-0.00635374087703107
0.00248006714142943,0.022433319600251,0.00269127433248697,-0.00567241509183917
0.00119117171003498,0.0300437042918997,0.00625828107006343,-0.00500501288836185
0.00765748877745619,0.0483300457749788,0.00984864670936236,-0.00460879705822954
0.0160995531016707,0.0564562060953325,0.0123169513686995,-0.00417001978953938
0.016347850359624,0.0361414972485039,0.0111726530722793,-0.00327302688389457
0.0115103998437508,0.00877396024322751,0.0105255684954458,-0.00173990882598458
0.0117482948378128,-0.00330959384848557,0.0121876628067352,0.00047462311441122
0.0166580133044895,-0.00454987824854025,0.0113634214017747,0.00319903699070566
0.0183676364089717,-0.00440951334250621,0.00966211795120285,0.00574453154542279
0.0165947863999656,-0.00628522894410784,0.00861075704385325,0.00742127377304371
0.0132281739127503,-0.00785103569826833,0.00737362269802889,0.00751495327565157
0.00885280294422187,-0.00383861798633958,0.00727163923010635,0.00570672084293955
0.00760768768601352,0.00401902352900133,0.00780237249234172,0.00290838054203452
0.00745348640515866,0.00740728784014213,0.00795791517643799,0.000160071148614119
0.00376472301638345,0.00579915466300433,0.0065238362203439,-0.00204401235894327
0.0035491680310974,0.00578488066082362,0.00562925973043288,-0.00302261494933783
0.00906083162211856,0.00989601218429957,0.00695652111715111,-0.00248243724663325
0.0104866614305372,0.0157709489556918,0.00670189786528657,-0.00138117116514771
0.00642695505719329,0.0199155277842911,0.0039294770442644,-0.000884240378224825
0.0040585684441555,0.0260263742075984,0.00138349153653758,-0.00126542867133273
0.00534978641898295,0.0314069383574723,-0.000421614613946441,-0.00203322083952318
0.00658420335137876,0.0211375825496049,-0.00190918189348432,-0.00257003482738334
0.00692133235749491,-0.00326571957695797,-0.00304799639778225,-0.00265075531267047
0.00495715819946632,-0.0236214399868728,-0.00333903557446581,-0.00229039291568253
-0.00109697354896465,-0.0332051989656437,-0.00333357800082336,-0.00169988695383277
-0.00571664750241617,-0.0375135215496373,-0.0043084133462358,-0.00159476138389302
-0.00558293745754936,-0.0400846878286416,-0.00551951837332945,-0.00237291419843477
-0.00561597011700327,-0.0365189738752069,-0.00456388899337652,-0.00320694954285931
-0.00699683134792137,-0.0217924742315147,-0.00318946986718648,-0.00335946540010468
-0.00709355715677868,-0.00133790930775812,-0.00258352318996607,-0.00372788680670648
-0.00888317519355355,0.00839107334698168,-0.00070921306167391,-0.00507035366117653
-0.012518138291936,-0.000106905537979081,0.00146891730584017,-0.0059569762684809
-0.00773099980160913,-0.0108154163777765,0.00230539004936305,-0.00568690083181884
0.0051107440865144,-0.00928808037781373,0.00171178462745753,-0.00558890513440997
0.00949111714694218,0.00055818623850382,0.00197676933110656,-0.00455524473879888
0.0026981019179588,0.00640707064987307,0.00601856593808653,0.000472769544810384
-0.00406854747135032,0.00541414976276731,0.0103711990443767,0.00847516997475659
-0.00582765138098411,0.0182661236231069,0.0123003122091217,0.014478262842469
-0.00108743181577107,0.0461282539137863,0.0124299454283807,0.0160367750534098
0.00802023340807927,0.0508789672244338,0.00576524895025917,0.0146331208753185
0.013113092658903,0.0182163977031302,-0.00687149822986563,0.0106556114605696
0.0082768751032492,-0.0244896837795417,-0.0150983569965556,0.0033351380531114
-0.00281967569908747,-0.0426156951002475,-0.0132037002542055,-0.0052940158946136
-0.0129674214671793,-0.0324299897657594,-0.00748030532163432,-0.0114865536303262
-0.0231598441045185,-0.0171518965140527,-0.00458536121445137,-0.0140056361529273
-0.0331878509174174,-0.00795362881851683,-0.00285001007276009,-0.0147471521266779
-0.0354185907298901,-0.00109774257813943,-0.00014218623429348,-0.0147485737425762
-0.0337986232583323,0.00467015571626695,0.00244432289095738,-0.0129939452168261
-0.0429371272633877,0.0072868514842459,0.00338546946480866,-0.00914500867559278
-0.0590020155709007,0.0143945119762086,0.00166536899364232,-0.0037323944382309
-0.0628530271418866,0.0321008500126486,0.000565223570169446,0.00207969333066228
-0.0486003571631147,0.0459627752029962,0.00450161554369099,0.00698690877713057
-0.0260546171826993,0.0363951404110601,0.00890813624485487,0.0108693846985338
-0.00377140930355313,0.00497026818931792,0.00625181088267079,0.012807869197312
0.0146240310966754,-0.0216822758563923,0.000369627305455199,0.0108257439870186
0.0240697959412708,-0.0261276788003536,0.000274467129809641,0.00515155481396051
0.0236247457143867,-0.0261430426075917,0.00567702887340089,-0.000861763102170036
0.020896641400117,-0.0445872471547678,0.00812134328658549,-0.00335674607422127
0.0216422935329623,-0.0682142002463968,0.00370771052448375,-0.00164577581017144
0.0197402375787231,-0.0711117853239915,-0.000455280106193898,0.00120193766804497
0.0124939905711144,-0.0524370466041626,-0.00036686355611782,0.00190599600643548
0.0126496819170555,-0.0167780150883477,0.00331420310627924,0.000489799435835154
0.021644202685106,0.0277686261500142,0.0102860554390022,-0.000357647167407262
0.0243995604853701,0.0562887360445814,0.0148444243818471,0.000886877796162288
0.0185250379524198,0.0593146952629401,0.0134401049049923,0.00265513349943909
0.0113795027546451,0.0553530176028453,0.00767951337878669,0.00294174429999566
0.00200400956137423,0.0490730708381837,-0.00178505658352825,0.00179342138936018
-0.0159034718110822,0.0299617310475464,-0.0101184253156768,0.000108823870274094
-0.0333271957170796,0.00495006789886634,-0.0119647502744981,-0.00149528836395616
-0.0299979178790432,-0.0119298797785279,-0.00903584916795444,-0.00249357454414184
-0.00983003567410407,-0.0222405446792726,-0.00481335522916718,-0.00226822180999348
-0.000225070653917145,-0.0315768961652883,-0.00229384163643177,-0.000557828301362657
-0.0135845190977849,-0.037894503774536,-0.0022224526433707,0.00183845741936996
-0.0258438522853252,-0.0354491067352963,-0.00363547882619136,0.00348032630895856
-0.0102132721694739,-0.0158902989377297,-0.00512138815986239,0.00301990954051106
0.0172435052549452,0.0134280461438243,-0.00380724917575252,0.000948955546116593
0.0299149638297465,0.0254575438396087,-0.00330680207064664,-0.000243952867268837
0.036428309940702,0.0126244832848743,-0.00741876767790246,0.00049995217740114
0.0456572416132693,-0.00133628014606785,-0.0110660021355818,0.0019815003874827
0.0441032810030846,-0.00164812508413061,-0.0106223672094501,0.00304606732375021
0.0324663713911871,0.00127551533262997,-0.00760467797505867,0.00309128659542028
0.0261606405808586,-0.0010029722293571,-0.00367181027804678,0.00172819018244614
0.0267091026072561,-0.00417951661968888,2.21823360345604e-06,-0.000524567761896285
0.0271490987954247,-0.00578728261404565,0.00268201112866439,-0.00194302838676699
0.0263848736146426,-0.00778358236307308,0.00496356313069786,-0.00123877492172738
0.0244976943369615,-0.00998821969875304,0.00674297361680353,0.000222296369862517
0.0209068518480121,-0.0102678046267286,0.00527838039499323,-6.88534271677515e-05
0.0185592881671998,-0.00905479866468662,0.000689019676367251,-0.00271782393566033
0.0182131070683196,-0.00714242163078147,-0.0012233322647622,-0.00627086557630727
0.017608829781234,-0.00317543726811552,0.00141627608103574,-0.00838014933489954
0.0171188699413004,0.00299055237872276,0.0053271045004152,-0.00726800950753384
0.0171434637008159,0.0082744321061398,0.00893222791238891,-0.00304842850958673
0.0179633022409398,0.00915044522503695,0.00994888092225465,0.00249197714216992
0.0201345604959238,0.00604100340310962,0.00734771017724184,0.00724539452147753
0.0225040850492551,0.00210624121557737,0.00486689539158649,0.00984523258661149
0.0257123232455303,-9.54020939177977e-05,0.00448479732065681,0.00977145119548483
0.0297733555699582,-0.000553099140618917,0.00549183854062825,0.00711453075419002
0.0308417786624976,-0.000641352409143254,0.00600345637256603,0.00283556015892526
0.0241860805270443,0.00181010763720139,0.00459849513742573,-0.00096308034672688
0.0130183887657376,0.00615027360830232,0.00358667124205196,-0.00269224904278444
0.0089720259688744,0.000376394403531332,0.00338557530717499,-0.00323399883132427
0.00870016075889503,-0.0167227521151211,0.00242263009476799,-0.00462241837237723
0.00465717995304091,-0.0275458514614341,0.00217812025658622,-0.00712000410060503
0.0024531229893981,-0.0232921739373662,0.00322576649877301,-0.00892791780954542
-0.00676778635104519,-0.0146075852727943,0.0025265356231664,-0.0085556924334913
-0.0321155958988078,-0.0165887601889575,-0.00242489652795211,-0.0061817369925011
-0.0528182031213354,-0.0277383518097841,-0.00868967427959242,-0.00318771597490632
-0.0476164650593449,-0.0331793193236057,-0.0105511018179526,-0.000889327833735881
-0.0280605189122749,-0.0281707114325439,-0.00690625377583434,0.000246275525703155
-0.0167005011729365,-0.0191430876772059,-0.00314452463015697,0.000360063517161925
-0.0126916030315246,-0.00341614863840631,-0.000586091219863631,0.000126091635719695
-0.00402917916032162,0.026176116795486,0.0052776047140771,0.000594651650653147
0.00836170945638062,0.0580586702624464,0.0122752072371737,0.00230289960062793
0.0181335448903418,0.0696086689684913,0.0129065593093785,0.00471576565425591
0.0235656388212495,0.0554105557420108,0.00844313304350957,0.00654825781807346
0.0224324678391036,0.0240770068710513,0.00816190796718263,0.00674110298692958
0.0146843370366583,-0.0104952942631766,0.0115510735245476,0.00571042076031219
0.00404098522911243,-0.0313449284097,0.00980909628858179,0.00462543975444324
-0.00491246283601052,-0.0453696809480395,0.000871447095149301,0.00308987183021962
-0.00936037389690823,-0.0711903702843249,-0.00873789919465598,-0.000192594168836889
-0.0105339669237657,-0.0959238237393769,-0.0127739383984241,-0.00451807130754046
-0.00851006643718547,-0.091233635540956,-0.0102572178089649,-0.00742409445473751
-0.00760687567138813,-0.0622419977082553,-0.00446805769818824,-0.00726118043630023
-0.0130861375396435,-0.0367081190099555,-0.00291674492971555,-0.00438467726242717
-0.021410199088603,-0.0207669413944101,-0.00763013727212996,-0.00075172495359828
-0.0287145638686369,-0.00287065585948147,-0.011187888350066,0.00173030322621868
-0.0321115276787423,0.0214967440776765,-0.0103416539932129,0.00266709161112537
-0.0283292772561241,0.0461243140505113,-0.00805456718189315,0.0026085731067464
-0.0198649393649662,0.0559921377744852,-0.00720163887845909,0.00198091004864991
-0.0139667504205087,0.0471141805906306,-0.00961577274367801,0.00123904062149192
-0.0141372934970063,0.0386773151076709,-0.0118344290551183,0.000850748980175155
-0.0148522298150077,0.0422153620682871,-0.00918250791047513,0.000860043689909569
-0.00889489339148436,0.0486347876861434,-0.00436134037379976,0.000959222351362601
0.00224395807792376,0.0489717129958909,-0.00239064517923082,0.000376825951425351
0.0147555342388342,0.044287273767829,-0.00459404426113427,-0.00138916512209391
0.0247352161278397,0.036680760162936,-0.00773791850674233,-0.003193987176917
0.0280200463904562,0.0280522256932649,-0.00863167986758174,-0.00271641471249706
0.0252459022540068,0.0262091435996985,-0.00692407581323231,0.00121503502823913
0.0189362872399441,0.0311050005272703,-0.00397338734703248,0.00663680504783884
0.0111573656598991,0.0308413338525438,-0.0033062967237001,0.0100007793307253
0.00327918715702405,0.0209277581549325,-0.00454457619934986,0.00927829777154674
-0.000869497213561226,0.00732864784575395,-0.00458095178048577,0.00492530719437864
-0.000525550998672159,-0.0094870733724701,-0.00303422678444294,-0.000124954063230509
-0.00103349117970245,-0.0337340373292871,-0.00236449283871438,-0.00306295410305339
-0.00546612303534822,-0.0559435324957701,-0.00473758426706207,-0.00421288685336927
-0.0126626565564079,-0.0593279951703827,-0.00771299841137813,-0.00531829375823386
-0.0193625890292939,-0.0422108256187482,-0.0067814679587935,-0.00673227503081777
-0.0216196058915431,-0.0162513838685959,-0.00105193816444004,-0.00784883600112876
-0.0163943508710134,0.0117784986719997,0.00568980402398755,-0.00852181092174431
-0.00449113664900348,0.0356076338928825,0.0095560412585691,-0.00862506449547574
0.00625640871782162,0.0452817788167633,0.00801716147623418,-0.00709318381413623
0.0067240079615691,0.0424972371651571,0.00131913341463748,-0.0031203452098642
0.000988164187412035,0.04033152149749,-0.00258075776189763,0.00208428803648892
-0.00059529664057848,0.0435385180665059,-8.5196373274977e-05,0.00639127082601461
-0.000728853970836699,0.0417448042914642,0.0016850515698332,0.00812087066536733
-0.00212301097886413,0.0349310176133755,0.000826983475965482,0.00698731876607654
0.00163153551155037,0.0336874266622934,0.000277068180112654,0.00488308643116278
0.00842141884095812,0.0286574192897086,-0.000504157705324003,0.00344756408559356
0.00918599869962438,0.00997649806015902,-0.00250044403843756,0.00171271682718527
0.00561950671305501,-0.00770750637432478,-0.00315476555451328,-0.00155561521253679
0.00876573062298052,-0.0124264996466283,-0.000494568620803952,-0.00494480703867663
0.0174804221677121,-0.0108002828463531,0.00244243842713953,-0.00590298495651118
0.0199767839303318,-0.0129403920859896,0.00372621283592194,-0.00396398383924749
0.0106725455899243,-0.0187104138760705,0.00534692819848809,-0.000952736079793784
-0.00412004105471042,-0.0200834952305796,0.00780542331941888,0.00139953793206001
-0.0143889132187643,-0.0130760005174739,0.0114027528328859,0.00227986808804499
-0.0219915984572237,-0.0076201055944523,0.0158617873864601,0.00121786525767136
-0.0313996492848693,-0.010710932246613,0.0174597406637902,-0.00203586355565992
-0.04062675381653,-0.0104001308625398,0.0169685049721534,-0.00674204605640286
-0.0446113032712192,-0.00226519919561545,0.0177749947563934,-0.010349703806278
-0.0361390616114372,0.00137660792350498,0.0172888560719902,-0.0105808795281079
-0.016773601476468,-0.00362598237426193,0.014763881247503,-0.00703141020126065
0.000522893604079255,-0.00912542117436578,0.0130448412483169,-0.000300783775145187
0.00579422959690357,-0.0111044096601236,0.0110555228979223,0.00748623825004051
0.00428282142593835,-0.0121622059221376,0.00786394851379165,0.0130145794465456
0.00822436269615943,-0.0136872405582363,0.00531961863213383,0.0140711773403176
0.0178257542274863,-0.0160011262920549,0.00364277913835135,0.0104134798007612
0.0199629209644891,-0.0181303962927671,0.00181106425102423,0.00380990817284974
0.011171351449711,-0.0169651528849016,0.000740850346904976,-0.00232726043082269
0.00521285319858769,-0.0104691550145438,0.000816777984443796,-0.0054249406862667
0.00613296495255225,-0.000216852169202629,0.00180023764615061,-0.00566145061691783
0.00918312285438798,0.0082355874744026,0.00314232144542914,-0.00455398225439958
0.0141239660806441,0.0157570393341033,0.0021858672039715,-0.0025715777537011
0.017721936466554,0.0239956827682889,-0.000844430927253882,0.000536268159734218
0.0164023343407191,0.0244767840036103,-0.00316747479931544,0.00386187583502979
0.00910551222813068,0.0144263203285064,-0.00345803767557192,0.00630092369826255
-0.00285597280725099,0.00413576129039758,-0.0017969672382893,0.00803762312812032
-0.0155437367971164,0.00184554814982821,0.00118235378395058,0.00913307390405469
-0.0267500773969666,0.00411275785279273,0.00450845369654665,0.00847412908788861
-0.0323918264721203,0.000795366775097041,0.00404185429398241,0.00523597818121718
-0.0264764367325908,-0.0110421778116575,-0.000868347648816482,-0.000495360436445044
-0.0114008170362693,-0.0232698244806215,-0.0043570571716792,-0.00777212773667689
0.00382312161316017,-0.0358223592733113,-0.00364763935223158,-0.013576853931575
0.0115825520486827,-0.0561620254552276,-0.0017061656402298,-0.0141743772320481
0.0109643107869937,-0.074737350947497,-0.0012139165470325,-0.00906988612529153
0.0129954927182033,-0.0755456167229773,-0.00152202984171697,-0.00217253710711018
0.0186743432364194,-0.0632516728909638,-0.00105657527988669,0.00240027809728398
0.0114141299987492,-0.0500352713662225,0.000601207333532186,0.00501020815920973
-0.00513164558192253,-0.0377681073096575,-0.00144978212033853,0.00785319118305847
-0.0102532895701663,-0.0244674563529036,-0.0081020139618039,0.00934403271672037
-0.000774911658426912,-0.00899283240752177,-0.0114075955719393,0.0070329378778421
0.0111666731151449,0.0164734392564296,-0.00832734763541284,0.00357423091992231
0.0194256888772735,0.0671713376472633,-0.00225785313587356,0.00383827900920971
0.025052561455495,0.127301026221256,0.00212232237477976,0.0082891747554084
0.026642173265695,0.146705475012052,0.00062870207800078,0.0114438527229436
0.0247831459369123,0.110135583475864,-0.00440443155436316,0.00795807926545235
0.0232464104160557,0.0447435490927403,-0.00868124096193363,-0.000362517510638739
0.0170904415071722,-0.0192533145498995,-0.0112691354270317,-0.00753604720408512
0.00383474597549074,-0.0570243543351832,-0.00927293369704131,-0.00999516015631105
-0.00435330144129378,-0.0643403336028806,-0.00664709572756121,-0.00826665876992017
-0.00535210424354217,-0.0563887160124447,-0.00755730663255075,-0.0056844431461382
-0.00578356413535089,-0.0464576989789789,-0.0079944280636344,-0.00460165989141607
-0.00564445006710676,-0.0369246338477956,-0.00906062531639774,-0.00418692406921784
-0.00490189381037758,-0.0225582602087404,-0.0087872941846006,-0.00283092772242113
-0.00186144170181373,-0.00253802804107112,-0.00330329601520852,-0.000322142419275083
0.00144068467447282,0.0140746836660021,0.00101783731597335,0.00205207431550727
0.000483677545447975,0.0193012214875866,-0.000619213815208492,0.00251807586971327
-0.0013430089203835,0.0152537318524261,-0.00440972760386604,0.000677011864075501
0.000591351475682151,0.010187671545489,-0.00497302688663532,-0.00228315871810184
0.00646346629727193,0.00669375734929821,-0.00277731162800013,-0.00465492583242108
0.00898528712205995,0.00177659868329648,-0.00106245208126712,-0.00487118630193288
0.00371022309748293,-0.00143659666437332,0.00102108360162557,-0.00241171811011722
-0.00439827995269331,-0.00128403219342536,0.00483731959698405,0.00181697522720665
-0.0126234135201731,0.000255090780351152,0.00772307723759847,0.00605003990436691
-0.018069206901453,0.00110809525892183,0.00628825341698863,0.00881180916430824
-0.0158020764572688,-0.00503861319700611,0.0010730196235884,0.00930712713640032
-0.00519386550952992,-0.0157466129909896,-0.00202186708571596,0.00664243028430637
0.00802744106239381,-0.0152399283815254,0.00133903928787055,0.00115325185946474
0.0164318997068071,-0.000296389385173276,0.00702040675969661,-0.00430257253772606
0.0192079044909509,0.01663051328229,0.00995049086110359,-0.00721337246096387
0.0190547838935872,0.02772341880212,0.00879936626512934,-0.00758736023723898
0.0212715189202775,0.0306145818800462,0.00627707142334134,-0.00662032661015076
0.0340630182121393,0.027480032303471,0.00743355834361217,-0.00487816519236747
0.0447451072352918,0.0248970783041321,0.0118901830712179,-0.00148415237859064
0.0314554158338532,0.0240703796222284,0.0124582137447307,0.00397659099406296
0.00425882606440923,0.0214364720112143,0.0054124065009808,0.00867716823943874
-0.0186537895436635,0.0162473367696376,-0.00206871938151841,0.00877242638413167
-0.0390065330420809,0.00358898162500131,-0.00488702113329724,0.0044869018316616
-0.0501860344072982,-0.0198750617997954,-0.00615138509083626,-0.000365545744611997
-0.0405188239692802,-0.0393299855957562,-0.00504353842496488,-0.00319689467403688
-0.0215672731802538,-0.0408023391017795,-0.00102199945600709,-0.00404337139379445
-0.00864916272425429,-0.0288432778508236,0.00340138013245824,-0.00366938536443962
0.000867330489745733,-0.016914458123469,0.00788747349370049,-0.00251067702934045
0.00766432270938148,-0.0176378164762248,0.00833534767365635,-0.00105484761729
0.00209368794202058,-0.0283699868628253,0.00350220552589762,-0.000152053609667009
-0.0103139109764061,-0.0348352226736437,0.00138205386078114,-0.000403868490862846
-0.012276298005049,-0.0302597465689711,0.00425245165759085,-0.00141141705895119
-0.00590675318216811,-0.0114942292182795,0.00499713313295492,-0.00220193484253563
-0.0041776038435954,0.0183279338424441,0.00146711900846062,-0.00211878735539157
-0.0103138236142987,0.0416500823924041,-0.00149586989619498,-0.000971447936537541
-0.023099674646193,0.0467016417760271,-1.33060463315933e-05,0.000769824356451119
-0.0356090518615705,0.0336175769438982,0.0018555918536578,0.00269548595308359
-0.0385744851594307,0.0102696087105694,9.30527691125949e-05,0.00482459581300302
-0.0286735687193952,-0.0116921742244307,-0.00223328459492605,0.00644707701574818
-0.0102282391495395,-0.0315796315353216,-0.00409537053596324,0.0063445129980865
0.00794779143063559,-0.0452080839376013,-0.00615260562918548,0.00420752647015473
0.0181400089429024,-0.0436324285588434,-0.0070604789014227,0.000709440770012713
0.0187408517442085,-0.0361747538112446,-0.00733055508202498,-0.00305653740235374
0.0156758919387645,-0.0372622501313301,-0.0080487013536641,-0.00561057300040559
0.0158077025353838,-0.0406563425907375,-0.00672821959566793,-0.0061515968780909
0.0199386928171317,-0.0309193084474313,-0.0022482044231485,-0.00535215551793714
0.0169335529529819,-0.0146322832563396,-0.000154939743069842,-0.00411735978294152
0.00080916123398108,-0.0100169614603142,-0.00604827553106155,-0.00248239334201056
-0.0241951351772515,-0.00971204203909646,-0.012900480786768,-0.000578795845685097
-0.0473666659204314,0.0180147132144693,-0.00960147693156211,0.000710061018049273
-0.0504525049559381,0.0772695599810424,2.74563730216591e-05,0.00083621539808777
-0.0353804144200213,0.121743067608541,0.0064014061076362,0.000138268753700111
-0.0204297944069905,0.109828940892477,0.0082167325857742,-0.000637503636387418
-0.00955270033418138,0.0600487161378983,0.00715183077356696,-0.0011682594576494
0.00242333352842104,0.0216433899606828,0.00388887165355134,-0.00159372368215562
0.00734370306808133,0.00647547984532464,0.00033253840285488,-0.00173520217839439
-0.00415275059246228,0.00159682291644032,-0.000909217900662296,-0.0012932464116602
-0.0186067379783824,0.00214612293816564,0.000785073341491352,-0.000315631852540779
-0.0143598332405091,0.00576924249548687,0.00451694230721438,0.0011325723203413
0.010586935926353,0.00951959785733395,0.00832293940737124,0.0026408673358197
0.0352669838734616,0.00734979909431894,0.010647747374684,0.00330175784049657
0.0407196629436032,-0.00119561170251125,0.0107380628790034,0.00299849600663697
0.0304971983652333,-0.00884060816611369,0.00902319868490077,0.00239042989377912
0.0211497484382129,-0.0146725766617696,0.00896457754973201,0.00159055337810345
0.0192261116059123,-0.0185385321950451,0.0102269057576196,0.000397087353319849
0.0174122672510169,-0.0124850193273341,0.00813430533255767,-0.000795629978241793
0.0107336868540255,-0.00429721377066605,0.0025275074906911,-0.00153163162102121
0.00376173341751032,-0.0063101347448985,-0.00286910383040484,-0.00177965819166498
0.0014770590536607,-0.00794077009293042,-0.00635036595263576,-0.00145949851299292
0.00289287740391235,-0.00219327685199659,-0.00726547295405586,-0.000694617186199951
0.00351084731649747,0.00460604368046617,-0.00567601319667403,-0.000173235531841998
0.00183646358192158,0.00925340551733194,-0.00438670838639089,-0.000354704784931776
0.00199981684533076,0.0135916518874563,-0.00408131995081144,-0.0011108602261844
0.0046744286379805,0.0195945188105507,-0.00346185106246601,-0.00243635348504857
0.00474073086088026,0.0257272138209259,-0.0027087624462459,-0.0041703245063777
0.00103065470659077,0.0295392795698351,-0.00138528012637248,-0.00550908757094424
-0.00218589143404053,0.0307314288601751,0.00109828216636232,-0.00556833329545457
0.000171421620535772,0.0283970898299248,0.00375111236506666,-0.00405801926174994
0.0100463821733653,0.0195437621902501,0.00474033748785345,-0.00118435294697521
0.0220882656690123,0.00630896521346339,0.00256476368100514,0.00230567257340242
0.0258660641915624,-0.00636546908306799,1.54887023041932e-05,0.00497420962092017
0.0183527875619602,-0.0182231629751797,0.000820603682687193,0.00614491758454735
0.00899593226111046,-0.0282517558307,0.00100705772310266,0.00598229213281224
0.00562161908047646,-0.0314760829313148,-0.00084115946057591,0.00454518146771614
0.00892521192891607,-0.0270529944728945,-0.00115473435664613,0.0023371611898416
0.0125192169848115,-0.0208486794367164,-0.00120936595159772,0.000365262997477438
0.00970539062280332,-0.0173692184531394,-0.0027963332176884,-0.000695760902773518
0.0145551077015262,-0.021784632332289,-0.00552574389697857,-0.00112921101499214
0.032416666127797,-0.0328940065342396,-0.00796007797545815,-0.00155985413197406
0.037016310047124,-0.0365918294091904,-0.0098803237071234,-0.00228651143281651
0.0209372141042063,-0.0311874210771417,-0.0122005889449467,-0.00333134245549556
0.00576651344734877,-0.0264864951435742,-0.014208559469826,-0.00450860226398054
-0.00110169587065383,-0.0213255269874131,-0.0147175352015703,-0.00554273550764846
-0.00962657087662764,-0.0120622562438921,-0.0130784719579601,-0.00599807570215035
-0.0225749865317496,-0.00453963698658144,-0.00893680926345225,-0.00561879835545138
-0.0343698183092997,-0.00152125597054648,-0.00505084060436132,-0.00455813074795083
-0.0397214120236884,0.00304758973092404,-0.00531905589987331,-0.00325389978077948
-0.0368531307616335,0.00699441702159124,-0.00655376880269766,-0.0019237686745391
-0.0260717243168286,0.00192680035240652,-0.00606041848205702,4.68227686537146e-05
-0.0104720548668483,-0.00839251550342957,-0.0074526343153921,0.00274188320232117
0.00121630517176415,-0.0243707553735256,-0.0119521573086339,0.00454538572453155
0.00503498713221065,-0.0499442540338221,-0.0166291533405748,0.00419273681558701
0.00240142382257702,-0.0692318590184195,-0.0212487999541304,0.00248519301995282
-0.0024227798767153,-0.0705781480332188,-0.0236922126877643,0.000736873095993211
-0.00405119328437729,-0.060911279426579,-0.0195415902520971,-0.0005227699528534
-0.0030287699083593,-0.0458632138938304,-0.0129211309300937,-0.000723370955996412
0.00437885215133756,-0.0304616024572766,-0.0096981332851657,0.000373057440329623
0.0169886700557628,-0.0185452156700504,-0.00964461124537438,0.000888415645474141
0.0199135037664578,0.00247344184978103,-0.00754869180459162,-0.00119658506502311
0.00921137123195439,0.0236860577185004,-0.00108129041047275,-0.00442316850665274
-0.00640327935307963,0.0136453754058365,0.0049424151571132,-0.00561584256575437
-0.0233388240936057,0.00454966661425172,0.00948875436965933,-0.00390468612632812
-0.0369341911922471,0.0414467979482106,0.0130389061089473,-0.000385097684696716
-0.0425721242627574,0.078360845193271,0.0113201004499514,0.00392255124392566
-0.0460170025727623,0.0658370637315972,0.0057970577093153,0.00742082973988056
-0.045365401617504,0.0300196661200223,0.00415065440097879,0.00790691091619576
-0.0307659097490601,0.00622144044890943,0.00690941685330238,0.00548895305135719
-0.00827366620571463,-0.00216706815725233,0.00896030930103943,0.00287404892730653
0.0095249016726032,-0.00344851464361149,0.00818473500764817,0.00157479937334962
0.0189127354131992,-0.0073167610686775,0.00425673394915143,0.000919492749418221
0.0204612966111557,-0.0175647861303136,0.000792082573277373,0.000548179489397191
0.0196179510868679,-0.0269399335674813,0.00201998605538772,0.00122305655192307
0.0196800507303446,-0.026340811570127,0.0046329303108672,0.00272119594836296
0.0154271330193531,-0.0183934642888505,0.00360061242601386,0.00377109178547312
0.00739140534338472,-0.0144710796651384,0.000322465643384156,0.00411721608792076
0.00204531219292336,-0.011589443220564,-0.00127097125456021,0.00381802628401121
-0.00206255334913285,-0.000112698460326766,0.000801271205148118,0.00262241010340197
-0.00663804177032079,0.0122507908873169,0.00451038301206909,0.000848105969444459
-0.00933830408757945,0.0188463654636388,0.00658145006116775,-0.000781377590187518
-0.0120906751254782,0.0243209547557911,0.00975952520275341,-0.00143054729097699
-0.0146366429302705,0.0255765808341629,0.0145697131477379,-0.000159454332658406
-0.0158736565413116,0.0187193444332452,0.016754542471275,0.0031982620154922
-0.0178482372287801,0.0124572922708735,0.0157079126722198,0.00636371826082138
-0.0175196842964341,0.0139533623240154,0.012567730461963,0.00591095867823139
-0.0147263386806609,0.0184323559519457,0.00918081607446228,0.00186868753121816
-0.0116324832059921,0.0221752942471936,0.0073793354798014,-0.0021089395011589
-0.0054537872092063,0.0286983104992604,0.0085314772848649,-0.00314462818688826
0.00145463974412921,0.0367377752249112,0.011509747288981,-0.00111127083850386
0.00668806782442741,0.0364349547575557,0.0103198746374748,0.00198718154331098
0.0130061411045074,0.027296211279031,0.0049502382587702,0.0033128407619693
0.0212587434687232,0.0196328369688513,0.00249501051429543,0.00185353237771247
0.026858878789875,0.0187565283778815,0.00497820365576047,-0.000647387694253936
0.0214260293191514,0.0210155340929103,0.00769657597416815,-0.00140648701098514
0.00849827612424058,0.0189204100971291,0.00706793364458186,0.00161560963465523
0.00124188862061506,0.0117964455419397,0.00457101837187958,0.00693819121114429
0.00339794494716386,0.00484902951920793,0.00343733070228034,0.0097725329969026
0.00802035392902838,0.000472746470779177,0.00330059732194332,0.00750410820376053
0.00660512937382186,-0.00485136585341767,0.00186983423667214,0.00226571105200317
0.00173893567688943,-0.01152970146668,0.000626830217512355,-0.00242907946951948
0.000637079634115788,-0.0147091835727542,0.000244638858563703,-0.00481005821324667
0.000352261501891739,-0.0129254365412161,0.000289484586040737,-0.00494599033328198
-0.00343731395196888,-0.00914080687375653,0.000248155779622113,-0.00410501617462394
-0.00821530922285834,-0.00653104496025361,0.00035481181717538,-0.00374495239082099
-0.0104253964546336,-0.00176788055898885,0.00107729074500218,-0.00381107740517317
-0.00980564887483606,0.00757317269866929,0.00146362945023099,-0.00320513922424169
-0.00607200782104292,0.0152164123813232,0.00354420023327218,-0.00221240688561383
-0.000165877128175966,0.0128225655396008,0.00522896494728951,-0.00223413527723988
0.00122316554994529,-2.37659409014438e-05,0.00306467326215752,-0.00341081557889665
-0.00332828550225167,-0.0120543641017266,0.000891742930213955,-0.00467443635852265
-0.00635204990625785,-0.0166503567818297,7.52062889120475e-05,-0.0054754767854526
-0.00831112828289607,-0.018440145617343,-0.00121015238559255,-0.00654574198453277
-0.0159180089230803,-0.0204343519804004,-0.00360517839703572,-0.00827630862784625
-0.0260051246176206,-0.0230973067580778,-0.00861889850828363,-0.00964433465540895
-0.0291186154100094,-0.0208278329573007,-0.0142282091065571,-0.010247591653676
-0.0234893787614383,-0.00447787663487251,-0.0148224927090861,-0.009165582741244
-0.0166954317603679,0.0150143413108072,-0.00941891886600921,-0.00366841748855082
-0.0159673924054,0.0133593404683038,-0.00403095683888562,0.00588419008817148
-0.0186234990620924,-0.0135918128628993,-0.00262489607430523,0.0151005040651035
-0.0164232540532629,-0.0393680039494644,-0.00395736459742905,0.0208817810233609
-0.00930031394396468,-0.0370657286712641,-0.0046132127150307,0.0218747662089274
-0.00214889790973576,-0.0199560746830404,-0.00407408980469853,0.0159842662360436
0.0127187513632394,-0.0165487019344683,-0.00550977902297217,0.00200515442595272
0.0382580167178737,-0.0277646197146938,-0.00763640342235858,-0.016155823900562
0.0509478787087746,-0.03848193404941,-0.00687751534533568,-0.0290590573478381
0.0394599306855851,-0.0411581573513024,-0.00485966697534037,-0.0298997955809062
0.0192825826659739,-0.0326629260003671,-0.00492559389070155,-0.0210949818858678
0.0020030291355761,-0.0089586663373236,-0.00513084716708348,-0.00951617507766928
-0.00671990843673816,0.024616636597434,-0.00129210929262402,0.00155982762499103
-0.0019396207484867,0.0580191923352519,0.00173154622070899,0.0124768986594456
0.00599615319249767,0.0817712950486937,-0.000789264121687059,0.0207672779071484
0.00345221867879342,0.0854526351918781,-0.00430468872163633,0.0212675885633413
-0.00396889368028995,0.0727268210780837,-0.00522757356869643,0.013462649249646
-0.0146896083492773,0.054028432443006,-0.00522747130222052,0.00329654893381795
-0.0337905123869123,0.0342069108233642,-0.00771947423429664,-0.00370170082755843
-0.0451985098861138,0.0226100548965749,-0.008118408226006,-0.00724203158064069
-0.0348942289644669,0.0205451679423133,-0.00135770873974211,-0.00926662203713386
-0.0161364936245599,0.013335037750213,0.00558833076424817,-0.0105193261309943
-0.00577133818995818,-0.0130179590493044,0.00374429561807846,-0.0107734704268552
-0.00550482572754858,-0.0469823059707692,-0.00415850306560773,-0.0096743504243278
-0.0094060106190557,-0.0589851331552082,-0.00963736609309327,-0.00691330680009356
-0.0139567191925825,-0.0428237864479606,-0.0116485583073029,-0.00283456034038648
-0.0158323083626968,-0.0169481634829433,-0.0135280516826766,0.0017064950749233
-0.0113566137141877,0.00368067420692242,-0.0137671730793834,0.00586845199137592
-6.58966254097129e-05,0.0153547317265559,-0.0107293683632412,0.00873872137228397
0.0130482118640748,0.0208904359285096,-0.00650025350458003,0.0100089474411075
0.0200536771984437,0.022274205633027,-0.00263772879811903,0.00996855643166015
0.024176438903015,0.020779646742118,-0.00065897789005442,0.00928631914545752
0.0286549801554697,0.0206847390169735,-0.000207310715752898,0.00859711350597994
0.0200430813808901,0.020074700300797,0.00357320787499386,0.00770297764514622
0.000184713854694276,0.0153461333743183,0.0091345866616221,0.00658786356253925
-0.0120084309823323,0.010357963864599,0.00867471577076813,0.00535957695753461
-0.0181977100706336,0.00746004433920113,0.00403898863513012,0.00374912835452934
-0.0261574471456741,0.0104785295392368,0.00215601764927751,0.00199626290445558
-0.0299888010046629,0.0253094125278831,0.00351374266764443,0.000190132942959439
-0.0288662659950818,0.040511595887613,0.00504236948333878,-0.00225822893223719
-0.0261299940687247,0.0394929192793724,0.00664153527374628,-0.00509401144717609
-0.0188658804828868,0.0263777256922872,0.00841490354902857,-0.00677300468143206
-0.00705618822987851,0.012098402152601,0.00871822900981385,-0.0061478889500322
0.00467101718825162,0.00138560630523551,0.00795494853937328,-0.00381251490569562
0.00897382903940013,-0.00566965829834942,0.00864537855115085,-0.00155415654260401
0.00745652931303973,-0.0176220437185883,0.00955149932514305,-2.02686562703119e-05
0.00667954438253556,-0.031799533646581,0.00844268075720501,0.00170890572434479
0.00063449553938048,-0.0340358840653637,0.00747215468265249,0.00385557055917081
-0.00552722979808244,-0.0289146403839084,0.00855518218207559,0.00546248932760719
0.000342007839305606,-0.0222559014966291,0.012020011605453,0.00583505308382697
0.00889200315661522,0.000704593607860966,0.0170504877140893,0.00525566070073106
0.0102184800857894,0.0306799070115299,0.0193338378775071,0.00427702921978142
0.00710809254289101,0.0313654585159377,0.0166169275013831,0.00296937688659919
0.00101312087067904,0.00537453303862399,0.0128167435579026,0.0012544040972664
-0.00647632365775297,-0.0157267488344257,0.0101478379491253,-0.000459164853284493
-0.00892064157469491,-0.0230023294710583,0.00805580972398352,-0.00140182111658908
-0.00745453794219824,-0.0240392552494903,0.00779985306611989,-0.00134667748066907
-0.00755224607499521,-0.0234015051209655,0.00845047355249713,-0.000920557734666385
-0.00670851977224332,-0.0228514736662743,0.00761546726268292,-0.000986998539869889
-0.00379793951881528,-0.0210700336280486,0.00732392297819044,-0.00179782560187802
-0.00517606487149748,-0.0202713662535611,0.00716618583086799,-0.00268382593535943
-0.0114779531828148,-0.0234445170249884,0.00430436723182167,-0.00292160913774043
-0.0137098240085864,-0.0253881391592331,0.000993845892992117,-0.00255216424841059
-0.00862920009805297,-0.0242835437304644,3.27673560503816e-05,-0.00196703940193815
0.000311575165176554,-0.0227346357493511,0.00188986010961928,-0.00146343048827256
0.0118706308566695,-0.0196186357688091,0.00581220719719387,-0.00138935224090505
0.0220806304131128,-0.0180450621499257,0.00723536046750609,-0.00179106896007064
0.0269061465519198,-0.0212471284144335,0.00428540814873554,-0.00252354937832177
0.0275549791774233,-0.0219537371835836,0.00183070159805827,-0.00342480763917375
0.0234839885138784,-0.0116898927921316,0.00221648575641771,-0.00406408964095255
0.0147966192419682,0.00580837876101725,0.00326558009048971,-0.00409104422535045
0.00677489436902367,0.0146574272203069,0.00280629584800877,-0.00285626221922336
0.00413156964265012,0.0063013943169951,0.00212424739497208,-0.000308847051144661
0.00308480107142276,-0.00931459589203584,0.00293758349211689,0.00173163673765118
-0.000240587715220354,-0.0144357176496765,0.00271401731452197,0.00183850148209764
-0.000541630730015544,-0.000813512293641711,0.00161700308681472,0.00070716843685526
0.00541836010221656,0.0120240369517982,-0.00165927796457404,-0.000273125153298776
0.0100262905010454,0.00326397707368608,-0.00981957262635127,-0.000677453764240791
0.00633325490001218,-0.0149678915357565,-0.0177430462697252,-0.0011138438536363
-0.000891456007773279,-0.0261957296477899,-0.0227810812388369,-0.00172196230369031
-0.00411155718801354,-0.0266082936150716,-0.0241780693516469,-0.00196531539685539
-0.00681199813384935,-0.0181035581329762,-0.0201448761170155,-0.0021194172528633
-0.0186713927175062,-0.0102646325505021,-0.0159182662817778,-0.00293996969397377
-0.0330646617537878,-0.00791694874758678,-0.0159780559854722,-0.00428097654557585
-0.0396391770444437,-0.0107392441959009,-0.0164134204446282,-0.00527885706509889
-0.0447827158094026,-0.0228407551300853,-0.016633585243232,-0.00527023961992391
-0.0407527224475697,-0.035358771666071,-0.0169582525566903,-0.00424482478147796
-0.0130404975798336,-0.0177100326248716,-0.0128457124574161,-0.00284364589989935
0.0182168091063375,0.0401118038376151,-0.00577373053849047,-0.000852187843917431
0.0293269173147391,0.089612885947444,-0.00246196213451631,0.00267955933047086
0.026659706748722,0.089102536114625,-0.00464029568345558,0.0068647548882129
0.0221324411598578,0.0577523758155541,-0.00664243168667085,0.0097764485161187
0.0208327465487451,0.0209671211770698,-0.00333507097548972,0.0106836224270528
0.0284960965746834,-0.0173039689493756,0.00104292776685732,0.00911184360707499
0.0349880934031415,-0.0530507773886545,-0.000395809633007029,0.00370305015220844
0.0229875836015114,-0.0780091272941038,-0.00627473394967271,-0.00489686210520517
0.00356045694941456,-0.0821427207453352,-0.00954569327334409,-0.0123911537151643
-0.00412599226592881,-0.0518434325691926,-0.00663638619897363,-0.0148721117784045
-0.00361540250501453,0.000253338614699242,-0.00240892773346957,-0.0122980568174156
-0.00161227095867301,0.0321526860403602,-0.00037568935797134,-0.00725405456372099
0.00327872338917662,0.0297080695442405,0.00262901441280328,-0.00110369697009542
0.0107840536734619,0.0147885647087003,0.00603550686173682,0.00654228493758907
0.0183951039753988,0.00591254902568905,0.00545096800019498,0.0141737510671037
0.0163115417727307,0.0043155572261515,0.000792852055878007,0.0180854956460236
0.00101518185592344,0.0121871885148816,-0.00398289040057194,0.016353888326724
-0.00714657070311985,0.039762785058817,-0.00391614048599056,0.0106070363646759
0.00172928079660615,0.0712155225861538,0.000313594231671713,0.00430754133636224
0.00980600966476029,0.0708991748597677,0.00365223454266432,0.000435407444899409
0.0115147864766642,0.0394307627298408,0.00196568541761489,-0.000545685209267954
0.016210222503422,0.00976797551121848,-0.00283203794639313,-0.0012382538312945
0.0239669973045692,-0.000428867544709444,-0.00366832150065154,-0.00421970105066432
0.0303328375813542,-0.00102945067298856,-0.000166063958598727,-0.00818565747413826
0.0343420750853233,-0.00424370092424591,0.00318601834654478,-0.00969333773867272
0.0369813064612377,-0.00411684519146073,0.00744617784434858,-0.00754286715817259
0.0384697687842183,0.00579515279578966,0.0132687962439568,-0.00237788431198992
0.0347746131726151,0.0161181473676394,0.0153127402007854,0.00456743684252114
0.0256888308339435,0.0160032389809699,0.0112362625112237,0.01050902121955
0.0202152401345243,0.00584612534939783,0.00634858818167152,0.0122836679587736
0.0164602771720966,-0.00545126116846315,0.00546197480155988,0.0091377443437486
0.00961576852799854,-0.00791393788974797,0.00658642765655199,0.00322879225478794
0.00440629942618436,-0.00152726121986857,0.006600518189016,-0.00248834785212152
-0.00124132401759075,0.00497974261892499,0.00533025575799695,-0.0060393766708638
-0.00695901241931084,0.00681930261843061,0.00272675167096821,-0.00673364484534209
-0.00707102077500784,0.00479952540222131,-0.00207025486590805,-0.00458533314687482
-0.00343903895423743,0.00386281582789344,-0.00536553860620969,-0.000436205387290962
0.00171320347440624,0.00404251648960185,-0.00467725585387346,0.00322827857294836
0.011208873943248,0.00398546735340243,-0.00345208444913439,0.00416030353729847
0.0259131198981064,0.00376460311054651,-0.00347641022644629,0.00277365996813796
0.0396444976862094,8.01457251031739e-05,-0.0020052135789649,0.000930765077907677
0.0397771727173995,-0.00329580820175736,4.2321557453609e-05,-0.000285969995608209
0.025063532814831,-0.00157057353510271,0.000692659975531085,-0.000810537111503679
0.0103770793049264,0.000345516222342541,0.00214284596205127,-0.000921462987071226
0.000129188310288166,0.000128421416732657,0.00341153344429878,-0.000874835347887814
-0.00821851331999899,8.58051196694007e-05,0.00278456672623138,-0.000500653172844542
-0.0120203532883751,0.00185026740628893,0.000552835975096175,0.000100923202337534
-0.0102625275234443,0.00557237368447917,-0.00247450000081462,0.000207622407993516
-0.00623073448983497,0.00512599576567788,-0.00387291994209565,-0.000411874849990415
-0.00395404128279495,-0.00298452785957618,-0.00402337302307503,-0.00175768502746643
-0.00428370511333767,-0.0121510669558404,-0.00519580379593371,-0.00381244210557863
-0.00705144299201459,-0.0160837286080514,-0.00675008100808923,-0.0053687184330427
-0.011485485005214,-0.015624153438143,-0.00733538059578284,-0.00501868983439804
-0.0142360183086824,-0.012207975523954,-0.00643538361149866,-0.00319301273241906
-0.0137028413333235,-0.00952610451347794,-0.0038528389527931,-0.00106050515663173
-0.0112496801398877,-0.0134821243306321,-0.00186749777199779,0.000927961799506202
-0.00708444509208428,-0.0224183238200341,-0.0037373199076796,0.00213228562355929
-0.00575660030525072,-0.0286502196517857,-0.00446524847220847,0.00144500956674061
-0.0106409235347236,-0.0268358886364062,-0.000557437344616005,-0.000693944969140259
-0.0154336345700402,-0.0191192374784262,0.000386270058658733,-0.00234151649233913
-0.015690947994819,-0.0135111702270823,-0.00499171282860199,-0.00277051970322055
-0.0148588640576952,-0.0116153693653346,-0.00957303021185745,-0.00230727733621999
-0.0150251463223407,-0.00785831133985439,-0.00876275106208894,-0.00123970266680212
-0.0120305694441943,-0.00180319739626122,-0.00413818690707948,-0.000305380118872958
-0.00450199605919956,0.00754936188647231,0.00213799791184905,-3.346941661427e-05
-0.00163860740725381,0.0216959810179515,0.00780029994769697,-0.00028528910627539
-0.00679445723348257,0.0296742725123056,0.00841561702655514,-0.000793938250633689
-0.0122766523920848,0.0246444883744875,0.00456743238188161,-0.00151820605499269
-0.0137111151490858,0.0136079887497464,0.00252173834040273,-0.00236936000124421
-0.0126968953364009,0.00275273083752389,0.0040656695215782,-0.00291725145403935
-0.0125164214170614,-0.0105454310857804,0.00665874926959204,-0.00257005086944388
-0.0141012350736446,-0.0274400524046249,0.00672153680396594,-0.00040648172841024
-0.0169016060728636,-0.0397519840255905,0.00286760077804641,0.00315349761741657
-0.0174834079430361,-0.0386964909616702,-0.000556946833723991,0.00482096398511884
-0.0142731738158942,-0.023010055462068,0.000369968399692794,0.00214741102234196
-0.00859756523300184,-0.00373532912453522,0.00296672854483577,-0.00287174557439651
-1.89024860093763e-05,0.00982208101737971,0.00584398187405669,-0.00624584811848556
0.0102532555593427,0.0164551963658559,0.00723104787685294,-0.00608840406373787
0.015648031736664,0.0147435427248618,0.0037954244424682,-0.00369924136644727
0.00918840902654385,0.00283373630188887,-0.00253662370210476,-0.00115323737962887
-0.00642015633632522,-0.0222888297111663,-0.00672412854154563,0.00129718868104596
-0.0225985076988291,-0.0532064196412533,-0.00857881760663745,0.00501332565021334
-0.0321351527159778,-0.0715734333613884,-0.013631632516674,0.00998629436821183
-0.0322126359058301,-0.07290372026383,-0.0211465434924213,0.0122635727991046
-0.025716025486307,-0.0634168399544928,-0.0246271573833547,0.00826899970011458
-0.018638984919179,-0.0486971360949122,-0.0250822682722231,-2.78875427996237e-05
-0.0131224045129143,-0.0249525619883049,-0.0247052744774781,-0.00823288102849913
-0.00442186099559643,0.0130808690746913,-0.0201272216295482,-0.0129770479766527
0.00520998745748579,0.0439380949673652,-0.0123152354678227,-0.0119531638084667
0.00689424195816146,0.0494991452372116,-0.00762098761080785,-0.00550864696527152
-0.00158400890246975,0.0478536419714547,-0.00631675957899534,0.00253398502706527
-0.00790355351487396,0.0630117900848875,-0.0035433623319227,0.007581360692276
0.000836097101548069,0.076568438105252,0.0014591491920269,0.00823579966278098
0.0134279592503915,0.0512695644997192,0.00536003461811532,0.0065496938214247
0.0121143057645863,0.00480826351298284,0.00252731704176748,0.00489914243234914
-0.00339054567621448,-0.0210467949012287,-0.00521411899478956,0.00373378765969956
-0.0174446641457373,-0.0230674042381018,-0.0110076534172635,0.00167136994401529
-0.0129635522894768,-0.015400743659819,-0.0134630933724439,-0.00177445609134917
0.00250882376195423,-0.00936610798770461,-0.0126060473898922,-0.00532215444909095
0.0080217240464903,-0.0157454226570539,-0.00871990844557735,-0.00811049893358201
0.00247800258754551,-0.0302736680561212,-0.00644039499592581,-0.00931465062923999
-0.00642835084781835,-0.0364062500503844,-0.00901747032843126,-0.00756811168371273
-0.0115597131591563,-0.0274306162934098,-0.0114382312910388,-0.00290524990735912
-0.00608050630742076,-0.0121683536957334,-0.0105363551160539,0.00305390877382894
0.00097345247851628,-0.00318105013109083,-0.00993070818876299,0.00810581408128581
-0.00161461403106427,-0.000177729845851813,-0.00879152953479799,0.010542451483493
-0.00507891090478262,0.00300735850554183,-0.00716676527067689,0.010174405050772
0.00239154876397276,0.00829717159392859,-0.00814314292461183,0.00765935388096864
0.0170507348548916,0.0125223149825344,-0.0095031343988137,0.003915908650772
0.0250997033519434,0.0127872821971536,-0.00831009320915272,0.000387494246151664
0.0204363314374552,0.0132521444560271,-0.0050813530915881,-0.0019603391784821
0.0107512084783979,0.016050629882996,-0.00388808391378427,-0.00319120324141752
0.00351925892481181,0.0181553906010181,-0.00409533441097968,-0.00324948412399241
0.000804042562767915,0.0188410853463989,-0.00110643678432293,-0.00268801982954388
0.00190719264337718,0.0187536881781337,0.002316508522651,-0.00289437601596106
0.00276163727618463,0.0170724923118967,0.00268019277501638,-0.00402359675134193
-0.00379808768091518,0.0170910792055276,0.0032089592265749,-0.00465360568433976
-0.0172495740385284,0.0196671887558261,0.00598129351814654,-0.00328090963213293
-0.0253714357670945,0.0201691731761337,0.00864659923534278,-0.000477784287482864
-0.0235418959346722,0.0178580891613381,0.00935395590263947,0.00183166029291691
-0.0184070169700005,0.014032699030327,0.00825220683765322,0.00326470586565463
-0.0118640702313385,0.00875523314009674,0.00733862319232227,0.00425231198582967
-0.00384764856699077,0.00707587314374289,0.00872816361648161,0.00437953413478508
0.000424098897684494,0.0116531313211254,0.0109932142021945,0.00326022808874097
0.00176034240544433,0.0167912382487707,0.0127855248066073,0.00169247849243226
0.008085559278666,0.0170297676937841,0.013862726888065,0.000758180268713325
0.0199834434936513,0.0116496864235417,0.0152060157997057,0.000507693896642926
0.0290154885211178,0.00403974574384905,0.016998533809459,0.000578857408471088
0.0262612284623708,-0.00428999079324115,0.0170655199604371,0.000730425970455278
0.0167509219214535,-0.0155708718902567,0.0136265670343129,0.000419014276902746
0.00895221718496812,-0.0232703020688111,0.00814064172824622,-0.000819719839688352
0.000227133363101713,-0.0164579289163739,0.00558462474346466,-0.0023317517391616
-0.00805176058699194,-0.00445851244492297,0.00754086974042594,-0.00275293911876138
-0.0128744667068286,-0.000586753113879453,0.0094226163045126,-0.00162078087983425
-0.0163260448703374,-0.000542459197137255,0.00767536658031027,0.00048657919152243
-0.0187043331951282,0.00376936536201005,0.0055148689759009,0.00312136084320916
-0.0193381722462856,0.0115598727933045,0.00434784602928382,0.00558907553960721
-0.0176943000873188,0.0132179897984698,0.00354470830950249,0.00600184292976759
-0.0135021124376904,0.00392992770527528,0.0037777332882897,0.00366955340940725
-0.00932455656450157,-0.00794460792013211,0.00452023723465909,0.000624521702024767
-0.00595263994507554,-0.0131204977293194,0.00545526693696636,-0.00109979831309785
-0.00298011701743314,-0.00986089454906031,0.00642660880644647,-0.00149302262166973
-0.00347986423831481,-0.00378619007486027,0.00819053380662479,-0.00184388755587757
-0.00493542316842772,-0.00282886786771316,0.0095631319119185,-0.00261676457323681
0.00092380215131193,-0.00730284939721663,0.00826574850057003,-0.00357015404142518
0.00914730357006884,-0.012805072339086,0.00657082057867578,-0.00493826192936359
0.00529853825012382,-0.0174041090083242,0.00692790935656428,-0.00612594119391338
-0.00666817397633709,-0.0184202018842694,0.00943420783582119,-0.0058280758085651
-0.0126525553506944,-0.0143222756536558,0.0122729243957077,-0.0041609093903468
-0.0124214936917083,-0.00993137077622904,0.0103336281871489,-0.00259024874249313
-0.011426415459479,-0.00775235699717629,0.00321326817866143,-0.00130762882803304
-0.0129828418202402,-0.00102654606053102,-0.0024927361164068,0.00181960905597452
-0.0180639870836963,0.00940999741596263,-0.00318734205434756,0.00782909783949347
-0.0216209510996814,0.00767300489375168,-0.00273675005437629,0.0133527653821687
-0.0179468407939801,-0.00416464580835451,-0.00479171687773071,0.0136781463546709
-0.0139470744733967,-0.000436290152613242,-0.00368269367425988,0.00931189165435101
-0.019401709849693,0.0174607280371106,0.00284876919878137,0.00577121313705299
-0.0315953852699098,0.0236671932325603,0.00494527283332144,0.00517237422526299
-0.0410896376633207,0.0171102013586271,0.00154297152438441,0.00339260938386375
-0.035744428534524,0.0126416901185711,0.000834757274610192,-0.00308523845512701
-0.012507735143664,0.00839787489461064,0.0004787383424946,-0.0131638952416714
0.0174838198849314,-0.0048166027068252,-0.00566258932269408,-0.0225744599857202
0.0364537529002817,-0.0226645748990905,-0.0133494164763933,-0.0256940311973516
0.0298064953896813,-0.0353445849662176,-0.0154688471722413,-0.018938181325581
0.011840907199776,-0.0397582126996182,-0.0128786519749244,-0.00527221043306242
0.0136683441479163,-0.0393675237290585,-0.00733386737593367,0.0067912023648705
0.0373278969044417,-0.0378749977272174,0.000784829364642577,0.0108781306982543
0.0521782840548198,-0.0384985353205563,0.00618991194078206,0.007920799626958
0.0322685133167845,-0.0349289253870388,0.00660860446416154,0.00295536806489961
-0.00510341126755177,-0.0102304408139948,0.00406121530875904,-0.000382932913426441
-0.0229256589176204,0.0268090865454026,-3.3005603007479e-05,-0.000781129706930665
-0.0208100924436767,0.0426582618704686,-0.00138738339248544,0.00187593023783027
-0.0275235958943793,0.0220866078021852,-0.000732361232620327,0.00633286493533325
-0.0527380405558763,-0.0190669689460602,-0.00430153199408498,0.00974600583365797
-0.0690155955015593,-0.0513063855059831,-0.0105767743800397,0.00933097779257052
-0.0493695827251382,-0.0577048810777003,-0.0129081603327877,0.00521847239042189
-0.00632266292088049,-0.04426719806438,-0.00896790697618229,-0.000110368339702056
0.0264978961035419,-0.0275493272651401,-0.000951339326873043,-0.00460429853913322
0.0345146700396276,-0.0194671523706519,0.00535233715993654,-0.00705953314711057
0.0327916926138132,-0.0098914278169266,0.00411813499591035,-0.00755635448715643
0.0398778074682948,0.0269917116846448,0.000697774053759809,-0.00715896332424545
0.0534210990686232,0.0917941114293843,0.00293446107445538,-0.00608865278801166
0.0578362356507207,0.13911704547716,0.00881026893412559,-0.00428171185163147
0.0460057929752394,0.117812040625914,0.0126970532052263,-0.00196312172251423
0.0256744635860351,0.0449275387533068,0.014162792588438,0.00137891013032248
0.00449959478109421,-0.0208431782163841,0.0156661107208901,0.0060628931509012
-0.0160723616536668,-0.0583137730480463,0.0126298219830672,0.00978668802567055
-0.0289704942582762,-0.0670548302654327,0.0040301347476966,0.00918842544354936
-0.0228598673497125,-0.0535085750740479,-0.00305725484058712,0.00437936552220504
-0.00124448202285258,-0.039111082861875,-0.00717297574155655,-0.00109606257654246
0.0195419415098105,-0.0381819338009103,-0.00833396703222841,-0.00429684572426965
0.0317508154579311,-0.046630334523264,-0.00443137350924518,-0.00469115058816557
0.0356482298335895,-0.0501740387177459,0.000745757680157909,-0.00308019692512007
0.0340546224904526,-0.0360615685038615,0.00161771504294866,-0.000960787973447365
0.0336356015057851,-0.00570721801345245,6.48961388066585e-05,0.000303022982648208
0.0319110940124716,0.0205635643888976,0.000949054919558655,0.000622599868686059
0.0260030361132856,0.035809861575523,0.00425550193534218,0.000852454602616426
0.0245682188928736,0.0566564998777805,0.00711363400735959,0.00161247311123548
0.0270090579930511,0.0798638787312248,0.007918180760554,0.00252608610123882
0.0228051465707039,0.0804525097950322,0.00829364578431566,0.00297073768290462
0.00706143490308123,0.0539771420623239,0.00824280046725752,0.00315857944458563
-0.0109541500503776,0.022494484229893,0.00685911694804235,0.00332347571715481
-0.0182286512799435,0.00558045493784958,0.00657691346552296,0.00312792796596712
-0.0158492700647514,0.0034928125663216,0.00811173258058115,0.00269235198754853
-0.00945302407528196,0.00803158572877576,0.0103694743617299,0.0025371822363233
-0.00286257839716924,0.0165310640491703,0.0109497460332327,0.0025351448986992
0.00384740212442513,0.0284412778143703,0.00897200228133689,0.00185116682746614
0.0128646332130674,0.0361247678632549,0.00675500220079816,4.7958709981615e-05
0.0192797561093016,0.0326276391692075,0.00596286226878123,-0.00213259887732526
0.0207775918910756,0.0230871205177921,0.00573688125843475,-0.00346535380528093
0.0190752738944818,0.0151779104619054,0.00392944412793541,-0.00369963837668189
0.0126156549046273,0.00988112994225435,0.00241302686978402,-0.00372142501712412
0.00324934697348834,0.00690875465762802,0.00135372442229231,-0.00422378387341656
-0.00435670648574932,0.0070017309297186,-0.000890443840795245,-0.00494273256861118
-0.00786257497639904,0.00930668727364066,-0.000699355544714246,-0.00476496969165951
-0.00965726230520337,0.0112945150629895,0.000246389516106098,-0.00241521932420808
-0.0137076404396199,0.0108648465943032,-0.00285640985059026,0.00178845829035981
-0.0170206974220548,0.0111777270288374,-0.00566619047274148,0.0049863543075602
-0.0159547969790079,0.0136473048692721,-0.00381758195945288,0.00463329887790911
-0.0140578113468904,0.013782408412156,5.34663038732957e-05,0.00185370229870624
-0.0131769033896089,0.0119937023906106,0.000994932165387419,-0.000164939836084914
-0.0113381195552493,0.0137908612791287,-0.0010886357679789,-0.000141906162343975
-0.00895949032072384,0.0206885906381625,0.000269785665757958,0.000631452320064297
-0.00378122633503323,0.0270097885132657,0.00469121108368475,0.00114616241602249
0.00383127516613989,0.0311129761878216,0.00573625455442058,0.00186687591495868
0.00347708009487778,0.0367050896455764,0.00485208773328276,0.00267910944721274
-0.0044128316884431,0.0384261514301249,0.0046325366139154,0.00236333240991989
-0.00903381466731718,0.0311245814603975,0.00459697454762003,0.000236040065246127
-0.00883778884418114,0.0185289919792248,0.00525170945922365,-0.0026870587726493
-0.00966551059001947,0.00320417613141967,0.00484622161295412,-0.00455589627905598
-0.0127366275321306,-0.0111709425492913,0.00225338728462865,-0.00509341186154718
-0.0115330524183438,-0.0182092428039428,0.00108253785081154,-0.00531730367493417
-0.00624701340070772,-0.0182366574732029,0.000753622525479532,-0.00537519324040231
-0.00365932146701938,-0.0135371237743046,-0.0021400159646736,-0.00509824457448834
-0.00394026963966354,-0.00408530772653336,-0.00376653079328953,-0.00487781847150586
-0.0026386716994183,0.0016345033723365,-0.000684115351463964,-0.00451677292405678
-0.000910322465449158,-0.00359811582214792,0.000461182465143187,-0.0026924465551512
-0.00419362520188406,-0.0120200805097985,-0.00567297364458982,0.00136518996439477
-0.0125816336817517,-0.0164633212262028,-0.0110048581367662,0.00548240688343053
-0.0198181067074595,-0.0179148153950838,-0.0076056472986656,0.00619360385031073
-0.0120438973445069,-0.0143795251131476,0.00175772753270033,0.00323825471068304
0.00946160701878284,-0.00390396253792792,0.0101439832445269,-0.000519055921893851
0.0198428347478995,0.00647239573562011,0.0125732716294546,-0.00207450820068074
0.0114237122001123,0.00791081552974418,0.00867069763945086,-0.000689985925460172
0.000944638336514321,0.00236072325968161,0.00342130299934003,0.00192191640698603
-0.000275361996495613,-0.00325183896704657,-0.000887363477054276,0.00438729643227449
0.000824441811663697,-0.00482004369245938,-0.00482271066526217,0.00563653430059636
0.000186866474701976,-0.00499833388216785,-0.0054366503444702,0.00477614627961623
0.00156174993640616,-0.0103946834691233,-0.00125273951569143,0.00302168834376174
0.00120640978122412,-0.0153162306777871,0.00344795145036164,0.00196211723576907
-0.00302406223995205,-0.0100871095507428,0.00412172368361797,0.00102387513605767
-0.00396348016294151,-0.00349152096015355,0.0025313530632113,-0.00144313085432551
0.00204966038196121,-0.00526063968483439,0.00196764867370844,-0.00575927231677908
0.00413816603200923,-0.0140470512013343,0.000702851898243451,-0.0101152465307738
-0.00194940269564102,-0.0284717166839048,-0.00162302342471312,-0.0122140609833865
-0.00277225785632672,-0.0384507353071405,-0.0036431814216718,-0.0112512734072367
0.00475202322729004,-0.0315579626985047,-0.00506425150290565,-0.00760659068659891
0.00895831153410805,-0.0126139180516163,-0.00372125371578219,-0.00198388739909179
0.0107830134738879,0.00160712752878154,-0.000619944704764921,0.00497208570964494
0.0219961381186678,0.0048341097674305,0.0002013165992154,0.012071147973816
0.0385554689072819,0.00293166405912954,-0.00118626896630992,0.0162260131312831
0.0426935286286801,-0.0055777630064033,-0.00228215085107217,0.0147576952308591
0.029396456766847,-0.0213624106375997,-0.00183575691232086,0.00909523094931899
0.0151917132400271,-0.0289042048361758,0.00093806217125216,0.00349185663493817
0.0109509584825577,-0.0232703166775077,0.0023270407326732,0.000366702673623865
0.00919924255041578,-0.0173337888675628,1.9599714475294e-05,-0.00151226216835396
0.00531212621513848,-0.0189193615566927,-0.00256787740698641,-0.0039826050269878
0.00226597236448388,-0.0263050273206531,-0.00419798610938971,-0.0066412102774267
0.00487518379640808,-0.0311727735184465,-0.00443681992427167,-0.00771404901057218
0.010069094050461,-0.0264540833320921,-0.002655866237961,-0.00614756466518846
-0.000198790421410743,-0.0120421798022038,-0.00364571374340728,-0.00271204053265941
-0.0250834469470343,0.00696485208154962,-0.00907290558698028,0.000464296803574221
-0.0386874734096492,0.0200443855701951,-0.0122039860957466,0.00197849424648148
-0.034481387726953,0.0168276324017647,-0.0107021386867165,0.00182903112219415
-0.0274663403562125,-0.00314726261684621,-0.00927300852216227,0.00037139164351424
-0.024883342549798,-0.0287352495075084,-0.00907148844819839,-0.0016369849922303
-0.0197344206433723,-0.03592563573491,-0.00745684424633643,-0.00305173512663113
-0.00795408116131496,-0.011249912145978,-0.00277839276789117,-0.00283757306404199
0.00624212952914879,0.017051894644614,0.00286114348405083,-0.000797462641019543
0.0146968143438623,0.0213953469851429,0.00314476839239805,0.00198810123584454
0.0165706600732748,0.0166047762234348,-0.00198834482690634,0.00440887133554078
0.0232569712155264,0.0271127988358377,-0.00424891814337304,0.00592599762370707
0.0359883571552257,0.0463341037087822,-0.000977342217095862,0.00572731817960061
0.0444934320480761,0.0390932700869884,0.00229473662607392,0.00340617724318701
0.0410124484230077,0.00612070079720303,0.00381611386209391,0.00041130076425005
0.0236749582099763,-0.0125279693117116,0.00346606068239873,-0.00103277138834549
0.00169421087817195,-0.0113767032961285,0.000334518085645193,-0.000124022694861069
-0.0107780357411147,-0.00772864960268917,-0.00361248362615139,0.00173750634034733
-0.0120639077952911,-0.00637093624462905,-0.00783099132570662,0.00183914283017312
-0.0109770531583207,-0.00962007689332113,-0.0119384702226329,-0.00123377776548158
-0.0117175354147035,-0.0147628600271793,-0.0134777979673296,-0.00577205033661865
-0.012793860022056,-0.0194271620430766,-0.0136025073829838,-0.00853405393526903
-0.0120543736778459,-0.0218786466160616,-0.0134918243254442,-0.00830891275759716
-0.0081769993435382,-0.0182520659799597,-0.00915981769718715,-0.00678997573504871
0.00123952774094942,-0.00980432235806986,-0.000852065074314777,-0.00546915150316996
0.0117101429187067,-4.470403888596e-05,0.00423433645546339,-0.00365086422502298
0.0114881436598047,0.0100429226966478,0.00327161684060291,-0.00048990922510851
0.000349060981136202,0.0225637555152705,0.000863856049847423,0.00300047249752647
-0.0107591911859778,0.0326002813096722,-0.000992294387094629,0.00528557600601672
-0.0105181796051716,0.0344611611082602,-0.00387652329264855,0.00564059664441546
-0.00332618626619654,0.0303415648347604,-0.00666619224236198,0.0043305921396542
-0.00292978906746057,0.025665755846291,-0.00845252482986417,0.00280132900189387
-0.0026820129162257,0.0248483612814045,-0.00866274476167206,0.00194707599751123
0.00585005128455527,0.0239852100845216,-0.00633323029222381,0.00123446712972081
0.0134875718237983,0.0169636861490406,-0.00440544491292961,0.000595217771307623
0.0163653702770169,0.00776928583548112,-0.00287417025780143,0.000761337051953688
0.0167835094059579,0.00241454679377111,0.0007991728518996,0.00194696351512456
0.0135843439983795,0.00211335746638221,0.00512036708831745,0.00288123530606179
0.00873083940648987,0.00517292553398721,0.00800843881033242,0.0016704089646535
0.00644956705350228,0.00720699031100609,0.008361138770855,-0.00186777243445728
0.00796192426512189,0.00673699686207131,0.00475895621991983,-0.00569548485093891
0.0116304427191233,0.00336922278828664,-0.000232589162460091,-0.00737860262064049
0.0165766669037649,-0.00105966577838293,-0.000622984269227899,-0.00675255199710813
0.0232000946737911,-0.00361462793352286,0.00112109757045997,-0.0057861281487246
0.0288274826075327,-0.00477803509711851,-0.00224203678591355,-0.00572509477983401
0.0286083875039322,-0.00537512077619163,-0.00941293503759991,-0.00601717974328534
0.02322531812226,-0.00806381630376613,-0.0108854854820482,-0.00503796484210462
0.0140437225355146,-0.0147514198438309,-0.00525541739387311,-0.00145759209229422
0.00146979941028694,-0.0204696992518602,-0.00191308539442835,0.00424423339973225
-0.0103022571131485,-0.0179458516885037,-0.00199722521140915,0.0102070122931506
-0.0176906564042774,-0.00881427644075788,0.000202572135517243,0.0144329468460255
-0.0173542326820829,0.000185915724314482,0.0047849302914536,0.014792540828461
-0.0118927427072136,0.00117075976749527,0.00864809997761499,0.0107556562188821
-0.0101177575065496,-0.0105739802912281,0.00952691659888432,0.00492247457146463
-0.0118981578734115,-0.0232333240493198,0.00863577044015186,0.000309987826482665
-0.0129438716638271,-0.0247302446109246,0.00964947514021834,-0.00208823564468085
-0.0148930344268661,-0.0175538753168017,0.0119081828386845,-0.0025128007240235
-0.0144218247825641,-0.00868504190180548,0.0117016262022598,-0.00165964400179287
-0.00843991642378043,-0.00644890755486396,0.00985737432190539,-0.0009212422748675
-0.00320776285122944,-0.0140429480314661,0.0075281131226078,-0.00129712184363708
0.000929434178303637,-0.0217841031988525,0.00417816907630285,-0.0024992951610164
0.00735461360362455,-0.0195215096457574,0.00189495416812001,-0.00374324102142796
0.013896139424199,-0.0105050922984192,0.00200729750349197,-0.00440716021538125
0.0175649218810205,0.00154412906334887,0.00427316590162394,-0.0042351068662107
0.0197033889044672,0.0234284966071441,0.00863493923485204,-0.00309432620385462
0.0288701991075172,0.0480907177651767,0.0127348859386502,-0.00124021284222554
0.0422171041710325,0.0507166365189459,0.0117204963673349,-0.000262807885712496
0.0391425609103196,0.023777693543414,0.00580502725203141,-0.00109124832468497
0.0105162352312929,-0.0180858901418506,-0.00105510244915754,-0.00146978285830925
-0.0196174975720072,-0.0475824535281854,-0.00654817586007995,0.000665452182740634
-0.0215761025076695,-0.0460703491111056,-0.00867965987828198,0.00381346217091962
-0.00917583748046106,-0.0313937775806213,-0.00736260501722783,0.00563165970249852
-0.0142025741745217,-0.0261033397666877,-0.00296299108546434,0.00563235161772798
-0.0287024556333192,-0.0291173346549134,0.00177555254137432,0.00491965615482846
-0.0257680657387342,-0.0312417588606023,0.00301046461045132,0.00458061270921019
-0.00742650306815506,-0.0252721152990741,0.0028107012997083,0.00411770834378341
0.005393480782177,-0.0117978355358899,0.00121915104223749,0.00308742016660529
0.00527937303405797,-0.00106844923658873,-0.00245857368448038,0.00209729276636359
0.00161417850167128,-0.000886773114062884,-0.0038354797827662,0.000918254497107807
-3.67506984850089e-05,-0.0055571233112511,-0.00330893029138097,-0.00105899132699326
-0.00383848161660055,-0.00428495744095787,-0.00272028563389807,-0.00323847920930884
-0.00828493170291842,0.00287324466558381,-0.000364347306823803,-0.00415732004928247
-0.00913473585235967,0.0104866137405251,0.00167782597715818,-0.00344983314937731
-0.00788958218203578,0.0158381789316747,0.000880526906697194,-0.00278803484887396
-0.00631326682308891,0.0157246384976262,-0.000804491289740391,-0.00375140244556116
-0.00491959612315154,0.0124343768971156,-0.000374114392514528,-0.00592494034588505
-0.00501591083146339,0.0124775341566586,0.00103282634152308,-0.00737478599849693
-0.0043943211815571,0.016169425132557,-0.000635864624999496,-0.00629829841486939
-0.00186380151249304,0.0192073817278998,-0.00517904732928877,-0.0026996022538609
-0.00321033420359693,0.0143728890846334,-0.0082885098328971,0.00158125465842333
-0.0079660973651334,-0.00356749423743416,-0.00748487889007616,0.00494835009936749
-0.00923521621392792,-0.0239381586410034,-0.00478354414484923,0.0068924494058377
-0.00504020404246897,-0.0336665090373878,-0.0043041772544979,0.00693364493660121
0.000233906426616116,-0.0362204028745824,-0.00582961791750916,0.00487134434159863
-0.00223338761436279,-0.0396968024114827,-0.00506828084874914,0.00153764369080242
-0.0133362376890666,-0.0442378605892275,-0.00292191791134889,-0.00199980000117875
-0.0248114630355593,-0.0436739355127907,-0.00257245996016454,-0.00494943697590984
-0.0306480704051447,-0.0339990706165828,-0.0031174566492407,-0.0063190102271494
-0.0301209447749754,-0.0179430342201822,-0.00363303627358763,-0.00560589959828133
-0.0281663439666113,0.0013826752649139,-0.00478222979695851,-0.00377002752054067
-0.0251522780682737,0.0333946544627717,-0.00518626218276995,-0.0020521708668512
-0.0202742735004166,0.0844639146965848,-0.00214538612806495,-0.000510274296453009
-0.0175976675871535,0.119442094747596,0.00125283960719,0.00146287505398357
-0.0152816292618825,0.108861401317426,0.00167356194139393,0.0044593164853378
-0.0142440016176836,0.0718955346960055,0.00119048358286806,0.00813081986728028
-0.0161392414534276,0.0185665815389944,-0.000137448444737525,0.0098052179474314
-0.012904336085504,-0.0513248213610677,-0.00252374545008951,0.00659045472640704
-0.00979537488951688,-0.108487831392799,-0.00324418287049156,-0.000556870757719163
-0.0201965437938305,-0.124325344239672,-0.00220572527077471,-0.00687453913698705
-0.0322290090721399,-0.107114316251029,-0.00123267220308075,-0.00816606594013785
-0.0300299637492793,-0.0812203682318771,-0.00155973830172612,-0.00425940297509499
-0.0180493664746708,-0.0638053379919463,-0.00561309161100218,0.00157156716788487
-0.00374986638041015,-0.0587646619623267,-0.00899144428420069,0.00528024214467944
0.010837514496613,-0.0543142918957195,-0.00738163420953669,0.00507426979648967
0.0204389220101232,-0.0294703911689161,-0.00551365028251173,0.00207806334764452
0.0181825084962627,0.0213241528354506,-0.00252836379120553,-0.0013118326474913
0.00776481903783561,0.0564508236839978,0.00364431402486272,-0.00289272534437153
0.00410246961151858,0.0433185486690749,0.00973899480537988,-0.00231727203131337
0.0144745018902481,0.0193359694882022,0.0135592060866266,-0.000898094403984143
0.0216593415817099,0.0207623056954332,0.0139930054483665,-0.00013429198355413
0.0108568288212228,0.0254334446678878,0.0128344653654059,-0.000753573497581841
-0.00528981914141873,0.00781902434440039,0.00909485108716723,-0.00181407961507624
-0.0118339514362137,-0.0187332443954856,0.00173279675014073,-0.00179804955870869
-0.00958494437681067,-0.0306828012431083,-0.00133851597769901,-0.000607456684432701
-0.00609535599271584,-0.018595584582455,0.00404235235715245,0.000976068821487485
-0.00468120518501686,0.0145010295638434,0.0109686772007654,0.00234033196274899
-0.0029214215638195,0.043869515943989,0.0124575070293866,0.00337518771051208
0.0011004182807246,0.0436599892496339,0.00948072506510526,0.00423543223168818
0.00768522999300768,0.0243220426737725,0.0054496160149826,0.00425066147271968
0.0130117331332679,0.00837914648340655,0.00253487452757672,0.0029888663303168
0.0125756278259646,0.000809506963559289,0.00274432684284627,0.00154158658787831
0.00907931035427927,-0.00693316449211055,0.00186821368360099,0.000550655956309351
0.0114941058808024,-0.0192823248888949,-0.00430680420871845,-0.00109552716212641
0.0239035021220698,-0.0243873453921102,-0.00935937210058604,-0.00387357655092542
0.0367640029271381,-0.0173248526744527,-0.00766485912085588,-0.00626536844207723
0.0442036364733885,-0.00712890742468913,-0.00437310695066811,-0.00676294606786805
0.0470377943462789,0.00137279427323742,-0.00383677438744487,-0.00551279783820028
0.0423545684914413,0.00534628674719508,-0.00348623147045149,-0.00375076726213917
0.0323471296414853,0.00173553174203907,-0.0013255550808069,-0.00226699333105826
0.021103798164218,-0.00424490656090868,0.000218794170689694,-0.000294874865552987
0.00867618596966334,-0.00353347968439154,-0.00149988272719559,0.00309895014791317
-0.0015517401274875,-0.000653035945539624,-0.00420707428217196,0.00599785425232018
-0.00606802063656505,-0.000189452731262071,-0.0045001752689101,0.00545236735975808
-0.00756729957538828,0.00816704140934575,-0.00170441977849702,0.00218190157311011
-0.00828882600701265,0.0243235611660121,0.00300971770564094,-0.000352577161429915
-0.00259697934240839,0.0354027857930075,0.00601271246558497,-0.000633781855835635
0.0113330334582987,0.0422182551046319,0.00582146919705164,-0.000847903405550997
0.0207960502077425,0.0497667549799327,0.00405083395958339,-0.00324725983961397
0.0176923732460549,0.0498856119760913,0.00310705637019475,-0.00617218003720417
0.0088205593378172,0.0442588028965057,0.00475776436667205,-0.00636803648935224
0.00354773657118899,0.0475094581998741,0.00677070976624574,-0.00321257459302736
0.00719469008019807,0.0557168995075983,0.00511410801849915,0.00127228944520674
0.01248598196479,0.0530219435105916,0.00108314855916466,0.00461413668730021
0.00214018581373818,0.0394731956009162,-0.00050787032863531,0.00552618043599714
-0.0204943607444774,0.0226068039917181,-0.000550113903872131,0.00439562375627301
-0.0329965126884876,0.00656628629681485,-0.00257090035223367,0.00224158035119663
-0.0303278845163803,-0.00342275709903983,-0.00638396305987757,-0.000253035531282215
-0.0222788765290221,-0.00574000787705944,-0.00825033523239366,-0.00264351143887558
-0.0144430450052899,-0.00415862802145147,-0.00781488239556285,-0.00429387038204306
-0.00931059834936792,-0.00262981373772565,-0.00729552003095033,-0.004499112484401
-0.00780219856947392,-0.00211511256606075,-0.00553487438110629,-0.00289007315615524
-0.00306441170543505,0.00343670710958339,-0.00335204494377253,0.000396085459018096
0.0114404334641899,0.0143273258514171,-0.00276448837709539,0.00405400338490408
0.0284154633031239,0.0220998153664725,-0.000716889357986365,0.00617751991410222
0.0335671475146332,0.0184907368003465,0.00262235013242032,0.00596737892826296
0.0237008108646246,0.00157559037384282,0.00392803869685522,0.00381052928516501
0.0107250135436039,-0.0163426033853378,0.00557438083948628,0.000719340858773606
-0.00544557891012689,-0.0223560169200523,0.00657205815825716,-0.00198923420739543
-0.0283223164474925,-0.0200241366224709,0.00177559774986875,-0.0036718254026254
-0.0462268440668822,-0.0203549160116582,-0.00734780804829497,-0.00445803737155441
-0.0559634128300407,-0.0209846560931128,-0.0134304086670426,-0.00446963966252631
-0.0629571818964753,-0.0156028803145544,-0.0104363302675037,-0.0035361105177448
-0.0643719493917356,-0.00746965324356699,-0.0021995068894381,-0.000531262457010435
-0.0552743695087509,0.0068654080919443,0.00440194099053437,0.0056040271118381
-0.0380846358796337,0.0278541724146142,0.00729799178508133,0.0128061304986365
-0.0123836923627073,0.0447148695275288,0.00640293879508914,0.0162360576527576
0.0228566970178146,0.0613353002313885,0.0061203781585636,0.0125518756280564
0.0536531115902054,0.078539995852067,0.0102624993391084,0.00329246732135154
0.0640830866693761,0.0746436895612935,0.0140307121092076,-0.00627609691631979
0.0574773446368101,0.038685219884662,0.00979832811033559,-0.0118679021563785
0.0452232173566574,-0.00805357578923102,0.00020673273066037,-0.0130027819653173
0.0258759482469603,-0.0359943729059934,-0.00675607823949444,-0.0118355577308755
0.000980718010094597,-0.0372293806212836,-0.00804350638183556,-0.0100618606776602
-0.01276380218185,-0.0259591113472167,-0.00656425299915187,-0.00726914220045299
-0.0119244766348749,-0.0161695016839903,-0.00545737974163392,-0.00312618006310434
-0.00695896935399188,-0.0126240805187213,-0.00444611221793064,0.00127505484288017
-0.00182201661744008,-0.0113754709834647,-0.00358595205799985,0.0050424473580038
0.00121472134442258,-0.00488946423742823,-0.00235017797606155,0.00809681221630958
0.00114948047434704,0.00414346273078775,-0.000163042523600897,0.0106354821533526
0.00122793059662452,0.00759734334720126,0.0017242153056387,0.0117437090914298
0.00178155728746577,0.00779687749098208,0.00282703018412534,0.0097264910536861
0.00262021413906548,0.00967812331191886,0.000999068687093155,0.00443031263843974
0.000867830639138707,0.0103139447851626,-0.00153872630705578,-0.00304742988043515
-0.011457914424188,0.00601554269788744,0.000811117541488295,-0.0103810472232094
-0.0282616151838442,0.000245613163936014,0.0048949965756227,-0.013815922640183
-0.0286876897150468,0.000281043107661328,0.00735963412148639,-0.0119674651573098
-0.0115870929743376,0.00466076355121529,0.00889271421653339,-0.00721339112008055
0.00331799740842472,0.008698175363613,0.00971328708214356,-0.00222989880669527
0.00944617558054464,0.00953607677283143,0.00974426643211982,0.00185595567927216
0.0130406344099963,0.00646732521571338,0.00956213587769155,0.00448553474312735
0.0168637793873769,0.00267006554867884,0.00895624530799127,0.00510371315533846
0.0198675874777243,-0.00219364985168194,0.00550759531242544,0.00401694716562379
0.0195121894366997,-0.0101234945230363,0.000426769262505273,0.0021606202466312
0.0173277675906169,-0.0148258403524751,-0.000886361342160094,2.00295982845169e-05
0.0182694331811012,-0.0115106163245437,-0.000894531407806508,-0.00179374479998843
0.0197177784294165,-0.00436722316237267,-0.00316098960327112,-0.00248285104940716
0.0177271566285661,0.00187985734033426,-0.00430935172448803,-0.00241009905585976
0.0123967815408991,0.00734153192452121,-0.00201211029735263,-0.00275461171245652
0.0051060467372743,0.0101426695840388,0.00219636047783309,-0.00317999145024051
-0.00169404517520428,0.00707520258822116,0.00449506390294975,-0.00153627884253835
-0.00554269673276013,0.00164920035683579,0.00303817670366984,0.00234795314001223
-0.00660264339123661,-0.0029947401055654,0.000994413457633496,0.00534555018621039
-0.00567862241184172,-0.00620407464043758,0.000124195766793,0.00497067656172088
-0.00258658134828833,-0.0058430786845126,-0.000637184093233379,0.00177135998022472
-0.000920016971208854,-0.0040668006318628,0.000428218674895275,-0.00167949630336516
-0.00276003200476641,-0.00663986897901471,0.00395593243675531,-0.00262440295657093
-0.00747981444846097,-0.0125289922711765,0.00716172825070258,-0.000366987371194952
-0.0174290151966612,-0.0165042097957127,0.00860732275638711,0.0031001568778217
-0.0262244406258257,-0.0173494331670155,0.00693807923678117,0.00540567242367856
-0.0230034614197728,-0.0220311572030521,-9.94729331783217e-05,0.00543055759636744
-0.0141982766244512,-0.0328012692998204,-0.00845277327038582,0.00237275194581254
-0.0107407533185768,-0.0405926018355927,-0.0133298716389175,-0.00351365910867662
-0.0129401902255515,-0.0395451169285994,-0.0134139769686161,-0.00892878641185132
-0.0145957746823718,-0.0307783768021681,-0.00893630409297921,-0.00981802642119008
-0.013192975310598,-0.0194557700439058,-0.00529484176587572,-0.00580828728559836
-0.0116019136224255,-0.0126087659152601,-0.00782158746654409,-0.000349553094688919
-0.011190386970839,-0.014273339154734,-0.0130854322217502,0.00296985524283593
-0.012326759570195,-0.0207500568353122,-0.0148739531196624,0.00321166251240305
-0.0120476871409018,-0.0227681746643462,-0.0133752315909594,0.001947148372438
-0.00702771299264331,-0.0124949495733098,-0.0111275881858807,0.000966460741409096
-0.000624533228697575,0.0144723727769695,-0.00743593771578683,0.00128111000258359
0.00357251315461775,0.0382821205608719,-0.00326533418970789,0.00373461135865765
0.00331818626049012,0.0290314256548415,-0.000785295814807144,0.00763885508174254
-0.00572278900723952,-0.00213330937978468,-0.0025829539704069,0.00996680191795481
-0.0217880266139801,-0.0242466826399956,-0.00744681368474264,0.00827995652989713
-0.0311064352516446,-0.0272373514356601,-0.00914061488391591,0.00343589921768594
-0.0220820350715252,-0.0179959078542775,-0.00894641497922271,-0.00156706685009202
-0.00637179583017235,-0.00758943498127412,-0.0106418982587999,-0.00489842689851063
-0.00560652710915104,-0.00551725689318555,-0.0129909759352819,-0.00650739981137729
-0.0172443934053854,-0.011074701171067,-0.0131907785138496,-0.00650151605887627
-0.0212639459225543,-0.0118138854103403,-0.0135167458692622,-0.00522305098753871
-0.0140028976740947,-0.00474468684041303,-0.0156864945386048,-0.00334888994335078
-0.00762137738050316,0.00188438244177905,-0.0155924073763622,-0.00156487689779429
-0.00886978678644389,0.00262143990993796,-0.0129621241439443,-0.00102754588725336
-0.0113985268940741,-0.00490147361698455,-0.0122154879369161,-0.00267453192539581
-0.00793379234209691,-0.0172455557230311,-0.0146963597966333,-0.00562535517792148
-0.00314759475012557,-0.0320161824486324,-0.0182695808072667,-0.00701919745506831
-0.00135149612697408,-0.0471205244764996,-0.0220551510525414,-0.00492478266641657
-0.000678195564369848,-0.0572628187712381,-0.0229411945050416,-0.000889094571916511
-0.00424151228437178,-0.0594958369004017,-0.0183589244604343,0.0025654907498585
-0.0148347670228713,-0.0554623295367375,-0.0128169942937804,0.00503557775724707
-0.0257981783274723,-0.0500734269599435,-0.0117109265008697,0.00665764399270789
-0.0296054589404071,-0.0417936590274688,-0.0124035629530565,0.0066125505228513
-0.0245986887260692,-0.0310771082126525,-0.00928822060012375,0.00488463424739161
-0.0174763851805018,-0.0276602896437662,-0.00382709965727208,0.00244603002686565
-0.0171459371352855,-0.0281531342938406,-0.000934022189194927,-8.56065408834632e-06
-0.0204625807592811,-0.0163364242691239,-0.00208401278281013,-0.00191215877541471
-0.0161929006508651,0.0158704117435766,-0.00294150459421249,-0.00253631915005019
-0.00194969448190044,0.0660887888213883,0.00138645427462008,-0.00185553459349352
0.0108130142672041,0.103461762171144,0.0063191318927069,-0.000965753647101202
0.0162227942229664,0.103165074426418,0.00716402915165616,-0.00068458851907422
0.0181226650951083,0.0830693839422787,0.00593052919624189,-0.000846604135507799
0.0182167328720136,0.0515453923249894,0.00330348841677748,-0.00100209531504955
0.0178339723754334,0.0109891111233038,0.000474270633546348,-0.000922120690153526
0.0122733429022324,-0.0137779030475619,-0.00124064462269786,-0.000470763737295043
-0.00426819079208453,-0.0104445179262338,-0.00168576114831815,0.000653066324575323
-0.0209050846359192,0.000777724147594208,-0.00236074835043432,0.002217983879235
-0.0218104132330567,0.00017785190267651,-0.00354820984959972,0.00301690312577391
-0.00712497105437269,-0.00645539071088924,-0.00259151850457283,0.0023754440337682
0.00797401915313114,-0.00752987754326877,-0.000237466791953131,0.00113827575827945
0.0131991079530349,-0.00216309088841237,0.000667286830937819,0.000281229424772024
0.0100493817984017,0.002196101449457,-0.0001857537521118,-0.000282101326848032
0.00186185006599938,-0.000756289179832927,0.000772661587298646,-0.0010026273221167
-0.00234816660799494,-0.010557123682339,0.00354177632466273,-0.00185990493764126
0.0037475984694103,-0.0188846714070003,0.00541524896994137,-0.00252927894843064
0.0119604667127663,-0.0179401738400418,0.00866903523505373,-0.00240127142450175
0.0103352316987444,-0.013615342031665,0.0136256083221798,-0.000612873680386714
0.000493598249287997,-0.00911733785297933,0.0170006672707635,0.00267769442525457
-0.00154517065061201,0.00229976550220234,0.0161775308551325,0.00613432881198394
0.00722379142407548,0.0166445253100317,0.0103372930833764,0.00880336749251562
0.0166152723800946,0.0254067246794164,0.00288159856715765,0.0106016557849969
0.0250889756974968,0.0324672255633467,-0.000889441072599787,0.0118558017683498
0.0303765900066264,0.0442374802234496,1.78561183210384e-05,0.011989029946353
0.0287784708420732,0.0567079522220151,0.00262778041635614,0.00865576249463459
0.0229877988333658,0.0592576151247837,0.00388954037934331,0.000866732008562918
0.0147592128896872,0.0507758094651871,0.00453765740177463,-0.00836604657465277
0.0103804802729077,0.0436971089589649,0.00873356607869608,-0.0149143764857545
0.0156527516195665,0.0433217339038419,0.0134099491854861,-0.0166819008063004
0.0234168444263078,0.0444874069471748,0.0134442854545793,-0.0137875242408765
0.023994314908757,0.0434363923097601,0.0124251233639047,-0.00702162530742422
0.0113028094642779,0.0321334867334384,0.0106013041312169,0.00220924855307397
-0.00736357515007363,0.0104312117529712,0.0066706830898309,0.0100800952464709
-0.0143965902983105,-0.00350493298851074,0.00616323219815125,0.0126581405869457
-0.00966183377557153,-0.00364668235344403,0.0092693839164921,0.0106787646365939
-0.003027882693287,3.20616340826769e-05,0.0112338988570248,0.00777872297207234
0.00475231175935593,0.00221823832231026,0.0104898408605275,0.00450910844003235
0.0120685149926744,0.000967046796314164,0.00698915772002275,-0.000831951040259741
0.0161557212658704,-0.000852564451716657,0.00413443723317516,-0.00687123835080112
0.0185139795512348,-0.0010244067075933,0.00503289372646281,-0.00989549528420369
0.0179598364076768,-0.00380181541009718,0.00577166347031963,-0.00870108286119424
0.012542474539308,-0.0117234756778362,0.00155757181379351,-0.00536555458727598
0.00810919049032403,-0.0228354377341157,-0.00483789883490428,-0.00195904625147227
0.0124830196292563,-0.0289794666568586,-0.0069959695563109,0.00188398805239393
0.0208096522788409,-0.020720722424569,-0.00410256190115979,0.00694950147598171
0.0225474970573439,-0.00798000764727048,-0.000133718548100988,0.0112553612914546
0.0141502193793216,-0.00915802804987693,0.00122338987529721,0.0117732068782282
0.00091946521595837,-0.0182401297729025,0.000817314520148046,0.00767791209679688
-0.00691040751782128,-0.0173792176474205,0.00213726709375203,0.000740890716194081
-0.00643581200056462,-0.00412580920237929,0.00439582080093376,-0.00588944645041372
-0.00365006980140346,0.0120966892357821,0.00605665340893821,-0.00970082361665938
-0.00547742169758542,0.0185385621403116,0.00713919337481127,-0.00973144128717169
-0.0101044520856963,0.0107648698734776,0.00593667018915442,-0.00690535881260373
-0.00773537045337949,0.00325878632858853,0.00532064162761018,-0.00410768073934491
0.00292047660815224,-8.25461432724262e-05,0.00757746708080263,-0.00320359784924149
0.0105369157627672,-0.00988545285738057,0.00625519550862071,-0.00349366814559193
0.00801987470061718,-0.0228958444052556,0.00132298368592707,-0.00407045382605139
0.00325719250060802,-0.0330674110250066,-0.00146385040444331,-0.00472473792745814
0.002365076565583,-0.0395321781357927,-0.0020836338543863,-0.00500940760784361
0.00217720482141777,-0.0407932246943616,-0.0022603120732051,-0.00388447941555834
0.00201619157498064,-0.0371378434888275,-0.00352189823073306,-0.00102107031550245
0.00200047465725352,-0.0307628808514042,-0.00447094377005831,0.00185866734282507
-0.000152974607601391,-0.0257776809581124,-0.00491331241436998,0.0031734867441751
-0.00810046423820388,-0.0165654643449884,-0.00572313700504966,0.00368079559714515
-0.0186627428150901,0.00427447002226881,-0.00394058772896391,0.00454005006159048
-0.0233256074973233,0.0259919613199899,-0.00126523541965389,0.0051397032869016
-0.025099440302534,0.0341355246644852,0.000910305648287184,0.00422816503384129
-0.031870840447093,0.0251291826915214,0.0048530261650129,0.00177330810415366
-0.0400532259847511,0.00978324649591016,0.00721366315649863,-0.00138726376505002
-0.0409902212296931,0.00428150182546407,0.00437659830593455,-0.00440697443498753
-0.0344684239760929,0.00923072872818946,0.000794548333757703,-0.0065754043558447
-0.0267807826293189,0.0173881363816723,0.00130762411480065,-0.00717496543765188
-0.0204816375320448,0.0327735698704912,0.00276033887423479,-0.00562021430717585
-0.00876751698206349,0.058844862779826,0.000434025098815218,-0.00202600875518075
0.00419064121237071,0.0715386983936305,-0.00468680272784488,0.00236572563922783
0.00843111994095972,0.0440940452165077,-0.00749354792036854,0.00531844390482114
0.0149349494303334,-0.00401243368794643,-0.0051570529608066,0.00484873946471688
0.0222994935740954,-0.0323940389283883,0.000488323115296726,0.0011610361178829
0.0184543623083975,-0.0305816460132548,0.00577556412327028,-0.00243305134616784
0.014926876281353,-0.0268603688377512,0.00878451124618477,-0.00242991752383608
0.02189772667416,-0.0460297685428263,0.0090349984561865,0.00067254330653522
0.0297108439698282,-0.0678785292911712,0.00652025598613707,0.00312604140042322
0.026187744312725,-0.0576020535910221,0.00498414883886756,0.00263782946257789
0.0123977845287977,-0.0246509379594045,0.00444589046509502,0.000415166214788226
-0.00474996097415201,-0.0130469644787499,8.86342855937663e-05,-0.00128114931260975
-0.0193429885554799,-0.0270229437408137,-0.00510573200687145,-0.0016781492061847
-0.0256818511161688,-0.0336528026850115,-0.00611195077612015,-0.00166501159260724
-0.0288055464665352,-0.0258402641145162,-0.00569625384940295,-0.00212613763697604
-0.0334575351542952,-0.00292301129408089,-0.00432080220629563,-0.00230929489158933
-0.0286103172039183,0.0374652706736334,-0.00142838496424582,-0.00123623105925715
-0.0165744612985053,0.0750112049002558,0.000753682771077527,0.000341020384747428
-0.0103136581549377,0.103678406290487,0.0030012810247259,0.00149096869444419
-0.0041470767383822,0.120637644512191,0.00495974425240751,0.0021206659114125
0.00645049438932887,0.103873882492844,0.00810684603552198,0.00237489911340046
0.0190886837276098,0.0564893844369422,0.0115644621463033,0.00291816451069371
0.0316008657825821,0.0125897094873795,0.0107024293198923,0.0036966243114979
0.0354169383116878,-0.00389157243237849,0.00687183498158685,0.00318164443183655
0.0311780841424114,-0.00217324047522151,0.00408997861645121,0.000779429331745299
0.0312799481635533,-0.00628645103753322,0.0036620449781216,-0.00202822156678248
0.0371207045294122,-0.0225015719042719,0.00395808021945292,-0.0029785286710618
0.0361985316521132,-0.0404282380666486,0.00199494770347088,-0.00126908394331864
0.0233230557529286,-0.0499759189441413,-0.00162923912505238,0.000881391824991396
0.0105393229318171,-0.0469671986956088,-0.00441992324657744,0.00123439030042045
0.00476819561237685,-0.0332376220347415,-0.00696695656601592,0.00039123472452544
0.00196939692274065,-0.0152044388117664,-0.00782151879439948,-0.000172917474724373
0.00181853164688071,-0.00328400859343939,-0.00598334591762412,-0.000141634499457728
0.00276070829484915,-0.000281591841660525,-0.00407282900837756,-7.48384400554289e-05
0.00420267827669317,0.00255073734749281,-0.000877702594314193,-0.000119585367299887
0.00981252891318843,0.00826037262810873,0.00447635354744203,-0.000175188667854243
0.0151658790566427,0.0106250652405423,0.00821348320204478,-0.000458320924457945
0.0144871990747706,0.0088958083227415,0.00911152383592196,-0.000696182159794098
0.011813905764329,0.00880951766396523,0.00841927472986172,-0.000282145450280518
0.010482926307224,0.0133360153524577,0.00718866126644437,0.000883404813622674
0.00643800922141254,0.01927836728611,0.0058305109512098,0.00199910055455818
-0.00181190155154726,0.0183120633443988,0.0048478680537055,0.00189476703522855
-0.0104885899901497,0.00776832903322536,0.00383327484465424,0.000487325483461464
-0.013010362971212,-0.00252678231590537,0.00175679984142206,-0.00138503340068448
-0.00354289245023279,-0.00553019503056968,0.000189255164139597,-0.00317887074121604
0.00865036515622944,-0.000413933330282189,0.00169791667695731,-0.0041928523929698
0.0175163411896213,0.00688509122742905,0.00562035559837273,-0.00357684941559222
0.0266168369569534,0.00810085093036069,0.00856058189254046,-0.00173623410201144
0.0274490687789013,0.00766093664663452,0.00858069546709805,-0.000122411845087196
0.0168098604724704,0.00779853106044766,0.00726466596357728,0.000330267161762637
0.00393569054983515,0.00344322690688399,0.0065208293131923,-0.000222921832690864
-0.00792198796605213,-0.00569133234855281,0.00484637778396951,-0.00120333327104743
-0.0220738893783248,-0.0215299430821759,0.00137098313335426,-0.00204136507275428
-0.0381154797369908,-0.0417878943239877,-0.00214297634918827,-0.00217652498665655
-0.044738203390781,-0.0544775344080184,-0.00504306530485428,-0.00181462540615248
-0.0347582210726903,-0.0533626866234672,-0.00550733247540637,-0.00163548130680863
-0.0195275321756461,-0.0433089228121527,-0.00271087189275111,-0.000696668398215353
-0.0106778547336067,-0.0338184440659217,-0.000292911422688342,0.00236868637288093
-0.00867027743005083,-0.0290206759982403,-0.00059482740347227,0.00606792228003885
-0.0120780959090707,-0.0261339521586692,-0.00473680060329644,0.00726071965344027
-0.0181487261964811,-0.0177029057908567,-0.00737177181044565,0.00502086234085184
-0.0172604312265494,-0.00443687600076703,-0.00615120853375855,0.00177935671922833
-0.00608453027315314,0.0110079594040768,-0.00618335999690948,-7.0752619755074e-05
0.00640750375914649,0.0361090835420493,-0.00513528667603746,-0.000731295110717959
0.0161882559250533,0.0643344879872331,-0.000578325484684027,-0.000772161682047139
0.0231103306833742,0.0684157048553745,0.00503217110156481,-5.3912908439948e-05
0.0219186264648305,0.0371627769674215,0.00909291937178704,0.000948087208775399
0.0123105847050111,-0.00437697777448334,0.0112121973986202,0.00132036880494656
-0.00154197462429742,-0.0330704360860721,0.0111863227986136,0.00081305709406039
-0.0134305468567835,-0.0484407726770158,0.00692255266831847,4.48963957892425e-05
-0.0170919431939652,-0.050631044931023,0.00150328468188202,-0.000721102637626566
-0.0140527808497673,-0.0410036899766118,-0.00184296897101618,-0.00190263883382447
-0.00835493581505304,-0.0272389232333729,-0.00265745451758473,-0.00307113052455185
-0.00345814968114933,-0.0122761580811551,0.000462705492792146,-0.00294478275309844
-0.00324616090213124,0.00142229842541574,0.0047990426415411,-0.00100234432181658
-0.00371899547406036,0.00878316448185978,0.00536815752417191,0.00221056218809128
0.00117791122307502,0.00824017526237612,0.00254206983785944,0.00559860084949175
0.00508554213713845,0.00362587799397543,0.000218243259491983,0.00760617337065814
0.00108674899509366,-0.000181392373237364,-0.00208544640271302,0.00705860778314626
-0.00544378897282628,-0.00164836194537877,-0.0043337642526725,0.00465548981646147
-0.00548896485545033,-0.00267827024538105,-0.00595400459550814,0.00276812128760634
-0.00149357690063243,-0.00297023005908835,-0.00828120570584521,0.00226398689338769
-0.00145776703682519,-0.000349649814520217,-0.0117178681499885,0.001011946778308
-0.00575890636881789,0.00199082709995682,-0.0141725719434396,-0.00241707535695115
-0.00844358809443883,-9.03685542921772e-06,-0.012973850099624,-0.00668132711995798
-0.00276581802140759,-0.00821607218598794,-0.00935834264598847,-0.0094189238292052
0.00786281451488244,-0.0245208408215112,-0.00616344835806938,-0.00902584088398042
0.0143914546213932,-0.0397907581061277,-0.00556724379004924,-0.00578328477397637
0.017157527106044,-0.0407294520627562,-0.00914835143971109,-0.00150714708144408
0.0185219734541597,-0.0244395392593379,-0.0151327369861866,0.00199841794820474
0.0191235473484326,-0.00335063804167562,-0.0180659309137737,0.00433501206263684
0.0204627907112708,-0.000161659352521659,-0.0145954858839561,0.00605815785117461
0.0207465865003727,-0.00839154108558939,-0.00663444505635418,0.00712994153164307
0.0193815964506786,-0.00249220924613832,-7.76314503285781e-05,0.00680542870632295
0.0163137184280368,0.0181282309353625,0.00230096115250738,0.00472222536544521
0.00568128102782091,0.0348012963104416,0.00453238226600725,0.00177006319367957
-0.00978890821957404,0.0424621619482981,0.00718049665127396,-0.000618200025286616
-0.0153774170715085,0.0487844206752655,0.00636869411462519,-0.00228019884668777
-0.0103260249118521,0.0407292124708539,0.0028033244057669,-0.00378384808250455
-0.00544345555587238,0.0114883914888948,0.000206135061715891,-0.00461615135125527
-0.00204288919808492,-0.0140622217774316,-0.000717792453122514,-0.00382736909450362
0.00288672693523088,-0.0182267312863737,-0.0043526647036788,-0.00194886825439946
0.00629227163432514,-0.0092118974614148,-0.00854183669242716,-0.00107348704258044
0.00535561043680508,-0.00522147885179166,-0.00588929527319777,-0.00206194095840496
0.00829561219615522,-0.0132653595386682,0.000892613317908243,-0.00313258176173133
0.0222776902977941,-0.0210989735149475,0.00603345268204803,-0.00270532075543595
0.0362354598995389,-0.013455983352815,0.0074009453416123,-0.00136980844537222
0.0367411274693816,0.0081082247863738,0.00268618232119866,-0.000537744505122011
0.0267194511743171,0.0204255427609836,-0.0058979695858614,-0.00105793894750094
0.0128896177017103,0.00738353279764439,-0.0101932080930898,-0.00249410026794422
-0.00476962245703929,-0.0111580622156923,-0.00642653956086607,-0.00289846658610011
-0.0195074346036318,-0.0137812908236017,-0.00117099351400212,-0.000763191383058642
-0.0183931764122625,-0.00585106025846063,-0.000714435579725902,0.00251783242596158
-0.00514564663750949,0.00620585241884317,-0.00207306272873212,0.00432883601961671
0.00330346265175878,0.0237854059997436,-0.00212431485470624,0.0041809783485008
0.00451151662430391,0.0365178775120656,-0.00304026104300292,0.00249888825613493
0.00237183781261419,0.0337342154993001,-0.00584634335708641,-0.000977272526690851
-0.00389787541141841,0.0255296293389171,-0.00681473552604832,-0.00529789026499196
-0.00825544828474169,0.0226576870568209,-0.00289870830642436,-0.00777139317156213
-0.00653577088027775,0.0243373874005717,0.000926391019060182,-0.0062032096410223
-0.00241252981726995,0.0294102205818222,-5.08257255359859e-05,-0.00115120844329131
0.00037552852615891,0.0351258178494697,-0.00296752974868164,0.00454701713344568
-0.00202186975136594,0.034194914838162,-0.00369281495416351,0.00828823664923735
-0.00621051747222306,0.0229024358316844,-0.00240710113982383,0.00931062341465273
-0.00373413403558037,0.010157653931465,-0.000218221168675306,0.00826800829853805
-0.00162752992873552,0.0052596103322239,0.00355892505642781,0.00588579983527297
-0.0149214653539208,0.00148429683174536,0.00589893870627602,0.00271428858448581
-0.0377460128759976,-0.00705307956446794,0.00500101380371545,-0.00057829799198313
-0.0489755435705446,-0.013208896921358,0.00376745338800411,-0.00343682039930649
-0.0416581160151475,-0.0142765405557315,0.00220986089347467,-0.00544875547318768
-0.0263581688199892,-0.0174616854032807,-0.00139844484204701,-0.00636635668534817
-0.0163792475305115,-0.0178097299402388,-0.00546190034326147,-0.00639665159018841
-0.013578450377798,-0.00209624004573537,-0.00753758276423482,-0.00537632148234678
-0.00982425226182811,0.0235188820571549,-0.00800402444716913,-0.00211806090348444
-0.00298755675295961,0.0432101964184208,-0.00803217367586941,0.00357472870344686
0.00790203045753818,0.0542843431999904,-0.00556417710221761,0.00866132065818014
0.024243530163103,0.0598022543294567,-0.000620290813284708,0.00944701397563478
0.0236143028101708,0.0547887394956333,0.000613631415707449,0.0059618620221697
-0.00249025447073748,0.0289182566885269,-0.00359377792258877,0.000739019834320627
-0.0190484851697892,-0.010271020475282,-0.00697406284009626,-0.00398686174019121
-0.0181406881132525,-0.029075423655995,-0.00463939023585422,-0.00654885108310439
-0.0204602395810886,-0.0210265783806874,-0.000319419755659389,-0.00616894324794887
-0.0213832554399593,-0.0177550544508533,6.25660330664081e-05,-0.00340881473712
-0.0172315250956727,-0.0254998822329931,-0.000364092565208456,0.000132430483334088
-0.0209260925362176,-0.0281123493382318,0.000928115866065946,0.00341500009390293
-0.0319110814955661,-0.0262419642801823,0.000238272074280044,0.00626939557627505
-0.0386313326193844,-0.0267296027472194,-0.0032108680695434,0.00769891395768484
-0.034409945265733,-0.0254835787388809,-0.00579435352495679,0.0063567711874661
-0.0184060170719314,-0.0139082071256288,-0.00423892356102408,0.0024242773975717
0.000982994933520297,0.00873911812808432,0.000241863474240717,-0.00221713067667977
0.010536420660882,0.0273800456295662,0.00469969476438349,-0.0047542689302762
0.0115794895257798,0.0231410832747979,0.00792880058800724,-0.00372626872280447
0.0178127577238633,0.00116125770043984,0.00942907578324957,-0.00125757773196538
0.0233250081768655,-0.0156165231291841,0.00939719792495832,-0.00135205065361979
0.0168578586614625,-0.0207703765915643,0.00840649131206997,-0.00513420876720279
0.00520453270749757,-0.0223786810877781,0.00584344178853517,-0.00913974646200047
-0.0102216475257261,-0.0251385052384614,0.00128093191195802,-0.00955270735810365
-0.0313053995407996,-0.0313543679556616,-0.00218607029467049,-0.00641622850258192
-0.0452617232398352,-0.0367656449007004,-0.00242163281856635,-0.00263818918636936
-0.0395043801699812,-0.0323821565952517,-0.000472646785743363,-0.000661132122078689
-0.0194347334663128,-0.018922796565479,0.00194594448615613,-0.000869880542060633
0.00040883540396007,-0.0109615701946658,0.00232506160999686,-0.00192986903908477
0.0113964764748097,-0.017336966042407,0.00363562212617758,-0.00242960739790023
0.0178751613552834,-0.0287258764644535,0.00747760618264419,-0.00155538004924684
0.0284326104991948,-0.0300397900318163,0.0100568848645957,0.00107487196653116
0.0387951056977449,-0.0198540740540845,0.0120564626044096,0.00527104781875048
0.0394280490755338,-0.011366594795721,0.0143640219869527,0.00986745974799566
0.0321729068240668,-0.00595185143422216,0.0133817641697601,0.0132545684164283
0.0269126976787941,0.0178321065097724,0.010490836401429,0.0143611519036644
0.0285683167260487,0.0521587196522341,0.00956043863721679,0.0113521529552147
0.029463551514713,0.0549643470519716,0.00871890028687055,0.00298557875849029
0.0230119872707303,0.0278899458488386,0.0100334010432918,-0.00760216453299234
0.0166339936321795,0.00371993649067647,0.0141344261083818,-0.0149173102472738
0.0166130823589201,-0.00882019149488668,0.0143703515955174,-0.0164437894910789
0.0165166107912955,-0.014977943296887,0.00924385461787597,-0.0139778440782809
0.00782127384723798,-0.0165967414191349,0.00333786611861984,-0.0105754686384259
-0.00353223446750473,-0.0140316134499499,-5.9023950679948e-05,-0.00763393801269032
-0.00346788639912077,-0.00862720790989783,-0.0013497262713361,-0.00547251857494884
0.00509650850495988,-0.00172628450276571,-0.000383262357961028,-0.00364247232857965
0.00657327277141226,0.00540194352391762,0.00292462484397879,0.000392565652005501
-0.000180275869989879,0.00756645029890377,0.00692261076402425,0.0078997159711916
-0.00401366518464927,-9.541311139908e-05,0.00861203807437606,0.0146619767299638
-0.00282932089178074,-0.0110846450706703,0.00662431106512075,0.0152819479707135
0.00164071655819892,-0.01818015727253,0.00363722409760255,0.0100432987150599
0.00853105032387223,-0.0257300601951217,5.78943847985521e-05,0.00370395666561303
0.0105185211766748,-0.0330366782847957,-0.00377572724046442,-0.000426417850890964
0.00855574716041418,-0.0317059404771484,-0.00588219013205292,-0.00251155917001557
0.0115680096380559,-0.0230469517191779,-0.00756967030627713,-0.00398919838886226
0.0170375855723591,-0.0128606496448023,-0.00924593154072188,-0.00532695872134956
0.0182921194775769,-0.00355322790660883,-0.00804288577878375,-0.00588262723013037
0.0154383028138882,0.00396769332286077,-0.00422917962498163,-0.00492549207085555
0.00994962560884767,0.0112058947734231,-5.18013545783499e-05,-0.00227329749727327
0.00406294604439888,0.0201019625966505,0.00537921220028203,0.00186524129558768
-0.00067542741798485,0.0303813445794544,0.0111229051769245,0.00665861315629058
-0.00381362780495276,0.048963640747347,0.0119259264406654,0.0103410289613163
-0.00271781790774866,0.073558653395683,0.00839138493994593,0.0111604942632905
2.65207840484446e-05,0.0758489532493932,0.00532930260791068,0.00867689227415287
-0.000910722260628324,0.0469573272581176,0.00171479287016234,0.00430314053710078
-0.00529217952738475,0.0128318361861263,-0.00282867815897634,2.54904844560044e-05
-0.0107276692757487,-0.00950139612454867,-0.0071944517050414,-0.00289838315926657
-0.0140623030455579,-0.0245473170944493,-0.0111371274820544,-0.00398532245316045
-0.0143641619309667,-0.0338431391609398,-0.0111126364284165,-0.00368242372767615
-0.0120522275447081,-0.0326189254237808,-0.00620226743625816,-0.00268725681452424
-0.00833867404400172,-0.0260464648748695,-0.00171980903198627,-0.00185114069207977
-0.00746947134980542,-0.0251793036067422,-0.00133842772635134,-0.00256663735241479
-0.0103689818183242,-0.0318590447854515,-0.00469221172716863,-0.00447163799982384
-0.0141292210648313,-0.0366298005470715,-0.00897737105498433,-0.00509717955876944
-0.0138235140733787,-0.0298485267767216,-0.0104816986200083,-0.00330398934446047
-0.0086062859160204,-0.00807806562856162,-0.00942055313101701,-0.000237806774780067
-0.00476665276824089,0.016745938600605,-0.0067960144157469,0.00248668801822508
-0.00313320002710194,0.027641661486853,-0.00222411779278759,0.00405587700307096
-0.00105386082616211,0.0286487493752619,0.0032042543711129,0.00457282349688619
-0.000344774562301811,0.0283612568464795,0.00772798144840393,0.00461743420717882
0.00232062658511396,0.0275131044255432,0.0102225963792554,0.00520303451370567
0.0141810886190488,0.0264990564316001,0.00999982953890353,0.00643883259503244
0.0247893333649784,0.023728791192378,0.0101326084144911,0.00644281962619569
0.0147619640695562,0.0160292695367774,0.0123307815669754,0.00410289456091901
-0.0106905545106039,0.00411041694072992,0.0128074999617248,0.000553219719996064
-0.0306441895885634,-0.00269468919332472,0.0102755133835887,-0.00301509748550951
-0.037526578268878,-0.00024539014568822,0.00586958981849708,-0.00646528431664717
-0.039597203541476,0.001652523047125,0.00373484935323643,-0.00957635756324701
-0.0400729781437533,-0.0027708379750943,0.00529674820417632,-0.0107212442557365
-0.0317162506810863,-0.00376070156041524,0.00716334278781425,-0.00849363703114653
-0.0171684750218675,0.00508797531321901,0.00930526607023267,-0.00353504729421623
-0.0040119737273411,0.0158714369086987,0.0105980599776314,0.00262783804993562
0.00566534229500789,0.0200902182190163,0.0081500122256544,0.00797970260750297
0.010283307265465,0.0146767840917504,0.00178865843318728,0.0102931739279481
0.0107227262790073,0.00767111553544549,-0.002480379260375,0.00859902272433273
0.0142929373949547,0.00968221661964727,-0.000541356980337896,0.00408562610571819
0.0243645036655314,0.0138686843821787,0.00209247920439169,-0.000517713018809483
0.0284612468693841,0.0147412561015432,0.0032601919255741,-0.00303953691306428
0.0187234910847369,0.0163976433192937,0.00408977521898696,-0.00321276196962282
0.00370606067517614,0.0082031932526819,0.00142028490956394,-0.00212388214438345
-0.00596015216414775,-0.0147933311921793,-0.00403054337501345,-0.0011612625368291
-0.00608648612421433,-0.030392681172547,-0.00497711250406434,-0.00126065099691797
-0.0025141053018221,-0.0284285563306729,-0.000517874645306638,-0.002298807177527
-0.00352269928016435,-0.0218120771518752,0.00115684271808942,-0.00314459909618868
-0.00803069970601864,-0.0163088150300663,-0.00334899061029502,-0.00276545916937745
-0.01184899451156,-0.00928168693820813,-0.0094183951538871,-0.00138137257596182
-0.0142588907483755,-0.00108510387803798,-0.0123102953926992,-9.40415544205112e-05
-0.0135202713158603,0.00805585887413504,-0.011322951478431,-0.000126268047723188
-0.00870389760190802,0.0104021991588107,-0.0057847765531006,-0.00168003713635549
-0.00308963593941473,-0.00554913249568438,0.00444300472620097,-0.00298302941648626
-0.00144814695521223,-0.0221574093540975,0.0092347023700274,-0.00196020715008146
-0.00311117659575242,-0.00613546549144259,0.004187559497154,0.000979884965081387
-0.000926454698691385,0.0339386862207125,0.000293893230887094,0.00309911510155026
0.00610054747543999,0.049123681841757,0.00276658662404248,0.00338907713959553
0.011607613405384,0.0223818745538502,0.00638734220775689,0.00364297117002697
0.0162398520233669,-0.00961899611164631,0.00707553074991439,0.00440683854496583
0.0209727639291852,-0.0176587554362452,0.0073430295055104,0.00380215821960435
0.0201276213082293,-0.0139580398197617,0.00646161582731269,0.000918977672324248
0.0126807037279963,-0.0151922951561833,0.0034688345048209,-0.00222437789209876
0.0047176679907958,-0.0150076331412596,0.00181524205521643,-0.0030796524370798
0.000169826835270295,-0.0086415248364638,-0.00122628511268097,-0.00164816633321126
-0.00726756843398661,-0.00609532552236417,-0.00687181754957865,-0.000219788659947826
-0.0219534723913382,-0.00307026037275452,-0.0102733837232706,-0.000178135116465054
-0.0328810368197447,0.0130690811536069,-0.0104625374114233,-0.000642733580466705
-0.0389407818321675,0.025702075834639,-0.00889311806763629,-0.000721477982874314
-0.045706901711448,0.0124717768911564,-0.00585900416872283,-0.000347521228956792
-0.0408260184778044,-0.0134396465319476,-0.00524368184346098,0.000260859022869387
-0.0220841011288761,-0.0258939046389789,-0.00601986608002956,0.000627743035863387
-0.00292804952952028,-0.022960072593245,-0.00367430408292375,0.000568143684977014
0.00948452325205687,-0.0139826779439523,-0.00157312603014086,-0.000266390367074072
0.0180348793347953,-0.00642190210191087,-0.000694877172393777,-0.00212051884071269
0.0292652464829596,-0.0049511033105236,-0.000548409006588103,-0.00377309506971248
0.0390658365456058,-0.00621268268939668,-0.00300394102317912,-0.00380804287615347
0.0396682405473541,-0.01085473697219,-0.00681361106386282,-0.00268814241801407
0.0353035030082365,-0.0204159700398048,-0.00809183359642292,-0.00226449764751222
0.0270793968576282,-0.0295333511836712,-0.00400835746722939,-0.00273220435651305
6.49220255128508e-05,-0.0439165348979532,0.0028742917827841,-0.0015400477153001
-0.0452653189859691,-0.0659786002986249,0.00844395643145666,0.00296525168471446
-0.0720137764313241,-0.0748781270096139,0.00824908236268197,0.00866842038337248
-0.0606899834444437,-0.0641001887415774,0.00221900265216132,0.0112749775510707
-0.0388192870255466,-0.048651402994175,-0.000578588210023601,0.00798484663725348
-0.0283869646349793,-0.0300736371588916,0.00384273568798594,0.000683476880739954
-0.0237149014783752,-0.00837738730135734,0.00952840544009992,-0.00541783189771376
-0.0176377106243759,0.00767116431162056,0.0101616988530187,-0.00736797875945505
-0.00390921347148924,0.030245341130608,0.00732922367046269,-0.00622294229570225
0.0212375688564911,0.0657057255390385,0.00874933982953003,-0.00387251241786543
0.043406360939526,0.0780923069347212,0.0111626280765817,-0.00113251598547844
0.0455033376639667,0.0609792622279221,0.00788516545745232,0.00141065384031708
0.035141411930861,0.05668874378547,0.00443784520341332,0.00322788800275119
0.0277973626538781,0.0622361876230132,0.00397375452016933,0.00460986265498158
