-0.0475830055606696,0.0162456653455469,0.0147103004759261,-0.000541784403868878
-0.038573592699778,0.00563924704551849,0.0125010220273868,-0.00077569160476744
-0.0320715950851539,-0.00398004029197709,0.00872851919275607,-0.000428826347494943
-0.0257962082609438,-0.0169391254125818,0.00039112399566802,-0.000178821009374744
-0.0144847901654495,-0.0300371320764603,-0.0159480356176131,9.42308592125082e-05
-0.00227336235194823,-0.0332828826376775,-0.0309048510051521,0.0011396087639804
0.00841955506036002,-0.0285057823497166,-0.0296589213349727,0.00289237729042577
0.0211172969129747,-0.018941297682211,-0.0120120245066281,0.0037962232350187
0.0353659381770966,-0.0046543063447239,0.00252393520826508,0.0016924477332081
0.0459649257284415,0.000675896304759546,-5.51425933263093e-05,-0.00299021074544225
0.0508625404082771,-0.0129712633846275,-0.00931146510903764,-0.00605934151265098
0.0453780346200893,-0.0321529538783753,-0.00877637145927432,-0.00441094182812482
0.0274619557500107,-0.0287648770854344,0.00600425005540212,-0.000307695628661614
0.00665114436573238,-0.00478664107012282,0.0212681098339581,0.00131061521795562
-0.00905623180250426,0.00446847150273708,0.0220803307001577,-0.00078781621028555
-0.0163965275050373,-0.00621918561419342,0.0133057499314596,-0.00299840704120995
-0.0161079516118181,-0.0148763071862787,0.00480636882566449,-0.00256168639763616
-0.0146910447631948,-0.0122314291572455,-0.00217030678218574,-0.000433918060817584
-0.0153825918473007,-0.00540819823481382,-0.00824937215970309,0.00164367388380328
-0.0160463171443712,-0.00388089621041653,-0.0131034622583073,0.00302745800471478
-0.0158684296708366,-0.00544511074482582,-0.0140621375926677,0.00343219348300142
-0.016656918174706,-0.00771734708063228,-0.0130755903717755,0.00289881459208595
-0.0137012998623187,-0.00985908348517014,-0.0116965697754962,0.00216111633890353
-0.00117941284347528,-0.00626165266500735,-0.00320341709498166,0.000964760747045212
0.0122386813345843,0.000407453149102312,0.00497564686384316,-0.00209016015556159
0.0170529251176136,0.00405290448225907,0.00299704081222324,-0.00589591629456498
0.0174596459087992,0.00603260584350456,-0.00114496230582954,-0.00728402781057083
0.0196021881520378,0.0070145970855759,-0.00128479877004746,-0.00557218331460774
0.0205645968508308,0.00638041963299827,0.000183955671455414,-0.00280024426081383
0.0166559829791543,0.00607514034716251,0.000771077108750337,-0.000745261222970459
0.00840123211021549,0.00759096508449234,9.96089601799097e-05,0.000547928809420554
6.12935713617639e-05,0.0133806189755707,-0.000340967299533229,0.00212976270352263
0.00365723589339468,0.0177162886561119,-0.000671341376507466,0.00406436636918098
0.017800627477683,0.0124136066946236,-0.000491289698070144,0.00483238418053873
0.0216773072294369,0.00460351814638251,0.00198560443478507,0.00339504414604675
0.013110096429277,0.0026059198016549,0.00413565337254779,0.000472533504116181
0.00287139880366276,0.00609300168037166,0.00326710167762387,-0.00214460375995307
-0.00896488772841359,0.00713383795460583,0.000457863389300615,-0.00324243391371889
-0.0139433917575563,0.0023043546703099,-0.00249751350266749,-0.00333492346259335
-0.00261291319617206,0.00168753146109647,-0.00477301154922303,-0.00346781873441028
0.012508284723154,0.00328770426000113,-0.00585677515852052,-0.00360090353711711
0.0179536825467639,0.00172093704245437,-0.00268891888548442,-0.00310534552167299
0.0175127320691498,0.00631768518295659,0.00434340309630697,-0.0021881622531995
0.021141374885409,0.0104867794177253,0.00683365492417759,-0.0016975728399542
0.0259854677694701,-0.00618706828813527,0.00237877612998453,-0.00147544143439365
0.0202349385130138,-0.0297355129003159,-0.00323596488692343,-0.000533116021908745
0.00785429895231264,-0.0248197409096061,-0.00671843901441449,0.0013163969044324
0.000570439253095537,0.00175841372351448,-0.00774242987509755,0.00310189866916562
-0.00071094050267469,0.0186734707238008,-0.00579089995920338,0.00339074212075938
0.00213443017438867,0.0249217409645434,0.000218559715280968,0.00135232423873328
0.0118251432076911,0.0315292855918415,0.00606713917585166,-0.00228317753474388
0.0227920483115994,0.0366496949706017,0.0067482849035679,-0.00541349823696512
0.0252400294849769,0.031105303685516,0.00210720873133978,-0.00629222871977365
0.0191736474440223,0.00720963180282943,-0.00360839364685528,-0.00455050443879568
0.00746522361091739,-0.0184819159835294,-0.00581575888628396,-0.00103537327324782
-0.00562296951584071,-0.0198079512684691,-0.00570935226846376,0.00283151753813653
-0.0149341914331753,0.00292998141589813,0.000698109015308819,0.00557925147165402
-0.0189194222317599,0.0247771652626949,0.0129285480005882,0.00521567691960337
-0.0171894237903662,0.0242358979787227,0.0169635842804148,0.00169885699262956
-0.0107890352817608,0.00760943513271748,0.00975696409368377,-0.00167143239026786
-0.00192554168461552,-0.0111464754110457,0.00311433327450498,-0.00275295767433587
0.00804996412113961,-0.0297174700716268,-0.000816893063608441,-0.00222778022462502
0.0168745315022087,-0.0368922430840859,-0.00550334119040228,-0.000815996410210917
0.0233544992702792,-0.0216987960419998,-0.00621680288470488,0.00048139282578109
0.0254214005527634,-0.00146144245875426,-0.00435440605697859,3.6514781311064e-05
0.0210239138477972,0.00344184169090748,-0.00452870622092036,-0.00171506379572525
0.0153016636880539,-0.00266538774596767,-0.00622685172293373,-0.00287923896492124
0.0114572959284968,-0.00756492406536844,-0.00760716131364076,-0.00292498500243776
0.00753451795803274,-0.00970666192448677,-0.00714576770389245,-0.00266108293545846
0.00453293799912152,-0.0128075858802906,-0.00595068923793403,-0.00250376566400173
0.00480496456034139,-0.0158748097411815,-0.00519414518608414,-0.0020125908181321
0.005997476808016,-0.0140363914145607,-0.00331554327760203,-0.00102797706000289
0.00260382494998939,-0.00722286249384867,0.000373377614358367,0.000121743093648106
-0.0040622436884298,-0.00214203024026045,0.00420858003941319,0.00120154714415935
-0.00778967784035776,-0.00123632766446335,0.010600725930042,0.00218110468751516
-0.00712824165523714,0.00102654319630647,0.0213788293541898,0.00295155182591957
-0.00479282174987371,0.0061052954031312,0.0302974677400065,0.00298863454715778
-0.0031496887131293,0.00727997117153794,0.0302322545407794,0.00203734261869715
-0.00201650594081544,0.00645802709420678,0.0227451324687721,0.000699116040357191
0.00165796126428521,0.00946173516427304,0.0176706016172882,-0.000638838761277967
0.00768519313467864,0.00902894458630671,0.0150158314806949,-0.00196137753924745
0.0128041888387898,-0.00106097043287267,0.00746405194551709,-0.00258609747092274
0.0133937696563382,-0.0113076909593719,-0.0018511176189486,-0.0018968905575897
0.00649907118463907,-0.0112508565997319,-0.00680724140047401,-0.000401088675685792
-0.00214111070778802,-0.00555491396107237,-0.00606418998778637,0.00097708695195337
-0.000460134599441286,-0.00325577916167638,-0.0034145467738654,0.00164472628653144
0.00976695304315677,-0.00640916420017986,-0.00558501854495599,0.00144392016674327
0.0144014013815281,-0.0127343468863079,-0.0139951823186964,0.00103624893207327
0.0118891011346022,-0.0181635033382149,-0.0237346540613525,0.000999451166814233
0.0064034019077853,-0.0166482125157891,-0.0265279454291208,0.00085905611127246
-0.00172211595686498,-0.0101777099103793,-0.017856854201084,0.000295757189451567
-0.00767164113840655,-0.00546721782402915,-0.00198108538866081,-0.000219906141311885
-0.00806619500532959,-0.000340596984453396,0.0150223571457785,-0.000392256968395448
-0.00893398626992278,0.00643513783029477,0.0259935997961424,-0.0004312566199285
-0.0147269603731479,0.0099938703859471,0.0230958769065254,-0.000497247577635874
-0.0176553563470611,0.0093629409213668,0.00990201986610565,-0.00040071996849011
-0.0114203475314055,0.0109244249838714,0.00623756685614336,9.53724601467051e-05
-0.00194029272129996,0.0172012625618749,0.0176506875416644,0.000477580192422281
0.00121041425605274,0.0240831383608488,0.0250555736827847,-2.28012992093912e-05
-0.00334319833891527,0.0279933348416704,0.0231325059627675,-0.00110367168654107
-0.0096170286302091,0.0281143981848742,0.0234434549748389,-0.00204449987501218
-0.0121085694837143,0.0275912611371243,0.0267947597967773,-0.00240805666522627
-0.0121343855800686,0.0261527406805729,0.0255560232614887,-0.00207688239283646
-0.0147446647917639,0.0190690573606357,0.0182539846967986,-0.0012547670003073
-0.0204367965124847,0.00641249796091039,0.00664742829396334,0.000176957482611106
-0.0317357016584413,-0.0101018209871278,-0.0065193024678469,0.00204405272781859
-0.0422931613825064,-0.0312500795388423,-0.0140963637909473,0.00341918866598925
-0.0383550372021091,-0.0537637540262986,-0.0131784889270363,0.00374694161153093
-0.0241045271500964,-0.061665705793127,-0.0101786097331554,0.00327932262698316
-0.00702367089991926,-0.0522252062038906,-0.0106081247968171,0.00227587572929052
0.00781736429732709,-0.0420615375854322,-0.0107561280899368,0.000995435480407963
0.0135031301442735,-0.0269985431686208,-0.0040636194964221,-2.8816254719552e-05
0.0134069695181696,-0.0015873783676159,0.00457212176080731,-0.000855728029850694
0.017507037694024,0.0182223379376976,0.00334222324529247,-0.00208601613331391
0.0266921493422403,0.0328160553617754,-0.00589123519527224,-0.00356567887638253
0.0336945440190269,0.0491684857173356,-0.0106531314952245,-0.00417528332551869
0.0358866810150928,0.0490335353986341,-0.00641890995935703,-0.00318140442171079
0.0273132995117643,0.0257983439379506,0.00105998530267734,-0.00104868625027074
0.00226346211075296,-0.0035214034260601,0.00396675177924567,0.00113140332726921
-0.0279934188667283,-0.0221396612962768,0.00103129186655287,0.00255573469582531
-0.0385114309898571,-0.0276325371532779,-0.00565140573784412,0.00301068059657787
-0.0231538442510755,-0.0277031248506728,-0.013102487248838,0.00271686731020499
-0.0101490993836172,-0.0162033001128953,-0.0134909873986985,0.00211259711554284
-0.0144167487914141,0.00240089509131388,-0.00666722490386276,0.00149629678054669
-0.0147170158653627,-0.00301765096036198,-0.00245509548073109,0.00131779566351973
-0.00284585192879055,-0.03100175783513,-0.00228906695607193,0.0022071171260449
0.0073273615773344,-0.0381552440124323,0.00256076285906107,0.00342337670188034
0.0116080634666688,-0.0220498909336611,0.0127435518161182,0.00266509497403292
0.0132691301065098,-0.0208290922428783,0.0177740976588792,-0.000620925149325032
0.0154317090225444,-0.0397835610535887,0.0132752607090267,-0.00382084440857015
0.0236430103141149,-0.0555169798374599,0.00596569278112141,-0.00458631032723669
0.0409901772612264,-0.0498071671878139,0.00530457405756143,-0.00313741072431676
0.0612761839234597,-0.020303274338001,0.0109194102046909,-0.00108910545917621
0.0717628328783924,0.0125411300142652,0.0131400065930253,0.000337927740855994
0.0612544802887331,0.026142179220597,0.00483173577756467,0.00144151768210186
0.0361847264292624,0.0212797653669535,-0.00997896140872517,0.00335713725297875
0.0171803752645383,0.0153966732386209,-0.0196585917691054,0.00615714267123581
0.0119540867023828,0.0289908647479812,-0.0228093202039644,0.00860962893698185
0.00963778454036496,0.0616164523076242,-0.021614996927443,0.00927302966853785
9.9751681466545e-05,0.0848518714332985,-0.014534742246557,0.00742280046205831
-0.0106274636166503,0.086268091882508,-0.00504589112436927,0.0040077100479831
-0.0169557399898988,0.0774486614723973,0.000272175732843907,0.000883701356684721
-0.0279799391988217,0.0525547977539388,-0.000351607168737247,-0.000922711616681279
-0.0345285361817358,0.00218760769541793,-0.000517448618389912,-0.00148891626775383
-0.019567230913941,-0.0442494703297191,0.00367444249703599,-0.00178569430096383
0.00117175011373186,-0.0528520945644883,0.00675589490563191,-0.00255261182840847
0.0126594749196368,-0.0380933409580478,0.00352077294584768,-0.00310794045182112
0.0215162908779525,-0.0384078599523075,-0.00509441083645802,-0.00257039657770886
0.0342609986052762,-0.0666151006698537,-0.0174597614723795,-0.00124990951305169
0.0550992703498752,-0.0983325743913612,-0.0378144925462838,0.000377522259392448
0.079914675674208,-0.0855144480123416,-0.0563552521083995,0.00291774782970396
0.0925521220106142,-0.0188685052057517,-0.0488397457267948,0.00585468920161485
0.0797285525556502,0.0456349911280349,-0.0214214614774687,0.00662810656637771
0.0475609332893268,0.069507598480589,-0.000458611339939873,0.00468297660722281
0.0184428818775857,0.0678864966448579,0.00672075700885585,0.00206215111210126
0.00214307023498801,0.0691725544844601,0.00970146863325981,0.000117758175268795
-0.00610141704781419,0.0810344474120122,0.0156746580938553,-0.00127761292112793
-0.00965759324385077,0.0879545873701662,0.0227421604706097,-0.00250550316657704
-0.00706247249707737,0.0789654786170637,0.0250617719524143,-0.00334772537777822
0.00135893366353911,0.0596240675311635,0.0192237314575448,-0.00308850648806249
0.00515224874174223,0.0345610516632577,0.00968880870023706,-0.00122636266329479
0.000205684079191432,0.00933418914209276,0.00287065768739875,0.00149935858764275
-0.0112241362778261,-0.00379937212551697,-0.000199175263520403,0.0033451549435552
-0.0275673309869205,-0.00624263850614724,-0.00252494384993727,0.003228280907325
-0.0417253586160902,-0.00704326147868497,-0.00426953802153352,0.00159628541957609
-0.0516368953954331,-0.00894225439115972,-0.00501825058593099,-0.000415951595966549
-0.0621357088802125,-0.0123308039754639,-0.0083785322564012,-0.00184828269669572
-0.0739436171443872,-0.011984376838377,-0.0150999025527926,-0.00228160872795812
-0.0813369626611094,-0.00765615731512521,-0.0241703487930994,-0.00211269821107829
-0.0739980355640141,-0.00534752220029367,-0.0328708234282754,-0.00193928146282531
-0.0440156841249488,-0.00172942290386736,-0.0362214473464636,-0.00188758617945255
-0.00383656444103227,0.00754716165229873,-0.0323169010530972,-0.0020990740895946
0.021119943152822,0.0172405643669014,-0.0224395846811999,-0.00283726151006957
0.0236472772744068,0.0194629539351787,-0.0113757874269104,-0.00349616888356836
0.0198212427580852,0.0150202980588652,-0.00178027350226784,-0.00297286592769774
0.0261697260943747,0.00817464931124422,0.00612772909183213,-0.00122874671128179
0.0392184339435311,-0.00237939860012675,0.0119070512635539,0.000600163812919139
0.0499990976924656,-0.0165495624765118,0.0117837461420815,0.00147531128847888
0.0519928553677683,-0.0240194355973219,0.00417376961364454,0.00131097586399474
0.0350332286896514,-0.0143708023160838,-0.00154806050948966,0.000548668275407827
0.00697671970075116,0.00569402646325602,0.000126425528686417,-0.000410967821692489
-0.0145120759552017,0.0197898013183343,0.00440759750929386,-0.00148683147644665
-0.0270188595355834,0.0185850174841819,0.00548453655470842,-0.00270230418786672
-0.0337493760394434,0.00867919259865142,0.00234809182679553,-0.00362838082107971
-0.0372538224359628,-0.00118772931162103,-0.00248309515421162,-0.00381506126079311
-0.0355663802639087,-0.0140608194860123,-0.00690578851626236,-0.00329699397937758
-0.0222092260357311,-0.0324046434602703,-0.0104053446904195,-0.00236817519155604
-0.00792953053036886,-0.0486727476690306,-0.0130588019032006,-0.00136807302310122
-0.0113817616331257,-0.0439330028026761,-0.0151427592991992,-0.000532512902032993
-0.0253363854892954,-0.0131161091545869,-0.0128796681174286,4.32805634764978e-05
-0.0326730480659484,0.0183560530767452,-0.00145260273133955,-5.25072200617354e-05
-0.0341263415127639,0.0298605471784759,0.0111554006099123,-0.00117783918241784
-0.0347216107223049,0.024062313473899,0.0163798088106218,-0.0027533104841877
-0.0359456535370519,0.0107982315903816,0.0181078570134263,-0.00388499108262057
-0.0437925188453538,-0.000758532759125696,0.020267826443884,-0.00390030863925559
-0.0555381638289245,-0.00453051140876407,0.0213878375285059,-0.00214955039281212
-0.0561386337434286,-0.00672913015171308,0.0175825283891946,0.000935816180831223
-0.0412764083129651,-0.0177210973441054,0.00920560852003324,0.00367188697417889
-0.0216775446851868,-0.0316286115715453,0.0021519119229229,0.00482953683799553
-0.00581841252231032,-0.0391761068191042,-0.00497267823862318,0.0045233590255527
0.0120206666497269,-0.0410782407313863,-0.0137663133355541,0.00348314237887489
0.0317134463097736,-0.030947652551122,-0.0171511151618198,0.00212523453436561
0.0413106080686114,-0.0123678346695201,-0.0145271611666609,0.00109612437454344
0.0474497672693506,0.00613064244974325,-0.0034355348030207,0.000881019039070036
0.0653335571352876,0.0367103521702383,0.0198043299669089,-0.000222226308903721
0.076661210018718,0.0580738193344901,0.0362152953493739,-0.00428530354986398
0.0513730658285576,0.0336618170028917,0.0297374373409696,-0.00882785203373308
0.00566714633232109,-0.0103870336536347,0.0132815522718212,-0.00872901463440104
-0.021066278848997,-0.027235355986209,0.00350162692509692,-0.00389791111298014
-0.0207966124105403,-0.0157508246698263,0.00228839184916577,0.000289412377573624
-0.0131369436794405,-0.00522203864118913,0.00459021821299906,0.00080846103670692
-0.0160232340150186,-0.00484678284573461,0.00937146880710761,-0.000143280168918762
-0.0319907757115771,0.00372041689448228,0.0163266798605036,-0.000234309713653239
-0.0488945098994296,0.0201514252292594,0.0181927319569338,0.000362678183451246
-0.047067021943537,0.00939789494694897,0.0107258618429288,0.000681404105344098
-0.0220504202534649,-0.0351383362686992,-0.000108627082172161,0.000772948102318841
0.000317325262110934,-0.0594590906120534,-0.00734769211021515,0.00106961074484332
0.00071429728679719,-0.0306810401935574,-0.0115863073706285,0.000967554992289249
-0.00692391458358164,0.0141272120851003,-0.0109781133900595,0.000144244564173344
-0.00360802303716539,0.0302212411681667,-0.00117429768585343,-0.000682752713064871
0.00544369303586816,0.0082555857164338,0.00671071003785238,-0.000782503821223112
0.00378933566191807,-0.016089153548917,0.00787345194073178,0.000365524719130829
-0.00562612353748642,-0.0066682921141673,0.0103110518062344,0.00194207701783648
-0.0094900585333147,0.0099028494224967,0.00947496850443419,0.0020511014564164
-0.00456765565170444,0.00555504889892783,0.00232850809402804,0.000887853708315308
0.00307477101750128,-0.00482319904666485,-0.00589501716045344,5.60230018964193e-05
0.0120254064327729,-0.0072014399342751,-0.0100554164828002,-0.00015032104128647
0.0217335136883212,-0.00309008981087789,-0.00852075142748461,-0.000474349345230831
0.0177895557787412,0.00588431388793689,-0.00392727101626902,-0.00136014000100526
-0.00672788981212775,0.0160484689237796,0.000424666086581687,-0.0025194428373386
-0.0368989324536084,0.0184427265826272,0.000597176982431315,-0.00341763067183024
-0.0518425754489637,0.0149632411280756,-0.00140270817170795,-0.00339856473929392
-0.0478552616007043,0.0120838853309183,-0.00212595687576467,-0.00213407044955589
-0.0391916831409121,0.00827289781270196,-0.00124112269199038,-0.000536814434388096
-0.0324630509232849,0.00730323433725708,0.00113740926410926,0.000178723042722139
-0.025511430101143,0.0113605391691273,0.00190372302626934,2.70529938268017e-05
-0.0162490224343489,0.00924855110129913,-0.00376377580813003,-7.78604076005713e-05
-0.00403365907602181,-0.000268039539115639,-0.0121618405752421,0.000534173654928382
0.00635160905280935,-0.00624575063567252,-0.0134433561715388,0.00161222145569255
0.00904025395322152,-0.00343979060450237,-0.0110832152083804,0.00247207847620245
0.00642930357262907,0.0108384688135355,-0.0131891524922874,0.0027667197828319
0.00597183722510922,0.0275046364196175,-0.0133891878351749,0.00237346578963552
0.0142976468789457,0.0238657156432427,-0.00934312170774902,0.00123575196675121
0.0335532347615286,-0.0159686463496082,-0.00997620002138148,-0.000148573334790866
0.0433445833459568,-0.0627337458675242,-0.0117379755513776,-0.000965220081958331
0.0193297381179303,-0.0595823980919124,-0.00988882028150087,-0.00120742298420371
-0.0208521412939534,-0.0187554138108915,-0.0124565516638183,-0.00118907976396408
-0.0411780700980108,0.00813462556697843,-0.0176802742042649,-0.000814189042950213
-0.0379017484065166,0.0214270821351079,-0.013600935500804,-0.000359359944552397
-0.0251321323393068,0.0396832955552869,-0.000972004878789299,-0.000608631721150859
-0.00979531209866993,0.0543168654346273,0.00916774198344902,-0.00157998957521558
0.00117057445197811,0.0499507103782601,0.0125092149859377,-0.00220938371859779
0.00493537152248782,0.0246839985795875,0.00957939135002683,-0.0014738417952341
0.0019040478878819,0.00222797604641631,0.00394361166317442,0.000719090229512167
-0.00939490583065361,0.00594675022401982,0.00583201516926301,0.0027845322996688
-0.0219076023477851,0.0146033443540851,0.0103663486311004,0.00304447115817215
-0.0267772293784236,0.00531635827644757,0.00460500206771849,0.0028517098020535
-0.0241632090783793,0.000337475040076769,0.00547482252449874,0.00422169989072522
-0.0224663639373749,0.0114908725328118,0.0220627012805548,0.00500513816885958
-0.030049269574043,0.0117773252299083,0.0284189946668101,0.00235806887244359
-0.0348529195776997,-0.0061417204901911,0.0135437108270969,-0.00133291693942872
-0.0210228927107335,-0.0179462633172014,-0.00931017376194916,-0.00226021906333944
-0.000581757125146028,-0.0108100439580368,-0.0263318327763747,-0.000615523332377886
0.0147318277560843,0.00439244407647236,-0.0272827203316495,0.0013169630888757
0.0288704060953444,0.0176497123230071,-0.0122811076399,0.00196193490667756
0.0364906768216053,0.0282016259485038,0.00334172094214998,0.000701549087935518
0.0293820541242885,0.0320263527100808,0.00845936869013272,-0.00163867642728968
0.011833758146465,0.0250149799508261,0.00637317573467436,-0.00309646927641761
0.000472121455171541,0.0070650714525707,0.00107384574266568,-0.00259855848289455
0.0148607806145015,-0.0174308048183032,-0.00755887921035992,-0.00078662382434503
0.0489647047241063,-0.0373021819664939,-0.0149206015817962,0.00116011988078871
0.0632547634685117,-0.0434179680310142,-0.0126617727073733,0.00252463090066663
0.0388339647309028,-0.0347792259758336,-0.00079579369474167,0.00298982732601361
0.0030755869216842,-0.0171346772195042,0.00972093744801562,0.00258035424456293
-0.0189287019105487,-0.00259308341569765,0.0111339495955618,0.00143730118251776
-0.0253790503807175,0.0018025478426602,0.0109442187489579,4.00311737562627e-05
-0.0210104078842885,0.00231698593381103,0.0134807871307798,-0.000742387887538757
-0.0117319354522976,0.00845800435865482,0.0122657269184483,-0.000825138775314245
-0.0062686288607882,0.0210216566297292,0.00756184906202761,-0.000796055335207753
-0.00786522443201832,0.0347173187167305,0.00541877779497827,-0.000792124440321698
-0.0105229889694237,0.0456573919898765,0.00153707613488414,-0.000569383930783233
-0.0100021306473648,0.0440463388938823,-0.00999968034954917,9.71438365588663e-05
-0.00139277412023462,0.0250279985869311,-0.020740420204701,0.00141651379713956
0.0164982626460006,0.00323283999448036,-0.024829452669597,0.00315172091830399
0.0333814692885769,-0.00908752025758604,-0.0241525634031402,0.00444968394897463
0.0378568580073829,-0.0113951593315021,-0.0190497459434157,0.00442933812001127
0.0283151161312961,-0.0128437651690193,-0.0134972139191158,0.00280192159597607
0.0170564162730568,-0.0169268772082738,-0.0112667276364526,0.000424127943690762
0.0118381022278291,-0.00715959084816327,-0.0101000218754243,-0.00149459675171793
0.00888645845186893,0.0125021827001632,-0.00605048380455542,-0.00279676200365044
0.00257421917962153,0.0196040245583636,-0.00157632997797331,-0.00360882724506799
-0.011133073963877,0.0181599433744162,-0.00152576439967163,-0.00357014695743749
-0.029634309393015,0.0227115730128677,-0.00221468645539771,-0.00275112173679463
-0.0407553516490109,0.0239566560849438,0.000417179175430649,-0.00170289296100873
-0.0365766658540986,0.00770934842421234,0.00220862438954086,-0.000246734274667193
-0.0246462697655071,-0.0192688294016801,0.000184036529765821,0.00210053635417245
-0.00917730750478744,-0.0329720766413559,-0.000848516141544159,0.00449051962422997
0.0103259272677515,-0.00606516200482349,0.00205774025981378,0.00518266483182623
0.0295496608182693,0.047669650803222,0.00412582497555198,0.00352318645034624
0.0442866556997994,0.0703256458898236,0.000164138246839335,0.000872316776311363
0.0484027964871862,0.0359827542225117,-0.00807313447202675,-0.000624370777213435
0.041885532101109,-0.0125668413915492,-0.0140003678398322,-2.1022325068106e-06
0.0349016121458645,-0.0290242443351285,-0.0118760256022022,0.00164146240979576
0.0325283156548037,-0.0191255073578356,-0.00666826392654267,0.00246318133826902
0.0328129846189537,-0.0100790139887397,-0.0085607874099486,0.00174564928925571
0.0287059739611181,-0.0093813870698258,-0.0151886240365848,-4.54700172748922e-05
0.0167654080212875,-0.00621768769069447,-0.0162437942187131,-0.00217038311270471
0.00798119571263294,-0.000616850787281853,-0.00705132606174069,-0.00387096331217435
0.01425999680264,-0.00763199089060013,0.00189538561025658,-0.00425463322684392
0.032205068691513,-0.0387246686028782,-0.001326586726532,-0.00318265516303002
0.0407825389411346,-0.077089297969745,-0.0103951672646471,-0.00149056400295593
0.0259791036340295,-0.0800794134467137,-0.0140694217317934,0.000310805180909147
0.00384526792542365,-0.0443568789089631,-0.0120071112166668,0.00204535439185489
-0.00588710550767395,-0.0114471845744968,-0.00717985654771342,0.00313173436946636
-0.0150321023459254,0.0079664112542534,0.00341159886773273,0.00329612867694877
-0.0314936275249946,0.0286183491364601,0.0182471426992707,0.00271956069670488
-0.0314978352575598,0.0380913747991838,0.0235879239967239,0.00152093440905719
-0.0110173582836837,0.0223385345386198,0.0121499817886132,0.000467668433186441
0.00666830948335439,0.00102320799916218,-0.00258900680000281,0.000776940727330646
0.0071748790083552,-0.00281366579207861,-0.0055993341242295,0.00244400612243433
-0.0112031611824333,0.00125998633744873,0.000701199672579663,0.00405246745438841
-0.0329133509729882,-0.00305377266528237,0.00696647796461748,0.00394223724593185
-0.036255311275484,-0.00877521529039342,0.00574094266573528,0.00154918742542902
-0.0229649966450123,-0.0104791180430052,-0.00399556189371093,-0.00203755660447935
-0.00617528202438986,-0.0157299441961972,-0.0106910407002482,-0.00498912586202632
0.00880842131243585,-0.0189214793172222,-0.00644193214908683,-0.00614055639780589
0.0154615636861572,-0.00563956506275943,0.00146217205821869,-0.00583881999515007
0.00533299823015198,0.0168365788626733,0.00615748478145754,-0.00473123328390169
-0.023597951095102,0.0244336130942748,0.00668714358736311,-0.00264349733602676
-0.0545967814810209,0.00925470009522734,0.00453576379770292,0.000141076888482656
-0.0581197961641875,-0.0207084797247075,0.00398668628209801,0.00245031658166626
-0.0323459528703177,-0.0607589093511327,0.00387613831555331,0.00347222681544239
-0.00708118482359592,-0.0900808209516336,-0.000491080968132616,0.00327521295883656
0.00275429195903945,-0.0799840894757499,-0.00632059138985933,0.00247060765697132
0.00970002047795234,-0.0390248917716175,-0.00819187301660178,0.0017727764189879
0.028096655903323,0.00175193524769043,-0.00586548082623876,0.00168295705131965
0.0572441835441956,0.0101863260705332,-0.001651022515482,0.00176284872505464
0.0788272717883356,-0.0230426389963771,0.00186751305443126,0.00108780755906292
0.0794988530319302,-0.0574008101867855,0.00560283102549375,-0.000147503098509726
0.0564960512363743,-0.0490497142786428,0.0137292113208126,-0.00119455368901055
0.00958759270842266,0.0121784561159542,0.026767035394278,-0.00192629291760152
-0.0402929572176158,0.0880142384385732,0.0382847952238996,-0.00275197055949651
-0.0717741603247333,0.117084142664063,0.0384705990953414,-0.00385016515757535
-0.0957194117967069,0.0990871498221839,0.027908659092162,-0.00430183953027778
-0.121838758628068,0.0821705602799931,0.021649630939536,-0.0033724052747241
-0.133491844598766,0.0828533058218407,0.0296695473324543,-0.00194696257949258
-0.124548020927634,0.07847958441192,0.0440748553335784,-0.00124978820732978
-0.100892052102264,0.0622107794844699,0.051501843571076,-0.00163136644919649
-0.0622079933088158,0.0439089281124295,0.0484426793552486,-0.00280436402739033
-0.0264696551354294,0.0150008622549297,0.0363552387151258,-0.00365828527432087
-0.00264780838375497,-0.016142062582159,0.0176832437289776,-0.00197344812379829
0.034900657156702,-0.0387053948532998,0.000394464890268356,0.0028030488801901
0.0848022566365889,-0.0743458318544859,-0.0139042885360874,0.00738832615776753
0.102108143021138,-0.107086197271832,-0.0252265402268748,0.0085404627282106
0.0748967802052461,-0.0868319760292564,-0.0197710844896594,0.00659160981807029
0.0477817617569287,-0.0317101680085305,0.00266019338502968,0.00347490265382226
0.0469006452592846,-0.0124541494919384,0.0201583182245244,-4.47853958632245e-05
0.0526647556262209,-0.0366916355541255,0.021501551015036,-0.00378601963995917
0.0508231233427479,-0.0443737018634667,0.0115897397793509,-0.00664639643207012
0.0443554759680412,-0.0148241286075558,-0.00116431855022927,-0.00739867330679716
0.0328303321751273,0.0175727757236462,-0.0107926890489676,-0.00601771556262927
0.0176471681389606,0.0330248343720682,-0.0134942960033294,-0.00336545325362775
0.00672914251747367,0.03828114145625,-0.0088172321525737,-0.000319756631744522
0.0075360806415021,0.0484025835163874,-0.00291747275348322,0.00205189873451932
0.0169364020773912,0.0705865293233287,0.00151878544893434,0.00248627078181918
0.0260497804468234,0.0824097671567358,0.00734374898752688,0.00139122961709096
0.0332337868590552,0.0587132290033384,0.0114794840091102,0.000899286283430249
0.0368842415175545,0.0161678871539922,0.0102874942876825,0.00171989626384593
0.032877067494351,-0.0109540524570227,0.00425802420331633,0.0026602505955105
0.0251087122239088,-0.0189916210683434,-0.00557067234898669,0.00282701103179585
0.0191765797786208,-0.0273773845070599,-0.0140019714167976,0.0024392008372791
0.0154236012119273,-0.0411828946084662,-0.0121373186502138,0.00190978586257416
0.0182032060978056,-0.0487237487491963,0.000874649040341305,0.000515865127520167
0.0271044943404196,-0.0493671916380321,0.011851893009926,-0.00255115164356878
0.0307469309357751,-0.0485772909119302,0.0117837420845887,-0.00581974305967942
0.0235423068981497,-0.0406196895319107,0.00600253512577995,-0.00647822464372613
0.0112717222856453,-0.0234759938545349,0.00168593087594241,-0.00395433944873446
0.00202853407981218,-0.00148983099172113,-0.0018848715667927,-0.000509508438010707
0.00116639326168628,0.0160760172721741,-0.00660873570948884,0.00202994639592945
0.00281487081243758,0.0175087494725024,-0.00973990729916037,0.00327642783931072
-0.00514536646058189,0.0106325225531844,-0.012313185491086,0.0031548080455125
-0.0140625667709034,0.00835374935930576,-0.0165343741834098,0.00207343909903228
-0.00849380723402407,0.00948287953084949,-0.0179606499059247,0.000909518908475157
0.00549601826203541,0.00724224883581465,-0.0166192527994809,0.000396362040128067
0.0167965459848556,0.00112988478017194,-0.0191316127024566,0.000723247419036243
0.0276580243660306,0.00383751189438038,-0.0234346402936317,0.00163540929398753
0.044198910411819,0.0188990542905223,-0.0244846346470439,0.00225450223029602
0.0576687482540911,0.0328186930105169,-0.0230942579063905,0.00175645456130383
0.0521012871664284,0.0367149253284152,-0.0193093016413952,0.000554213987052636
0.0382038841114051,0.0295644499187689,-0.0102751864569075,-0.000499887334357422
0.047103278982083,0.00677170386888387,0.00406137072846669,-0.00178827590360729
0.0674432724891767,-0.0329125997039048,0.0144876115488653,-0.00437768934139566
0.0535652403470247,-0.0509276110201999,0.0145672609220714,-0.00709077081823445
0.00611727169296272,-0.0188593433637535,0.0094896922375329,-0.00726772632642353
-0.0315133450100839,0.0224648983772453,0.00240121658080731,-0.00493975273468762
-0.0396442652666922,0.0372549962011312,-0.00860159433625489,-0.00255803591415675
-0.0381474598854863,0.025605441819217,-0.018620960154461,-0.000959159916797712
-0.04319231855271,0.00595308138077904,-0.0184099940024802,0.000813024684217691
-0.0473548889059122,0.0132538656081817,-0.00862744553723738,0.00245647175220415
-0.0464425344522406,0.0440674588950816,0.00295324859908852,0.00262467443683938
-0.0440275104761211,0.0572339193439518,0.011456896318098,0.00112918479775469
-0.0397389096946499,0.0492355750979238,0.0155671061052976,-0.000682628972588219
-0.0331306290329281,0.0429665174564757,0.0161653309147406,-0.0013556535963405
-0.0250585140282122,0.0339858739853711,0.0136313589574398,-0.000594483175747232
-0.0162432897932392,0.00398124952827496,0.00525763217135266,0.00121221866302865
-0.00532520490092713,-0.037742981761228,-0.00713084420434286,0.00397891680582437
0.0140341014580585,-0.0473873662508903,-0.00871594607912837,0.00668112558623048
0.0339639294604617,-0.0190725098045565,0.00213477155540689,0.00588937332068543
0.0319065849644674,0.00122910244872838,0.00415360052831706,0.000308403106564501
0.0128579834070942,0.00904247358214162,-0.00460925053706157,-0.00553376084565208
0.000826135881519759,0.0228802595123506,-0.0062141808826542,-0.00748397779316862
0.00148922354032573,0.0267838958094582,0.000122893459094928,-0.00642208388721826
0.00252693857896787,0.0114731398324552,0.00333558908071889,-0.00447616462011179
-0.00587254824685394,0.00169183010823981,0.0040181500633119,-0.00235563718093534
-0.0168456195020557,0.0120603835474169,0.00519266626482433,-0.000493629422932309
-0.0185334664517657,0.0195003881210466,0.0017290870109004,0.000817797013573719
-0.00480456864580779,0.00825313370564338,-0.00820251553989352,0.00213524942500533
0.01682291380062,-0.0171105295282513,-0.0162872770297973,0.00342639035717317
0.0230313257968033,-0.0516585392750172,-0.0144675237094042,0.00371337354461103
0.00405073371165002,-0.0774842707477453,-0.00560494460439633,0.00300911288939948
-0.0171778630841823,-0.0797774864002058,0.00287380778429537,0.00198299670046251
-0.0148261179659249,-0.0652146099051282,0.00626945732189702,0.00105137407726366
0.00414298417422039,-0.0405451306039743,0.00631144012319014,0.000527835158184823
0.00625623185624631,-0.0111457363548279,0.00790038632240932,0.000366574217570278
-0.023878474162221,0.00812882610494509,0.00957621503036126,0.000203783094337468
-0.0622787272424435,0.0135750772237339,0.00682590272983364,-0.000131555672960008
-0.0770298868470242,0.0214680089980006,-0.000540158306329672,-0.000235740066776704
-0.058916994507422,0.0303746159689246,-0.00851788922096857,0.00036806253300452
-0.0182919146023514,0.02042633625885,-0.0133411349209048,0.00157329391396677
0.0277976957116175,-0.00593308374856904,-0.0143417244412537,0.00285810793666034
0.0487337918154918,-0.0252540072813221,-0.0115643948138516,0.00363105450359295
0.0301745141315893,-0.0144041291292107,-0.0039105956721817,0.00339578015501495
0.00639954649945594,0.021504475065935,0.00438198119244767,0.00209717997798971
0.0107719555608804,0.0476414198044423,0.00499915086874833,0.00051124456683765
0.0430687059243764,0.0415664267780036,-0.00137063677350152,-0.000204518261496784
0.0727481945766799,0.00398578921320714,-0.00578144882731671,0.00052368940244843
0.0624685073790371,-0.0353741888228957,-0.00200797276369715,0.00152494642606021
0.0164593350840235,-0.037097729126663,0.00737326765970358,0.000822833361221391
-0.0386195917357122,-0.00952699825167934,0.0154162619109317,-0.00163497527757632
-0.0898117964405973,0.014306788769777,0.0195592293578402,-0.00416279729870613
-0.117930179231275,0.0268552463850033,0.0194977738064307,-0.00514116723645296
-0.104945784209786,0.0345343914926911,0.0160027445586316,-0.00409761365105916
-0.0666237026169742,0.0344685360093133,0.00998540231782584,-0.00174643889893907
-0.0217772779765865,0.0150460320283624,-0.00240331031265467,0.00105716915765445
0.0250688419385976,-0.0125914939182934,-0.0164073640291754,0.00355060639144167
0.0475709801301144,-0.0309897325212281,-0.0183698490431357,0.00498928050555044
0.0315323894936964,-0.0465665917474901,-0.00831439506934955,0.00493673203887917
0.0110286019840835,-0.0613532848103479,0.00155218480223231,0.00338553289149455
0.00623905668734067,-0.0729663782280076,0.00514467118551378,0.000958918005600178
-0.000633215031292479,-0.0711292888022949,0.00721813814684729,-0.00131137477021467
-0.0160091381333409,-0.0374464427120089,0.0123831111539367,-0.00259681846948267
-0.0263824797455996,0.0164226099948872,0.0185632777394989,-0.00271259259197639
-0.0229576377518177,0.0504561078298602,0.0218117581165758,-0.00216243696130978
-0.00511993213375631,0.0394408508078473,0.0185712671079557,-0.00136588635696747
0.0193632173254174,0.00241542697783842,0.0116915499791666,-6.87527726385086e-05
0.0356889148596956,-0.023487180058965,0.00778729455055308,0.00177886641238846
0.0302964697521542,-0.023437746398294,0.00473074555707435,0.00329902589785739
0.00665687903367029,-0.00467258117760552,0.000251373887736504,0.00379283232492432
-0.0107841725426932,0.0189486466128969,-0.00190109812585936,0.00349685213440525
-0.0170815697156327,0.0355927965526684,-0.00123223185560352,0.00236051188009802
-0.0277047496088084,0.0406887074248387,0.000379308706692366,0.000201190190476658
-0.0389543316995909,0.0391893127355888,0.00370025821486214,-0.00235674005072477
-0.0402547150003527,0.0375965982192257,0.00476636589768674,-0.00453000209431867
-0.0351110544240682,0.0385617836598627,-0.00200660608098111,-0.00515319307115407
-0.0280105481134472,0.0405447271554517,-0.0108886487064815,-0.00339197244207806
-0.0164852958037463,0.035198647939812,-0.0133562657099893,-0.00077698546777251
0.00517300264319394,0.0182506171328894,-0.00951640195436016,0.0003724156145932
0.0351273167972118,-0.0183321822785671,-0.00348267949838767,-0.000178969782283834
0.0549756123585443,-0.0666122261782498,0.00254908458364365,-0.00121208244580499
0.0519925103453009,-0.0839960031533445,0.00458291435404999,-0.00167081818295225
0.0321624411773758,-0.0649432414592701,0.00229251804541162,-0.0012457811171981
0.00458009156949653,-0.0393634817095744,0.00300871950155184,-0.000261012921164145
-0.0254716623302545,-0.0151496847156831,0.0103686686270122,0.000865740081332087
-0.048885247335513,0.00190549884258675,0.0195449063466146,0.00156112858797122
-0.0520484537607356,-0.00195551740156217,0.022685318269617,0.00162301528717638
-0.0383006746548359,-0.0292625992934823,0.0158424013859428,0.00166405854543006
-0.0280899461276496,-0.0582777361554214,0.000578353796021284,0.00239725065161532
-0.0282517881975534,-0.0521252113574508,-0.0114376592303124,0.00403947624417712
-0.0310143137967413,-0.0112840849889023,-0.0115913584637999,0.0047722046339359
-0.0337518724241394,0.0236893837710326,-0.00936825300931931,0.00208198181585421
-0.0346061874311799,0.0362677656137762,-0.00654207045145518,-0.00250200940821758
-0.0237350354486538,0.0360726816209029,0.0044037759249587,-0.00540487454906932
0.00550074739945317,0.0180994588111986,0.0140144618303349,-0.00608200874317203
0.0370066000354113,-0.0235011975197607,0.0128794658962565,-0.00563537284114066
0.0447616346279088,-0.0450759001652853,0.00801102015384991,-0.00424721931393705
0.0246655378246431,-0.0059975465477728,0.00635688349395949,-0.00180525332414991
-0.00477380970886533,0.0511562175948094,0.00894464055252264,0.00100476298761889
-0.0208815053952121,0.0708121473531015,0.0117597406806761,0.00283521788206128
-0.0208660075447469,0.05110631405138,0.00939906461684238,0.00328018596178585
-0.0183944982892994,0.0233308296070639,0.00573729170146402,0.00296413890333195
-0.018049708115088,0.00763046277332214,0.0054245920979867,0.00220933071519179
-0.0199398139183349,-0.00390280087237816,0.00392505419233667,0.00144941861175471
-0.021966865228133,-0.0223384446944839,-0.00542010770460791,0.00173496212952617
-0.00875909949127567,-0.0409402564499208,-0.0122191365211577,0.00325549802883391
0.0118765063387734,-0.0591336568971073,-0.00224522849015076,0.00326200335915749
0.0120865840935442,-0.0977033717496201,0.00688679926084094,-0.000583841175655145
0.00230712846872797,-0.128853799564173,-0.000302685577993664,-0.00506099923914464
-0.00407931280470751,-0.0975701450182833,-0.0107348821306516,-0.00559695700337947
-0.0194885588316717,-0.022534539052188,-0.00867956394783113,-0.00264053345300092
-0.0347050856409304,0.0343956715603915,0.00910268976580791,6.5967978996587e-05
-0.0299349777499387,0.0569888061636655,0.0244819836941842,0.000459886300470585
-0.00840456178005223,0.0631905952171888,0.0190656364643818,-0.00029925991322704
0.0212300244688503,0.0479353920816048,0.00172088589191012,-0.000436413145399418
0.048520749454384,0.00327612652594754,-0.00743014537205629,0.000298437371033085
0.0556870304274898,-0.0373068044656291,-0.00741504305191479,0.00140080598142174
0.0432188604004613,-0.0260564008186317,-0.00849618815940799,0.00241594771710664
0.0302759040858784,0.0240300597661129,-0.00949190819198667,0.00243400821273632
0.0225021249898513,0.0469200202358563,-0.0063747798366784,0.000459685592750848
0.0151071385713742,0.0169128195111334,-0.0043434293646778,-0.00252267679792224
-0.00411154411932049,-0.0255558962599872,-0.00824932002448673,-0.00385068353740671
-0.0448303194882053,-0.0354815865926783,-0.0104950626036701,-0.00252421611663755
-0.0810842856059532,-0.0135096491432456,-0.00448835368751352,0.000492115613799146
-0.0873272213555741,0.0147407699165178,0.00466106736452566,0.00402839613201134
-0.068321964042171,0.0327830303071227,0.0103603845828726,0.00635876430351278
-0.0328201009735022,0.0360478964449543,0.00879143962715544,0.0061184641285754
0.00496238915829716,0.0325668924077243,0.00195031825921489,0.00403133614303158
0.0267080175984113,0.0340459464617203,-0.00336531844300858,0.00176016873252784
0.0374969066268386,0.0379532612967683,-0.00369763053908133,0.000206560478191483
0.0534842837762129,0.0366925432191321,-1.76952871049942e-05,-0.000640162059600866
0.0808348363037959,0.0271509624818493,0.00263488008692124,-0.00128760549267396
0.112826584406686,0.00287741775019659,-0.00174759678569473,-0.00187090393620438
0.127430131930399,-0.0321254806381819,-0.010319225756191,-0.00168408588599407
0.110644529079915,-0.0671566115870662,-0.014504847070405,-0.000518973312401676
0.0726427877102268,-0.0834043555551259,-0.0114780781554644,0.000590527049601217
0.0335489664301074,-0.0565172584261057,-0.00554944851422256,0.000684988873107604
-0.00254697335573811,-0.00751162136820975,-0.00483277320241373,7.6634091602399e-05
-0.0407030300880045,0.0224511499302655,-0.00937424220596779,-0.00013500564798639
-0.0684683880915543,0.0385389796031921,-0.00925010029047091,0.000284835973805835
-0.0745162295702431,0.0582094742906969,-0.00603056548703738,0.000403705152475654
-0.0729984538951501,0.0670000914220657,-0.01036632957751,-0.00011081810098129
-0.0763978211772838,0.0587361038327588,-0.0160891550285563,-0.000275740061989549
-0.0657918016546276,0.0548949510952426,-0.0105511786963606,7.87633822704242e-05
-0.0329970995878773,0.0594727180136943,0.000432477751922986,-2.39496199804122e-05
-0.00693745343209003,0.0538702988789546,0.00818576007947762,-0.000876533435248828
0.00186714862510466,0.0341621224949308,0.00912799430812935,-0.00220264366157329
0.0166425041202514,0.00552016449874876,-0.00501837211824393,-0.00328844518373498
0.0483083008270046,-0.0250026780154428,-0.0222515538427193,-0.00281086925251173
0.0831193892516185,-0.0313999532917613,-0.0173987771345393,-0.00065417880466606
0.0924925256581619,-8.01011397078069e-05,0.00356342447647329,0.000939526552943942
0.0570596078110076,0.0445689007836995,0.0171271071883644,0.00019216995567451
0.000840859565499855,0.0784714544796722,0.0186776722675508,-0.00175776810396896
-0.0392820098263898,0.098221679242804,0.0172785071177224,-0.00266124699277304
-0.0495731421237633,0.104240147550154,0.0182054105351576,-0.0017497667237677
-0.0331962194695051,0.0879973138234226,0.0185774020154424,-0.000166171171590326
-0.0118740160059309,0.048035685796847,0.0119605305325274,0.000752383120542485
-0.0159160997809003,0.0189996450070806,-0.0023216791573988,0.00110233505740243
-0.0425320183182972,0.0222407281025369,-0.0161254268369789,0.00169086597798193
-0.0610397276423377,0.022468051019312,-0.0186674956648747,0.00265913139770404
-0.0413504708799186,-0.0142974848908664,-0.00783158772783367,0.0030190762848926
0.0217079513040937,-0.084229501938723,0.00135441827879428,0.000892638603468604
0.0790543716472449,-0.144196920901542,-0.00837143864697732,-0.00353839582534184
0.0893614381282261,-0.13664751874064,-0.0271128385648939,-0.0061749093597071
0.0707226780325119,-0.0698521806118686,-0.0341666214844939,-0.00415537445240761
0.0537704975970978,-0.0220027403103769,-0.0269672899031845,0.000117501433252917
0.0462046453084347,-0.0180061450044507,-0.0123598758855776,0.00292694299608634
0.0458215894417966,-0.0101371374074348,0.00178732914757157,0.00314874501630687
0.0450834110072847,0.000715209896400809,0.00892739055535682,0.00129724235636865
0.0319896546313878,-0.00915940518202482,0.00820478437004518,-0.0013839566931126
0.00893224567191502,-0.0254216710799156,0.00493717273919902,-0.00287894255885851
-0.0111012786831248,-0.0273667541572451,0.0081260819087014,-0.00230983115845693
-0.0268072900045269,-0.00233876217719696,0.019088641587394,-0.00182643953197236
-0.0392715527536019,0.0226653803062916,0.0283928214680616,-0.00390868174134038
-0.0364844086658962,0.0177073943869973,0.0277825784624145,-0.00734474301154397
-0.0217562192606066,-0.00308690076679098,0.0139332118689722,-0.00871430520174655
-0.0119206657426922,-0.0206838050304274,-0.00494322008069645,-0.00614551086112578
-0.0104501357155234,-0.030258124887943,-0.014105108453886,-0.000957020150782924
-0.0214013722980057,-0.0313641760297691,-0.016478680639249,0.00346228341428487
-0.0380583227401106,-0.0225132387317526,-0.017477417676594,0.00561321156133033
-0.0342861429603688,-0.00646068744569214,-0.00928884363011047,0.00564105406311243
-0.010692843883501,0.00611556596484742,0.000257682649238629,0.00263586382655391
0.00967988926715165,0.00981890214153234,-0.000594857706330232,-0.00217894738897781
0.0251373240212986,0.0172869366161331,-0.00228112381821734,-0.00514827518781249
0.0466920782693529,0.0367632277561369,0.00130446040049027,-0.00521394768553847
0.0758920838299283,0.0459618495900043,0.00381786867357849,-0.00392586491513029
0.0986639163632223,0.0268695798187858,-0.00110051854133703,-0.0018324116112099
0.0939830964050628,-0.00380247841611818,-0.0172776566613766,0.00307661119698862
0.0677419968160752,-0.0148059209041484,-0.0356773761008513,0.0128492766262369
0.0453798617397462,-0.00687435216747882,-0.0347025674521032,0.023293253393156
0.0165394218727652,-0.0288889729256515,-0.0127524752940003,0.0243987178956735
-0.0348658901837602,-0.0788337762645694,0.00513022570941148,0.0127975172616678
-0.0874311857658875,-0.0788024261240647,0.0070536275158956,-0.00285335972613299
-0.108410288998613,-0.0261515868198864,0.00253209070814451,-0.0129241956192889
-0.0758377239169514,-0.00090469244610079,0.000881791039592515,-0.0155787799069116
-0.025246811790581,-0.0300787125015138,0.00295353933088017,-0.0140158481158761
-0.0140655340154023,-0.054468290504333,0.00725842169632005,-0.0111077463787583
-0.0360829945538061,-0.0163317471597204,0.0139958676863945,-0.00820833321494665
-0.0520481224452425,0.0548020640142691,0.0181514598578112,-0.0060015840331017
-0.0281473399867748,0.101251431299493,0.0152364991322219,-0.00416286946700281
0.0448398334719149,0.108979766662935,0.00586026994073189,-0.00183144706296035
0.122150766689286,0.061837562700381,-0.00842870435476735,0.00107588887664568
0.14347053704631,-0.0279616975529313,-0.024566705536951,0.00404710111069145
0.10873007713996,-0.0720261193648176,-0.0341574677603771,0.00661381499260586
0.0573365492440962,-0.0336063245931945,-0.0301537458967541,0.00825451055478462
0.0155174443905156,0.025782348195648,-0.0163431634578412,0.00863830821258869
0.00355884772558161,0.0500610512781841,-0.00140896369642369,0.00793417029407744
0.0152955743387829,0.034963520445499,0.00850884724376828,0.00635534249636217
0.00600884066898598,0.0141500742223474,0.0135444260230396,0.00449814775454756
-0.0318332171642037,0.0132402034912741,0.0151433750843462,0.00317359509041345
-0.0504963277025326,0.0223770098007806,0.0136429606873957,0.00216131136019573
-0.0334305851876074,0.027601225329686,0.0110787366285069,0.000889427891348169
-0.00599385357383461,0.0267485203199264,0.00716592715874644,-0.000315266482848881
0.00787057287144255,0.0241193804957103,0.00676425487202316,-0.000791556083793647
-0.00301789756210642,0.0278528409266632,0.016216559972205,-0.00086956791435048
-0.0302463813794078,0.0424769064714992,0.0285286372348074,-0.00155203169790521
-0.0512498042839393,0.056576588234167,0.0335417835090187,-0.00328136555704112
-0.0458770957507194,0.0348207899085881,0.028929701799995,-0.00556718457333065
-0.0126018137146196,-0.0270712884772743,0.0165460586784805,-0.0070075786302282
0.0164823729179653,-0.0620247707935197,0.00113781961065901,-0.00576823716551135
0.00336329912112017,-0.0298573483066706,-0.00910745125256688,-0.0008238542364327
-0.0357603184251894,0.0168813054950465,-0.0119070049361652,0.00561542326669115
-0.0454436037558188,0.0284876350830415,-0.0131141533009018,0.00860642607179668
-0.00750574550254178,0.0126190846539027,-0.0114657095504448,0.00604762924783611
0.0450180937670445,-0.00708950681199975,-0.00173119224507762,0.000671596658014581
0.0846377307268601,-0.0186824032315128,0.0055381228635989,-0.0041082315714636
0.107545940834172,-0.0256915539235598,-0.00137260327510836,-0.00597814529265808
0.107666742522005,-0.0215206229266393,-0.0166128867506454,-0.00354763991015826
0.0833120704282518,0.0130747751551058,-0.0261844942641229,0.00138815451555673
0.0522840160854416,0.054949589671992,-0.0213573736220093,0.00447132805757406
0.0400861803554645,0.0333075034806038,-0.00972052449549882,0.00340388736393659
0.0365051553072474,-0.0495588773475719,-0.00447480148701469,-2.93105544518653e-05
0.00602185950136936,-0.0961389481013981,-0.00379369728546679,-0.00308710065577481
-0.0455727506916313,-0.0756873348270851,-0.00246324629309086,-0.00502469907154115
-0.0850586099456129,-0.0325360401385327,0.00252626413105726,-0.00569245070199743
-0.0960537185441703,0.00165445081389863,0.0160405477140264,-0.00528519389360681
-0.0836470427505809,-0.00490713449549552,0.0294575997708015,-0.00512075646667807
-0.0696257724063766,-0.0452512534809763,0.0375343043264356,-0.00526174071576568
-0.0759648993188292,-0.0551714938339533,0.0456031184210635,-0.00449552957276331
-0.0960872623478692,-0.0117971899811477,0.048331353744615,-0.0026427438083954
-0.102780176646483,0.0406853100647002,0.0447361114286227,-0.000587412507405319
-0.0883060229953707,0.0668132271341765,0.044394922426408,9.84744410649063e-05
-0.0689891413511833,0.0720494113338016,0.0435565078628987,-0.00195632832099096
-0.0592216072782522,0.0726066889757576,0.0384412734978893,-0.00569607185192982
-0.0403870226018437,0.0752833738603676,0.0371524374642278,-0.00858981317224916
0.00588784502302822,0.0723187754772428,0.0309503236206155,-0.00923890021091882
0.0551014722828218,0.0392213881590802,0.00597818629711851,-0.00635989720690563
0.0811546769467023,-0.0143641267642516,-0.0273734691100557,0.00115245175361331
0.0867717252074553,-0.0519761766020989,-0.0456348926127495,0.0110077461581852
0.0880776194663558,-0.090262053487269,-0.0429709770880058,0.0177838686494051
0.0801571873449608,-0.149258299805083,-0.0447331492697784,0.0182786174344164
0.0506635432920679,-0.190586904649501,-0.068236773554718,0.0152097604848679
0.0241499641183348,-0.172461880935961,-0.0938494892162593,0.0130940764473327
0.0268492599548575,-0.0954999208911169,-0.0904213592451622,0.0121496275316074
0.0282949532914685,-0.00113759816109363,-0.0534726151061396,0.0092908633064598
-0.00720471313409521,0.0644263857858892,-0.00823237430764355,0.00335812323489224
-0.0487928670247633,0.0981095709749614,0.0257203144916422,-0.00394204541022007
-0.0594182174636124,0.114847198957455,0.0434981261002799,-0.0110453461352383
-0.0514696354578691,0.11103245173912,0.0444021064335586,-0.0159106958018947
-0.0463174037221529,0.0922923866514643,0.0355492204997536,-0.0159134567553595
-0.0505911561993391,0.0694221382335054,0.0248516375949389,-0.0119745052202916
-0.053536587863333,0.0454134223114497,0.0153311509901797,-0.00766257325335619
-0.0282928836273954,0.0247478785423509,0.00810654855208826,-0.00427452341622666
0.0239925880530421,0.00978664560757787,0.00479568464458017,-0.00108870700623247
0.0616194661440333,-0.00353991170918733,0.00640236733907657,0.0017326796124181
0.061185416505736,-0.0230980587136888,0.00683692098167045,0.00359803067332835
0.0503290097794206,-0.0485371929077658,0.000674493429140725,0.00506388807201771
0.0571440928231674,-0.0870259345514256,-0.0124612739218102,0.0073444833865928
0.0640492511949042,-0.141515984813112,-0.0300428294030084,0.0106310663859472
0.0556118949181484,-0.172852066899122,-0.04652339447571,0.013739734333596
0.0445511699923504,-0.143919078270756,-0.0547034477189631,0.0151853024641568
0.0309615683486203,-0.0763128371159718,-0.0512002791136535,0.0140594503513716
0.010103023097811,-0.0176886063234316,-0.0440974117855879,0.0109340399386985
-0.00676518086965405,0.019743225538124,-0.0381507058909064,0.00713753940261879
-0.01119916294167,0.0532756103535062,-0.0246247065295149,0.00313685137931374
-0.0085785250539128,0.0895006737050894,-0.00171207915950805,-0.00116317577044487
-0.00768709021016776,0.109173833687808,0.0128242279867194,-0.00541872726175535
-0.00904519319378646,0.0990940914157973,0.005337121206721,-0.00796517381084293
-0.00757284638683001,0.07806268472733,-0.0118547448402669,-0.00684812914712767
-0.00271542835750345,0.0614249307909507,-0.0223438227405857,-0.00273704609997818
0.0025330165358549,0.0452080362317121,-0.0255634022581582,0.00149467112763917
0.00560977022710299,0.0250295390752312,-0.0255102875906266,0.00377026050116067
0.00567387408254981,-0.00160560020300538,-0.0224110232142028,0.00375318776835069
0.00322906000334487,-0.0362803380247905,-0.0169448843883297,0.00218759338247679
0.00129731769060706,-0.0780919170613807,-0.0130928688320856,0.000118118880788554
0.000250218217095376,-0.117668448547159,-0.0153215873317882,-0.00110388875878258
-0.00380329257595206,-0.125124458010186,-0.0189808185825366,-0.000429099238153521
-0.00528429940813104,-0.0793185276776263,-0.0118862279359721,0.000388163557799975
-0.00528842932884761,-0.0159454932684107,0.00106398036557692,-0.00215424879127739
-0.0102595405081699,0.012456988437756,0.00550029298213239,-0.00757529939112078
-0.0140920418099568,0.0070407155872934,0.00449938406800735,-0.0106193427209227
-0.0155051757951723,0.00203311475667918,0.00560940787935338,-0.00766285255549295
-0.0104153174580378,0.0104084683534959,0.00811888059190764,-0.000956923444095063
0.00965144131695349,0.0250099606181194,0.0108202890672348,0.00438809430374769
0.0300961214797078,0.035838619077209,0.0113633012792166,0.00527446275340538
0.0183905205512626,0.0418603135967459,0.00805410597686155,0.00198954459384696
-0.0264546533510024,0.0541011271041889,0.00749317647860701,-0.00278893551772433
-0.0612787431544543,0.0685752978434125,0.0126687943857543,-0.00649976851728576
-0.0606519073347435,0.064786761178134,0.0158308777663957,-0.00850205049996186
-0.0416402390541974,0.0457237612832038,0.0143041777173521,-0.00915261839877752
-0.0337388385105142,0.0336341019480506,0.0098316951029407,-0.00891488653713964
-0.0413950008399361,0.0264444187342209,0.00575548962417845,-0.0077013740235291
-0.0323195620415211,0.0141998034287934,0.00941451014500754,-0.00492008550007974
0.0221295114737069,-0.010155716015689,0.0146207304504637,-0.00097455886716875
0.103611449443782,-0.0662637591329754,0.00976863971347744,0.00248910002010449
0.150405591155949,-0.140996396504744,-0.00212754157037032,0.00443009491836633
0.117916851072656,-0.154493269637552,-0.0103977727144696,0.00577872119494994
0.0268851586516004,-0.0620034006418225,-0.00465258783680309,0.0075134782713631
-0.0557040068220492,0.0595071837193618,0.0154621520439825,0.00851190117944448
-0.08968521247008,0.119601099211151,0.035476393461061,0.00690802922586214
-0.0913088391480045,0.125835996071942,0.0438093299368466,0.00312143666599657
-0.0794166642021254,0.12774919809252,0.0435771282389771,-0.000373796476716952
-0.0621530063921844,0.127639111351424,0.0399872534587096,-0.00243861727618582
-0.0487146205819512,0.106405635403757,0.03186745707151,-0.00381609500119218
-0.0322111576297799,0.0613123942313127,0.0169806715879296,-0.00555783848544508
-0.00764078442851769,-0.00447370228586849,-0.00134579516442512,-0.00801836093533762
0.013231438149297,-0.0753750546310664,-0.0181933978138009,-0.00938213023714079
0.029519953321559,-0.125121792995288,-0.0291817958190229,-0.00676108648002848
0.0468701466208138,-0.14142351221384,-0.0333057407422712,-8.58360342670984e-05
0.061609732404236,-0.119753586210717,-0.0292569248361181,0.00694003965241469
0.0645264599808102,-0.060574765392564,-0.0129796270391563,0.0095105065600232
0.0416853834477587,-0.0021536508676826,0.00546856222930855,0.00600591854020768
0.00512593858526519,0.0194644383647038,0.0161659268217812,-0.000185218087131907
-0.0107584160071265,-2.92084036982859e-05,0.0237901428168667,-0.00434869888887241
-0.0190408614715276,-0.0390464555883374,0.0278245977423855,-0.00477267273123793
-0.0566173933922541,-0.0462783681477398,0.0237056033516373,-0.0026667979902584
-0.101175825719188,-0.0207244162088575,0.0194089103724933,0.000345993096345204
-0.113503102953194,-0.00557255802584031,0.020672281280604,0.0022989334560285
-0.105381115004139,0.00595529926393656,0.0221404068059857,0.00166527311513056
-0.102242694314518,0.0294656190073433,0.0223675391156851,-0.000663338087992284
-0.0977701191877599,0.0399108306114341,0.0191817115654792,-0.00264495085089784
-0.0818569528834336,0.0270097857577605,0.00852689271393384,-0.0031125010597186
-0.0582910926657884,0.003316202203118,-0.00364817385341623,-0.00246698798980651
-0.0249191854693384,-0.0296282358515488,-0.0162123720860603,-0.0018548678324213
0.0203787317116044,-0.0619987688032904,-0.0330752185676175,-0.0013387711632309
0.0850028824316745,-0.0900764523548992,-0.0428862907390362,-0.000662682641678645
0.148291530317172,-0.133842150185876,-0.0422191107584011,-0.000826206696730667
0.146371724903381,-0.162042465925793,-0.0485748470281726,-0.00164436077701078
0.0748323356215538,-0.119229436257341,-0.0584184965528302,-0.000782431393781311
-0.00736615132790217,-0.0415393232083355,-0.0494253313780538,0.00197743140122848
-0.0678152999899869,0.00894981703114806,-0.0282390457086523,0.00456110398621573
-0.0987983454078327,0.0338641195324212,-0.0112599492752195,0.00669127266657874
-0.0895265738292901,0.0542815984410025,0.00526051771876759,0.00787915093674353
-0.0519721866725932,0.0710028887522329,0.0215623775901703,0.00534673825047758
-0.0300482626806862,0.0689584882927755,0.0281420812903241,-0.000959196296834903
-0.0443397338826649,0.0424521820303553,0.0229021674057963,-0.00674432873204589
-0.0614006977336709,0.0026310784020987,0.00894045405038004,-0.00866724085962704
-0.0448679040806327,-0.0411590998282397,-0.00795124829598814,-0.00667629297906692
-0.0117712281790523,-0.0772123217758914,-0.0160007687558684,-0.00275577524765581
-0.0114134855362203,-0.08254089308101,-0.0132785883098476,-0.000475891325759505
-0.0408531809420738,-0.0468866135030064,-0.0123625286557775,-0.00172482443435047
-0.0463308324873015,-0.000586077373630112,-0.017983519445701,-0.00462644025284893
-0.0246218918769703,0.0188747280700468,-0.0260824455492543,-0.00681778841800996
-0.0131260889457099,0.0200208241456105,-0.0327147455430147,-0.00643525709753963
-0.0117060068814827,0.0325599338321497,-0.0310689575443262,-0.00198928991945221
-0.00429877273763477,0.0557993091982593,-0.0210793749086203,0.00449674094257704
0.0117544608395779,0.0686684373903366,-0.0104415386870908,0.00766311766803052
0.0439350724058824,0.0647296597542614,-0.00566432018446842,0.00558352536670357
0.0828556473446588,0.0549650643346599,-0.00745567011570469,0.00279043846363108
0.101287279219878,0.0492605068930791,-0.0110351964153868,0.00361698455638153
0.0984493781012646,0.0355704097495451,-0.0140368529081167,0.00643801251373831
0.0901049826802405,0.000238084341894304,-0.0164837133310003,0.00660129317167028
0.0811150760459891,-0.0290422489151068,-0.015674780247801,0.00268444717106256
0.0634590265605063,-0.00749321334954397,-0.00444142898998206,-0.00257073632028547
0.0265070660305794,0.0577975971722685,0.0160793532566653,-0.00632279945022834
-0.0278319708695666,0.110374293930268,0.02992662306675,-0.00754825129043972
-0.0732290928884593,0.120824140979344,0.0323467893525415,-0.00624487682289603
-0.0813937924693343,0.104403319427067,0.0324947491460288,-0.00325809881874672
-0.0635053181067594,0.0817831098160834,0.0329583161385853,0.00027631740082362
-0.0449468042753697,0.059818980258341,0.0348744094142659,0.00339916507064187
-0.0298811226099064,0.0333208812716378,0.0370108762653461,0.00523336268161664
-0.0128260201750268,0.00261875399015809,0.0322666380559969,0.00572033110465671
0.00565555420496688,-0.0155586638283691,0.0241713874879182,0.00549349347722997
0.0167601835919883,-0.0118485606550313,0.0234838105410504,0.00505655190251585
0.0342054806009889,-0.0024183528168689,0.0238187381274839,0.00430717218146011
0.0727593896478317,0.0110702322668358,0.0110029680005771,0.00300176417750654
0.0939201077787575,0.0298970659209551,-0.00787504366553786,0.00168206271579679
0.0634021891693041,0.0322588993463632,-0.0153525085451517,0.000824576521959332
0.00972788737351797,0.0138584723483263,-0.00919894527876499,0.000121204517986627
-0.0254657480370776,-0.0125171066740494,0.00015169646846847,-0.000365199590081792
-0.0354816203967544,-0.023406638454242,0.00403770161355369,0.00035562674509697
-0.0242652463170918,-0.000364461075433871,0.00202818384396369,0.00239707544245098
-0.000982556641406535,0.0412391527883875,0.00484809201536829,0.00372599064897373
0.00791366686892621,0.0776648624611503,0.0148050411546726,0.00236322761204583
-0.00252942474251926,0.101728188345237,0.0175979254341182,-0.000348312885853843
-0.00496576829780444,0.106440706488644,0.0142805725387762,-0.00102569125215213
0.0168015696149084,0.0759983200348674,0.0190546692153844,0.000584372673589158
0.0442306499523215,0.0364036405071852,0.0333755692110372,0.000937825505788994
0.0434233184985305,0.0390665985855144,0.0472741756623635,-0.00248189615428657
0.00585063362896736,0.0518279664028707,0.0525584284768802,-0.00850560147596875
-0.0298566642859883,0.00765808603204499,0.0472607035332805,-0.0145177493842467
-0.0326252684603567,-0.0662731083694743,0.0335557846372716,-0.0182573872397871
-0.0283664017321809,-0.0936167466343799,0.0197517177996105,-0.0179771867421079
-0.0390033500022092,-0.0703302046405557,0.00851110212215128,-0.0137267009909575
-0.0453588439712541,-0.047225458028959,-0.00892807511238626,-0.00692348782967826
-0.0334585576349554,-0.032761665020709,-0.0252461953606376,0.00135419028501217
-0.0131826722255443,-0.015816243938291,-0.025860970145281,0.00956556045134851
0.00250234666024533,-0.0102511280370409,-0.0173212298331777,0.014966261688315
0.0185826757803365,-0.0143687883750633,-0.0137054264244092,0.0154971957511554
0.0459264300530797,-0.0117432729774772,-0.014191787215863,0.0116095941769894
0.0738381678837521,-0.00133252736631256,-0.0095412757286452,0.00538049577761549
0.0793918944186099,0.0177193751343292,-0.00623356091185483,-0.00109212847867881
0.0554073330572663,0.0531777327978638,-0.00931879695637805,-0.00612058352823431
0.0275525566358301,0.0866767493641061,-0.009160363986201,-0.00887718761559254
0.0232090629165595,0.0881145115362304,-0.00424740408471421,-0.00942533631506743
0.0265029892445463,0.0640810868958984,-0.000939670186339135,-0.0081498898241187
0.0142371121111473,0.0505701963527189,-0.000625542075028635,-0.00632172058986754
-0.00469667345000929,0.066096031498698,-0.000930041651488906,-0.00634281001401936
-0.02244744642914,0.0760603309971244,-0.00111240471848242,-0.00915183164690513
-0.0397618663875844,0.0599526354671025,-0.00140957579241582,-0.011694819312296
-0.0472579622406196,0.051313974776733,-0.00296210424682855,-0.00857989046218797
-0.056846562112396,0.0517441756723157,-0.00568477872357307,0.00164595462087989
-0.0872149208355533,0.0317763538743615,-0.00870521636195977,0.0136407587344774
-0.113807587070744,-0.000663200945040923,-0.00846229426921442,0.0214422414554737
-0.101100259252685,-0.0144086581063464,-0.000590461273896767,0.021730653671833
-0.0478211481373741,-0.0146554696547925,0.00255149455278844,0.013589223285305
0.0175365515100286,-0.0310541007040964,-0.0103290258623529,0.00238105835775879
0.0695648069694155,-0.0736346632319255,-0.0289395117826743,-0.00307692952439977
0.105091489934603,-0.12984897462185,-0.0402107255373301,-4.15964718464504e-05
0.117188552188727,-0.131863459360084,-0.0352104757723814,0.00627124838377155
0.0982817440997072,-0.0448764242149021,-0.0188800740772166,0.00941546434918548
0.0806457504271903,0.0352012314578311,-0.0105254763676421,0.00719043396820503
0.0816319606128622,0.0449448143324377,-0.0104962515136992,0.00157210566814885
0.0586389948576186,0.0376210252308379,-0.00668310716055098,-0.00412389412999421
0.00108616239583163,0.0370277569848892,0.000142343882278361,-0.00788321104026738
-0.0330826370637841,0.0113896565887391,0.00657445740747111,-0.00931888564659614
-0.017522133896202,-0.0292470626870457,0.007567505368562,-0.0086570086864263
-0.00100944467791123,-0.0537077761613708,0.000648419793591063,-0.00571420474007633
-0.00941504414091441,-0.0551950234157956,-0.00264425927953526,-0.00106639929853714
-0.0139156467966369,-0.0287441392133805,0.0040713729597196,0.00245453322312107
-0.00975594303173002,0.016831867891837,0.0118133830437846,0.00328451529305802
-0.0141212021624854,0.0506804372067368,0.0129203675264567,0.00382250945535972
-0.0203645237024723,0.0623131932332159,0.0090590237772157,0.00726205217564224
-0.0160653012348963,0.0608824522780512,0.00273827654764064,0.0137600711174562
-0.00310812016749738,0.051782045257034,-0.00196446855430248,0.0203087497637598
0.0135219239877613,0.048547700332133,-0.00250596014667542,0.0233789971735933
0.0335037242555994,0.0459655512157796,-0.00630351772815612,0.0214974534752989
0.0496586960437396,0.0135911122734592,-0.00957260373942604,0.0161760195669593
0.0374534550014514,-0.0303653869288741,0.000175899216189891,0.00974451458661052
-0.00027388407637742,-0.0461748198392415,0.0104885876898502,0.00333980753603806
-0.022461484866597,-0.0477010800243133,0.000858226048893193,-0.000490805972545427
-0.0194143508028748,-0.0496585671223428,-0.0198206599388374,0.00122698479000252
-0.00518825079194161,-0.0521070448241431,-0.0274725899757976,0.00493754774336446
0.0239782390651853,-0.0707836560060545,-0.0180790927407994,0.00325444952332213
0.0603779380018578,-0.10556662985539,-0.00636157207079834,-0.00435712315923183
0.0791950722261658,-0.132106240217641,0.00125979695706084,-0.0117668153115406
0.0768113438331792,-0.128145938289923,0.00583441122394793,-0.0147620460720549
0.0712811605458629,-0.102939728543057,0.0047247858578628,-0.0129526994883613
0.0701318339874789,-0.0835440003163037,0.00285592526746609,-0.00809521767139038
0.0622729615688164,-0.067148655472466,0.00822896523105119,-0.00374966346323267
0.0344140764880856,-0.0313612587409728,0.0186703090670603,-0.0019459169706383
-0.00476905606029156,0.0134132149542692,0.0292439488657744,-0.00195075690400854
-0.0324966529465517,0.0381503755664994,0.0360601910357322,-0.0030514329532779
-0.0440196443374395,0.0570207668011645,0.0346373008725785,-0.00432143274894209
-0.0480964014194191,0.0848660732362051,0.0278629075541177,-0.00393449704526672
-0.0431254588517247,0.0916435315524927,0.0186078534768588,-0.00181551387004838
-0.0245702997573888,0.0641216664158489,0.00179415590524203,0.000282027960500822
-0.00706418760413957,0.0198661459266667,-0.0156260387062367,0.00156315310083002
0.00111034818671961,-0.0112922000384446,-0.0195054980439706,0.00218102736102126
0.0146448141806633,-0.00899145953462296,-0.0127479464199562,0.00240714046450603
0.0423276764821313,-0.00210917081644667,-0.0033665091999505,0.00250158088728074
0.0731028585363849,-0.0205247055811431,-0.000787909738450088,0.00167966632861584
0.0850799487883424,-0.0293537582316583,-0.00936363211256607,-0.000468909943889521
0.0745867143824537,-0.000267899283082473,-0.0140382817638146,-0.00214632204673986
0.0613227958054017,0.0106112254601445,-0.0104827866340331,-0.00214454772039391
0.0448984040217045,-0.0329079007731054,-0.00920893207182251,-0.00179706421791003
0.00662008762963136,-0.0739396433446816,-0.00568547192479625,-0.00290893449527747
-0.0328450973825981,-0.0674131821617122,0.00835589304574699,-0.00584922693462001
-0.0383076598890747,-0.0443470371217062,0.0221444542679007,-0.00933593571225783
-0.0183542804673105,-0.0553858156332374,0.0189236204818176,-0.0112748061270481
-0.0014598361849588,-0.0869837647440692,0.00100896804849685,-0.0101238598414405
-0.00562900102186177,-0.0948159369966398,-0.010586435626544,-0.00634349673507047
-0.0135023334893172,-0.0612900172959392,-0.00654619161215888,-0.0022559290045027
0.0153209927732621,0.0210787764333317,0.00161456903268922,-0.000477997851635247
0.0717628728092001,0.095513215704663,0.00315397638052037,-0.00202942557854418
0.103508943399166,0.091087334102403,-0.00492978531166836,-0.00451973511881507
0.0843085734965774,0.0547470941488399,-0.0138492484744536,-0.00385794985732052
0.0237752881334115,0.0601270781023215,-0.00818799947707006,-6.30529647710019e-05
-0.050477461114529,0.0869212525607707,0.00952384648261649,0.00172990377393707
-0.113980043114232,0.0822426299876783,0.0198090383946696,-0.00126863337452344
-0.151076128065905,0.0330702445026316,0.0145954841431396,-0.00607448817307904
-0.127584503965319,-0.02241161382012,0.0052656526414005,-0.00906363374094865
-0.0547991206828821,-0.0376231981210227,0.00542614176188714,-0.00936704411242134
0.00418173435593494,-0.028553732467102,0.0121569184338771,-0.00753551181674091
0.0220717832814779,-0.042391609966107,0.00803438684015313,-0.00448782738023404
0.00197270348166374,-0.0804015496920986,-0.0116542717805262,-0.00118131372296437
-0.00807120970201256,-0.0929673444988555,-0.0297550343684419,0.00191837851809122
0.0245604937194693,-0.0655857281478562,-0.0309075700195336,0.0039766341121154
0.0506959260786671,-0.038801702386469,-0.0209129496254026,0.00318863065176226
0.0373142646667156,-0.0118984744634238,-0.0143567248614253,-0.000632920872176625
0.00518579384491456,0.0199242957043758,-0.0137500739233714,-0.00384193277896463
-0.0180286309298598,0.027813472714007,-0.0145064286899073,-0.0026442421872553
-0.0268353676546143,0.0294174006370742,-0.0151897956668098,0.00193779773008359
-0.0199705804125766,0.0629159990229536,-0.0104250799059326,0.00596714696047506
0.0133045080241881,0.102656365099322,0.00213258306483522,0.00696800861773416
0.0515245867422503,0.0830585898393355,0.00946000185119492,0.00497610609997219
0.0532164685166065,0.0235195454126494,0.007558666016986,0.00186031708465922
0.0196118774131248,0.0164669408045969,0.00856306839571416,-0.00118047606459722
-0.0225912678427767,0.0697946984606393,0.0124132966909165,-0.00445413335095545
-0.0646162556053638,0.115909984887492,0.0159968154893791,-0.00710320248792428
-0.0965627807779752,0.139602201809564,0.025601701729317,-0.00779283148123177
-0.111327064629717,0.148828445708403,0.0297937320485239,-0.0074180256733166
-0.116153993052612,0.104991340785764,0.0141673952834056,-0.00643105389330362
-0.101944203504115,0.00395276964521454,-0.00533142806979769,-0.00355611884741629
-0.0563838068807021,-0.0755591330765699,-0.00843875242183751,0.000336910775900862
-0.0077110594040198,-0.0806791286794316,0.000497531135944387,0.00244284489464142
-0.000122702842838412,-0.0585070366018184,-3.38401334327876e-05,0.00240597888682696
-0.0183075408546518,-0.0645844766766929,-0.0113884579265676,0.00325044882038347
-0.00623753011152358,-0.0952468821684301,-0.00686788480686695,0.00610056311328184
0.0302064668572027,-0.0970470611513318,0.00596988729263446,0.0077224045526309
0.0437068668036223,-0.055513181057927,-0.00412694461976716,0.00755094395398688
0.0425863999256822,-0.0312796795075097,-0.0202131377211094,0.00928150632500203
0.0549199127648016,-0.0368169658834173,-0.0150091070719572,0.0121916647796796
0.0536652874487159,-0.0406510790603354,3.09703866906569e-05,0.010867883310496
0.0206917676679388,-0.0241926145649918,0.0086635627665242,0.00391113148954929
-0.0126783831180177,0.00545875675351076,0.00840959699692253,-0.00443088343112405
-0.0291039072774553,0.0347761632953301,0.00758199350685283,-0.00969112011060485
-0.035666488497345,0.0747861717161198,0.0174022307666902,-0.0110699906071574
-0.0403351397135077,0.106830897815265,0.024733286778236,-0.0108768700254562
-0.0492638964291176,0.115824790916555,0.0142219536762876,-0.00965477009274319
-0.0621257748344989,0.126794920891383,-0.000417309609571133,-0.00571515972143567
-0.0697618590284984,0.128223217729811,-0.00411390016404835,-0.000509785412191025
-0.0683038652920843,0.0902860874530727,-0.000106117120423254,0.00226111478364892
-0.0457581975509774,0.0161656619871902,-0.00215832061496567,0.00133101588320249
0.00598231953049877,-0.088901795373141,-0.0142938791782889,-0.00194412613599646
0.0510017657325089,-0.187460013116334,-0.0223171302584728,-0.0054242988636559
0.0594864822023795,-0.21298982900532,-0.0204434186898382,-0.00724715155222955
0.0481063632173857,-0.168717220848464,-0.0182869677588936,-0.00644878698824576
0.0394947998777999,-0.113109797295814,-0.0230924224519984,-0.00273572996658879
0.030948759001952,-0.0676227343590262,-0.0273609468763099,0.00423982889323637
0.0142885623438564,-0.0168438389427632,-0.0177614588811891,0.012408933920473
-0.00231479174824695,0.0326745443371042,-0.00534515503082004,0.0161994866458758
-0.0128743775540108,0.0629181049728275,-0.000863152748597343,0.0138595988913096
-0.0264217666864921,0.0751147565608208,0.00367165693935932,0.0101077523062078
-0.0567996057161317,0.0699156907382949,0.0102189633059921,0.0088032627309729
-0.0971392344213,0.061003883848342,0.0196610091297181,0.00923045539790861
-0.120630668371564,0.0786603798904328,0.0309420373768085,0.00751650787173073
-0.121144596503363,0.105205923211683,0.0318618545556685,0.00142615132163353
-0.10205261992995,0.0968178771999885,0.0139752071763229,-0.00477835562945045
-0.053672301357969,0.0378510784791158,-0.0149376211276386,-0.00551831694031319
0.0144722432460169,-0.0666717588695198,-0.0421629439045288,-0.00189107669219663
0.0753883518061287,-0.178287007369421,-0.0553046387569126,0.00154077394550738
0.112855810541652,-0.253275704192416,-0.0512734359437617,0.00318151436428534
0.113446598689777,-0.264048000164775,-0.043062752385332,0.00396904976705024
0.082651431452456,-0.196890985550439,-0.0334259951736191,0.00455682965137465
0.0465446976832442,-0.109659903118592,-0.0169018935730568,0.00272460985209839
0.0145618118493846,-0.0634123380422878,-4.55348306506245e-05,-0.00475290926345744
-0.0173540824002535,-0.0238110098296169,0.00720178259029375,-0.0153445572743441
-0.0447356494494912,0.035862335976988,0.00295037004188547,-0.0218048817813566
-0.0569839667330529,0.07263044354634,-0.00608976562345159,-0.0201669148413246
-0.0501341606929934,0.066581402084879,-0.0147374357240976,-0.0116414653007495
-0.0316186195451704,0.0468272188508984,-0.020424998659919,0.000564778422083606
-0.0176936699036558,0.0316296477118105,-0.0215326572738805,0.0125200364084093
-0.0136942473311742,0.014570974088568,-0.0183941280291013,0.0198871523443894
-0.0151140815745811,-0.00482118218179484,-0.0054658071980263,0.0200543474901212
-0.033124135992188,-0.0110387948119017,0.0170140567454509,0.0134491062821264
-0.0676117139445637,-5.78571033409692e-05,0.0390340574858506,0.00347972123347386
-0.0822013829044998,0.0052742770958546,0.0541336813493296,-0.00532602358053652
-0.072042142753426,-0.00822060629529641,0.0554180667611282,-0.0106383946752766
-0.0726912161633816,-0.0187357867545373,0.0434469906878841,-0.0113260253015011
-0.0924143411590158,-0.0149212242692638,0.030624756644968,-0.0062232766996013
-0.101134517847247,-0.00847264404757552,0.0240689915367823,0.00388380590779457
-0.0644865176437135,-0.00407045354580752,0.0225331303890003,0.015112146514943
0.0171469029147297,-0.00970789721904133,0.0194055011444396,0.0222575157976916
0.120146238304202,-0.0417915591646909,0.00387692568739384,0.0238690316824195
0.201354866788121,-0.11023070802599,-0.0265865092535513,0.0234567163270716
0.215789487342595,-0.169263677736898,-0.0620291015514994,0.0224912442490352
0.165758782897911,-0.137224413309925,-0.0852882555059148,0.0170499344332844
0.0899832965175685,-0.0451878676339399,-0.0742626367576378,0.00549740560866974
0.022215607903622,0.0107318403605687,-0.0278244906388006,-0.00758524127852855
-0.0187683469492492,0.0326111313769522,0.0172664520646237,-0.0174684199549858
-0.0283358732462367,0.0579914356094015,0.0347027728503867,-0.0218567100859874
-0.0342342979223501,0.0770399467718614,0.0358877431894419,-0.0198671979836437
-0.0535540637341207,0.0818440080491527,0.0351355770638247,-0.0136373424850131
-0.0688413854676751,0.08254010326575,0.0358729247322371,-0.0073330029708723
-0.0730678220865762,0.0663401753426868,0.036970596655049,-0.00343943041117644
-0.0691057577160464,0.0212551847719617,0.0342912541223521,-0.00212649014046932
-0.0526361671609416,-0.0307684212935703,0.0240139259493542,-0.00294711818939253
-0.0230116997308906,-0.0666693773574176,0.010061106039376,-0.00542968459379734
0.000898307396171291,-0.0690512470609034,0.00132659689288859,-0.00845414809924841
-0.00884970920025433,-0.034261936514227,-0.00225704609232707,-0.009790276235446
-0.0295077566161999,0.00781788589269464,-0.00732405826227311,-0.00688482936132672
-0.0201960004043032,0.0232273742672763,-0.0177403665678283,0.00151429865782056
-0.00776372173822603,0.0250495044004763,-0.0225859884247689,0.0137209671348746
-0.0173795883994448,0.0735669638486963,-0.00691109041521894,0.0241637721735668
-0.0378126508786502,0.158010691144267,0.0170974983985106,0.0276443774242447
-0.0595997948264352,0.192510834946866,0.0244429060515735,0.0258389777461508
-0.0625190776573416,0.167699849203031,0.0165284193359663,0.022655727362723
-0.0329506667716715,0.125483879525881,0.0127139066826789,0.0171411507857548
0.0157160618177858,0.0399383553205629,0.0134702238090814,0.00872143676099767
0.0492520045166679,-0.095594908626728,0.0079525663251917,0.000984451317330482
0.0518755766475885,-0.163685255269172,0.000705173492719802,-0.00371905591698904
0.0503869140584461,-0.109854013674424,0.00243941514130234,-0.0067042669468151
0.0616306798216655,-0.0411479833979176,0.0108049329122411,-0.00948417137505722
0.0640816323511979,-0.0363181427577473,0.0115766382309472,-0.0119661760448161
0.0488791787697611,-0.0634294485119362,-0.00352683497809851,-0.0134497821025147
0.0340181093195417,-0.0634722261968721,-0.0236440830673158,-0.0138474691850103
0.0206210844748777,-0.0293247743567683,-0.0347813007124816,-0.014027305407094
0.00453973694649296,0.013698232802313,-0.0350152890200869,-0.014309424835487
0.00436211055612851,0.0519848640421752,-0.0261103692934766,-0.0143940831811966
0.0248897508209913,0.0787585526428162,-0.0128177238608894,-0.0150858255098046
0.0364239187043677,0.0883739472264486,-0.00507618448546823,-0.0164964030827951
0.0200952469447343,0.0805469671668864,-0.00467634921523579,-0.0161585685361018
-0.010127157364233,0.0676529506666961,-0.0036832968256996,-0.0119435815065138
-0.0291519231988151,0.0604003895243235,0.00253180377498156,-0.00390203071139203
-0.0247115820847235,0.0576244427860542,0.0123743482188952,0.00669954044219881
-0.0104119450232011,0.0490977780962674,0.0164309874954745,0.0171007010481664
-0.0132573800587317,0.0380085506343656,0.0123233228054455,0.0235323261778632
-0.0406475015295048,0.0484975464789869,0.0155480466420448,0.024422481258084
-0.0662508383155797,0.0711844855033599,0.0300665415367143,0.0212957664955945
-0.0817487984264704,0.0689526192623809,0.0380692533886205,0.0164906170253603
-0.102108915272615,0.0499305652053458,0.0319162233449103,0.0113927615452565
-0.101570874975287,0.0429610139188832,0.0238855795863139,0.00581448637159035
-0.0474021313083464,0.0303948643083962,0.0204380228975984,-0.00106460356197568
0.0344129347677584,-0.0223720913252395,0.0144675793840352,-0.00857959347397692
0.0948291446097624,-0.105534794915193,0.00319672664321051,-0.0146206409715075
0.122118619638916,-0.168030525557408,-0.00572088528030756,-0.0184355241326884
0.118737199989597,-0.176503510823753,-0.00780642201956763,-0.020685066205707
0.0855933806282152,-0.14950826371198,-0.0110927474316716,-0.0212871688080209
0.0543587020849405,-0.123283320486256,-0.0255234369158056,-0.0194832694006209
0.0434644571714395,-0.0976000289674069,-0.0503585057101114,-0.0150088296492278
0.0203702355692288,-0.0408439834152149,-0.0675024348914998,-0.00907616249133569
-0.0310104851071197,0.0455527172857032,-0.052088360442756,-0.00393598533693168
-0.0912728667371701,0.117092071650548,-0.0135758237894065,-0.00103671566270044
-0.134865631854567,0.14116424724344,0.0157567855929125,-0.000120623818588806
-0.13523329870768,0.13048203527086,0.032704095070114,-0.000123509006527159
-0.0886602018495445,0.113259733416743,0.0458030785771487,-0.000558328070314197
-0.025008189280177,0.0728615727740748,0.0465914308903544,-0.00140143356252274
0.0161731706130562,-0.0168645942588681,0.0325790277758344,-0.00165728758502559
0.0213542055173492,-0.0912465175275895,0.0188502378776647,0.000147254368011534
0.00944286778942868,-0.0631280565777824,0.0146712298376696,0.00360135508876166
0.00350658785741415,0.0340928582517766,0.0145545279167272,0.00678362874234262
0.0145344043192266,0.0941225293926763,0.00840158776145178,0.00879533771033519
0.0495351813806048,0.0713334730453562,-0.0102815941088103,0.010566632428467
0.0802860027486907,0.021880024917797,-0.0298284036546148,0.0132578702538053
0.0503928269630453,-0.00449593876781623,-0.0309581103376951,0.0150995584231535
-0.0215819341962928,-0.0333576203516956,-0.0213193858112193,0.0125086759113382
-0.0523990897506068,-0.0788727443346932,-0.019874584320367,0.00616852217339636
-0.0341491019616114,-0.0949292166965995,-0.0180372522581929,0.000202719476803653
-0.035775934336374,-0.0433782885768553,-0.000810984386283405,-0.0045663673336963
-0.0591850579816004,0.0112245685729231,0.0174375867441098,-0.00964925027609396
-0.0428932732694118,-0.00169381950026479,0.0176819345338377,-0.0135918626929303
0.00033483756536287,-0.0209462805561799,0.0068398520302313,-0.0136857501292485
0.017586664366456,0.0112443144564903,-0.00192269258973941,-0.00947436637258938
0.0204377130788043,0.0486956792236231,-0.00629471002893211,-0.00273418226501035
0.0313576322488178,0.0490556729147068,-0.00335501006868538,0.00290338011997903
0.0439857055782969,0.020749461314404,0.00529529858481919,0.00372852426355785
0.0605878230252898,-0.007569020159821,0.00657376641797254,-0.000586345404923167
0.079348965428047,-0.029044279710187,-0.00301523244470958,-0.0063308662868636
0.0799437050568828,-0.0544731459301083,-0.0116632661203349,-0.00965639865665614
0.0574048107070228,-0.0760334773815046,-0.013356417466328,-0.00919718544856613
0.0189448299838295,-0.0738230165583142,-0.0134331046931637,-0.00494108602942833
-0.0339909048907313,-0.050788765399572,-0.0123625922878675,0.00277854052414922
-0.0734995363494368,-0.0361641295240102,-0.00337093127411723,0.0114284993119551
-0.0656211626578091,-0.0280010911624761,0.0122684422190192,0.0154555033096801
-0.0276965185231714,-0.0105042694102628,0.0236651942951542,0.0118788468806946
-0.00520756424306386,0.00258785079743579,0.0213988311948455,0.0048170182075396
-0.00967511101679193,0.00532433396425369,0.0066332707998159,0.000220177396941624
-0.0205946303632271,0.0229288921781016,-0.00302855350588032,-0.00128854687611777
-0.0217823339940544,0.0551433700454404,0.00749108142137676,-0.00258949476876397
-0.010354588882396,0.0567129214695003,0.0267237796632713,-0.00404202394627722
0.0067827873927019,0.0294577535449365,0.0370731060723199,-0.00364849361167689
0.0169097767887735,0.0257276508320103,0.0367930439856488,-0.00222958093534692
0.0133344148047661,0.0472961940213686,0.031343111432382,-0.00283317338775246
0.0176057089173779,0.0440818037114894,0.0203755829610019,-0.00519524862940922
0.0456412642223089,-0.0212134370660744,0.000274324491326354,-0.00647508356015733
0.0659731821929191,-0.125126736915097,-0.02264567641136,-0.00478785679738075
0.0480597768307234,-0.190711174046608,-0.0340017394346503,0.000902403408979356
0.0170978085247123,-0.187545487889541,-0.0309396262427911,0.00908495662243687
0.00711018447609116,-0.157969266704342,-0.0268935620966423,0.0146693719468337
-0.000863945223027572,-0.107660014218421,-0.0234120926938727,0.01351263067405
-0.0350970558212489,-0.0124208198667685,-0.014308457672453,0.00620119677048341
-0.0738028856947939,0.073492021121956,-0.0093316405546917,-0.00268539116472738
-0.0771669731966239,0.0940896965958278,-0.0108045714399016,-0.00806700751856428
-0.0454699232582359,0.0756546980729248,-0.00321989702355202,-0.00832411129602139
-0.0025914691240581,0.041488301739308,0.0169579559879405,-0.00612525078356185
0.0184507237843097,0.00442294525969541,0.0346474041244216,-0.00474330060974468
-0.0122926569738326,0.00276263607059121,0.0380544454703081,-0.00458559238161891
-0.0638535009247248,0.0363699180819533,0.0293792279145124,-0.0040902718535821
-0.0789336252880381,0.0503940029801488,0.0129310535409506,-0.00276218769573091
-0.053249970736139,0.0209165406650494,-0.00678923887215684,-0.00141594094647147
-0.0314005037872669,-0.00289546075199927,-0.0135241634046033,-0.000426291056033261
-0.05243011113382,0.00848999762688529,-0.00220095549693815,-0.000136956515447635
-0.0978287377284711,0.0113522342161895,0.00602033743636077,-0.000882315287488617
-0.108985495948162,-0.0180569441859716,0.00346510527408645,-0.0014568373626441
-0.0724416307326563,-0.0496577112639427,0.00393107117320582,-0.00109144076897885
-0.0330942912281591,-0.0433299067832385,0.00837255915884026,-0.00112089616124341
-0.0166502516615179,-0.00225091587488511,0.0111650252801191,-0.002206953112993
-0.0109610996772785,0.015225072944323,0.00999964819887516,-0.00333063031297295
-0.00205762113763538,-0.0051556508590354,0.00322930809364517,-0.00232490646401483
0.0184004707746623,-0.0142691572592087,-0.00463009442258586,0.00308616604367457
0.0629148230638683,-0.0126290900688171,-0.0134153939165662,0.0111360183697048
0.108614410897728,-0.0370909355386253,-0.0241298172210957,0.0156943595193266
0.105094157563944,-0.0641043467252358,-0.0330297152668501,0.013777537014948
0.0635548456667923,-0.0562766255214344,-0.0398898337819731,0.0089675347585108
0.0150244274939235,-0.0129680761925743,-0.0342179012062773,0.00553669813788429
-0.0430014908322928,0.0378648876463533,-0.00615502955334125,0.0036226705919187
-0.0954423302306491,0.0583058668668964,0.0212284265616968,0.000727330185766133
-0.113196906075612,0.0591653988398566,0.0275589834497974,-0.00384054695730439
-0.0878073868291348,0.0722954033677745,0.0222846110874509,-0.00817479810452129
-0.0364610472046431,0.0863403486851129,0.0115809208526268,-0.011024552230808
0.000736513993938315,0.0928949140357765,-0.000639570036906258,-0.0123665615674463
-0.00983667092992626,0.0928325114142503,-0.0053471992602144,-0.0121410329725756
-0.049190891649188,0.055677984885763,-0.0100843730236936,-0.00915119631611579
-0.0568628605964161,-0.00245633274799785,-0.0220042756498314,-0.00093421984897671
-0.00691204451172822,-0.0187386801747121,-0.01991893991253,0.0102750945712899
0.0505785356512682,-0.0106740366539935,0.00298349659293785,0.015250885991662
0.0572886749941993,-0.0250190090199348,0.0167306935129959,0.0102658549778437
0.0277220787210069,-0.0252331241703167,0.0121638870765125,0.00326153168761195
-0.00319585724698033,0.0161208837075695,0.00127368578088186,0.00141992846787714
-0.0285384504724729,0.0332034394908129,-0.0143559762633954,0.00455987370213217
-0.0257695625170203,0.0169262120558975,-0.0183296343502771,0.00856656741556259
-0.00269657800011412,0.0479856229343847,0.00428231233396269,0.00729279098206495
-0.0255605769263232,0.0978287924252951,0.0279133751854145,-0.000996951416097543
-0.10035110014492,0.0981134148964525,0.0331063234099024,-0.00965838231012478
-0.161321998047012,0.0957114135400518,0.0351573914611677,-0.0126811134967423
-0.181978054180183,0.109258056085237,0.036164338514175,-0.0129454098419731
-0.163715775003101,0.070177730110426,0.0218468805230773,-0.0153368466822525
-0.111098117766166,-0.0220171978767628,0.000825634317825709,-0.0175067209068057
-0.0512876807880643,-0.0740250447321685,-0.000339836535914968,-0.0150274189475749
0.00091610665692779,-0.039294725608079,0.0198716124978631,-0.00883768020067477
0.0456211024721581,0.00661652466167925,0.0280421132086362,-0.000959253676884961
0.0820897059369412,0.00455299550899798,0.0110711515355984,0.0109329563975258
0.0918399253624334,0.00233152775069026,-0.0100894085399865,0.0266465994789928
0.068250725788332,-0.00124553751254167,-0.0295366070522498,0.0360330849729366
0.064737500642079,-0.0580912186950342,-0.0497747002668847,0.0287541084029041
0.0853425219215227,-0.104945146408072,-0.0522258996038368,0.00885264809509227
0.0521250626594188,-0.0628438317102345,-0.0290633353116452,-0.00742325190108326
-0.0512830187181344,0.020979471468311,0.000505420155206077,-0.00684741448846224
-0.1611513321719,0.0695166843300218,0.0238415587477095,0.00646973140344873
-0.197379406024734,0.0682329926047256,0.0344093732107167,0.0137023254475406
-0.145304207932667,0.0469754610631073,0.0307864634312387,0.00437019855253567
-0.0941604346997827,0.0326147389491475,0.0258516761119981,-0.0125234371927714
-0.0977463439133768,0.0396747682665499,0.0287892126328792,-0.0235671867336702
-0.115992632222369,0.0643478238326216,0.0364854986173218,-0.0259914343018562
-0.110596231354525,0.0829329097579082,0.0399691726626314,-0.0261778016932896
-0.0873172032459785,0.0869780090573322,0.0310755087080868,-0.0281256196845569
-0.0623921955173597,0.0724627141929803,0.00688593271875386,-0.0264005785604363
-0.0206404975280419,0.0289755682475392,-0.0292768625541584,-0.0132592766788982
0.0645439949134576,-0.0394281438808842,-0.0679141424372994,0.00978290117997881
0.159345986837173,-0.129093683380487,-0.0849089364514309,0.033485620946092
0.18390785345076,-0.200203384852434,-0.0643086336696633,0.0493678153137259
0.122709783192936,-0.162931585522986,-0.0278283755332019,0.0528017766062802
0.0438030397661043,-0.032912576588004,-0.00525590925844839,0.0442456755033099
-0.00186867287525957,0.0650141513518224,-0.000335942674512028,0.0284680212138563
-0.0288807630371392,0.0866603936392998,0.00339671790369144,0.0105935256076142
-0.0589852285488393,0.0752315796515682,0.0150038953222186,-0.00466781983518234
-0.0762369616615381,0.0450412779083731,0.0216143369082871,-0.0130794291070965
-0.0658584759400933,-0.0166755699873707,0.0142540941803028,-0.0132255110493053
-0.0610120032095949,-0.0699100115430202,0.00604935690004194,-0.00797568318379919
-0.084176444033822,-0.0617970238641194,0.00587021996511749,-0.00357729138374684
-0.0999052905127417,-0.0220631845423293,0.00970833203811198,-0.00414554511094768
-0.0817600341644605,-0.00462416875785985,0.0139193381367674,-0.00769156995463062
-0.042685364526088,-0.00544164657668703,0.0173487319752805,-0.0103639444544377
-0.00382179227045373,-0.00803440144120542,0.0195116070971684,-0.011936206481256
0.0217627574582246,-0.0171803659604963,0.0154322120711938,-0.0133440498744712
0.0331529738234238,-0.0263152066364551,0.00326162366833217,-0.0129778939871061
0.0439801567329722,-0.0228641766822602,-0.00834280546158163,-0.00922305991847522
0.0668273977041256,-0.0123579560259511,-0.0125119815941495,-0.00138451079903498
0.0869555858974136,-0.00236028574360417,-0.0140955257157936,0.0106770079599477
0.0852442087346005,0.0140002439111485,-0.0186074425134534,0.0241881189753721
0.0667356917387746,0.0393136470303361,-0.0198550500648661,0.0335163209096727
0.0480129893161936,0.05025450228319,-0.0149976045326239,0.0336985608265675
0.0425703847023902,0.0137167682751648,-0.0118276798745579,0.0246623946548927
0.0506224696092605,-0.0708593389579518,-0.0176105054341617,0.0118347012163944
0.0577474570516053,-0.148523580475894,-0.0361787706295729,0.002074187890211
0.0498359327576409,-0.14631038603382,-0.050042919002714,-0.00126551215522513
0.0438334348520825,-0.0792951849442165,-0.0416842127477886,-0.00107571761016974
0.0617313513944526,-0.0297135637078228,-0.0292002291210263,-0.00291954317188079
0.073353557860281,0.00194019133710034,-0.0209980618687411,-0.00867518178180095
0.0473023131645869,0.0297008268596113,-0.00467941012128929,-0.0165110181186319
0.0247104991511037,0.00984712386655261,0.0116171198901155,-0.0239974332367091
0.0447315918532801,-0.034275353839052,0.0178333995281671,-0.0281602924952832
0.0638310785906868,-0.0286148812525428,0.0219412784494299,-0.026539817489633
0.0418326337888492,0.0375408976258533,0.0249023560804871,-0.020221468503168
0.00713304004749807,0.102490695296663,0.0209016255477505,-0.0124907521633508
-0.00359860811864139,0.106911896128298,0.0147016434288454,-0.00471533805715178
-0.0025765613615123,0.0596358094292131,0.0139630194576368,0.00338679533384099
-0.00258472128568449,0.0112390240829673,0.0184193513306812,0.0108700162429889
0.0285676229907621,-0.0102350233069513,0.0217976194831053,0.0148569408282729
0.0825810386609537,-0.0198787534058263,0.0228801023539994,0.0122057842553373
0.0985877745692797,-0.0271272195219477,0.0242404070786733,0.00265189636106671
0.0687976372514047,-0.0259975322913448,0.0246368930935555,-0.00896904238655309
0.0488215514479749,-0.0181155452121409,0.020777990656555,-0.016911562780561
0.0610697554669974,0.0143682103545217,0.0110663986813702,-0.0199911721266238
0.0699409179118963,0.0819647191698039,-0.000789907422060185,-0.018617677754223
0.0601905465617107,0.118785409624075,-0.0189013852287061,-0.0119669015089635
0.0474907383762535,0.0548463679913143,-0.0490943619423502,-0.000186362940579915
0.037557725399194,-0.0475697598336112,-0.0648195481037469,0.0137887034610887
0.0377641213763114,-0.0940620263063228,-0.041569650967796,0.0221922618271994
0.0593854615989802,-0.095068846452458,-0.00135185173376034,0.017106212431416
0.0787024419791496,-0.0867214751560343,0.0214898232960828,0.000993019950981784
0.0629141642677597,-0.0563183664902128,0.0177324782306987,-0.0150670683343308
0.0310299597545916,0.00672823546277389,0.00746188136989876,-0.0231772357429783
0.0352208978796038,0.0460901174249699,0.00457479605662449,-0.0237718189688246
0.0720149501849259,-0.00373567503566909,-0.00483543836570784,-0.0207289531917077
0.0616160741475533,-0.092559097757158,-0.0184463694087273,-0.0152931054402582
-0.00776090373971877,-0.102657911854885,-0.0102893957610459,-0.00799060611923005
-0.0499032049316235,-0.0436423442309609,0.0127303771145822,-0.0022169934435938
-0.0283691718010127,-0.0216734501326256,0.00933153616258577,-0.000216469487772204
0.0069096498145919,-0.0242637252746672,-0.0258702312915644,0.00109682851709701
0.00211547627582728,0.0367623959991388,-0.0509008589870455,0.00560780189909423
-0.0333846236288947,0.128331378925731,-0.0360157645836415,0.0114552257701444
-0.0537271715555195,0.167415409048724,0.00169121710589615,0.0135138019116323
-0.0297509253569965,0.147226384810597,0.0233539208313451,0.0115988644544426
0.0357775232911812,0.0869073138943646,0.0256274511884485,0.00995514110564898
0.0920289132182766,0.0282222422366697,0.0332563465795727,0.00986712789222645
0.0855661616126325,0.00659207785047246,0.0427054269442421,0.00910482702506807
0.0337046521089411,-0.00405007759997797,0.0294592781862213,0.0065164361151657
-0.00210887826583891,-0.0413951196935427,-0.00086329882530263,0.00334014441291915
0.00115009011648745,-0.106819204176255,-0.0184060468824592,0.0006404934841497
0.0131499263217497,-0.136582455993176,-0.0156802123609431,-0.00198837674223569
0.00971207425762413,-0.0750184677069411,-0.00642654092998939,-0.00490653412048813
-0.00399056048007652,0.0360018415271789,0.00246456058818267,-0.00689616559343617
-0.0370688549645734,0.132589484207399,0.0121890083416085,-0.00547666309913815
-0.0884233331465077,0.163884311591155,0.0163321233191435,-0.000162314867332181
-0.108555966385035,0.103501797497898,0.00828838116066741,0.00501727782613376
-0.0775215000946443,0.0136818649509899,-0.00264461870019329,0.00534349720813727
-0.0183238994261955,-0.0167583369372804,-0.0120398373542654,0.00110308856032281
0.049635147067114,-0.0032058977939947,-0.0327285197061686,-0.00270903935643323
0.0875918347806037,-0.00322408744007852,-0.0630980173552647,-0.0014204051531825
0.076750681644453,0.0210359438804162,-0.071255229476412,0.00476461305909502
0.0542147458035504,0.0718692963567363,-0.0393680298270175,0.0104237284089812
0.0531364189864015,0.0444741210697741,0.000724450205927096,0.0106047464802765
0.0902163035722913,-0.0915105147976283,0.0115310210673955,0.00693820409115955
0.141436379918762,-0.235233395952346,0.00335163801869169,0.00497405623237258
0.130074173360555,-0.257796730361278,0.00561739092403138,0.00573317050511793
0.0488476666955726,-0.113959574075364,0.0116937441101576,0.0050814491112976
-0.0191847752165523,0.0997833254228602,0.0067540121024265,0.00108984154542088
-0.0378949613748561,0.230983940250348,0.00331821649531627,-0.00437258650213117
-0.0419707420581648,0.220948424983548,0.0083596242347744,-0.00919471279144778
-0.058068370002794,0.118512564658588,0.0106425743917263,-0.0115716437976805
-0.0792982902746449,0.0156017200347827,0.00714362712697617,-0.0101105971471063
-0.0665190582397939,-0.0351178325042128,0.00156671832392469,-0.00547444778276632
-0.000989569771165072,-0.059591006900745,-0.0102264153211745,0.000325046733266424
0.0669456832763377,-0.0679884878450397,-0.0256301523907426,0.00535986245621059
0.0814279497108091,-0.0454916581442153,-0.0332214831940444,0.00763680005515264
0.0405504191701286,-0.0151322046036198,-0.0260285118625398,0.00654292566559797
-0.0110879685096477,0.00558013635681094,-0.00838487709407137,0.00288033353816086
-0.0321910540062254,0.0192223653031643,0.00292269751514696,-0.00236385118297991
-0.0302663696361415,0.021318320292885,0.00124681152812756,-0.00695828622160783
-0.0305785861095622,0.0262118575132378,-0.000166149295684058,-0.00853844324219147
-0.0229353909425018,0.0502068264863982,0.00686362834612934,-0.00760662963463148
0.00870902089300234,0.0682034052401298,0.0122539839322681,-0.00738873839999237
0.0498035305620584,0.0567915913608882,0.00752382937536265,-0.0095019026750222
0.0894855154879898,0.0282484798568746,0.000318045560941879,-0.0112904068615558
0.12225970142735,-0.0010023686082736,-0.00223924320309203,-0.0099894028426065
0.110881091645194,-0.0283595547743855,-0.00364163531429322,-0.00628097785282266
0.0349776912284812,-0.0529195882358659,-0.00532163934076918,-0.00214100496859629
-0.0435786898824062,-0.0615945863412134,-0.00507708795300938,0.00179506560329464
-0.0587474599142483,-0.0397856632782838,0.000537204899931247,0.00541733736986408
-0.0321945243242689,0.00213030536406289,0.0130562455325672,0.00667400628573016
-0.010343061119939,0.0237665482068582,0.0222481195680244,0.00355162308557723
0.000532556568314605,-0.0159540130003627,0.018590889067752,-0.00183964095554416
-0.00761735894619861,-0.0831580520253828,0.011220393728501,-0.00498415435971495
-0.0429447424713845,-0.0864774133154337,0.00849905890906844,-0.00474674849979032
-0.0807921036445968,-0.0300182048230963,0.00181897486631845,-0.00419529902715112
-0.0973203462485427,0.0105771188486458,-0.00845817129885842,-0.00495609406274837
-0.0898275915429651,0.0142117946775614,-0.0110340418969277,-0.00581541945232498
-0.067403202446982,-0.00862454420036647,-0.0106124444197327,-0.00633382347261377
-0.0480926443442557,-0.0622909793695939,-0.0210762818658166,-0.0064258797689089
-0.0384132185834642,-0.128863407727948,-0.0349631880562066,-0.00395830608073055
-0.0288959312018943,-0.152410171564921,-0.028953959030132,0.00355076313734795
-0.0152430545003704,-0.128951048164361,-0.00444315002017868,0.014379411532215
-0.00422828459380278,-0.0993296205133096,0.0178239531966228,0.0220697945506075
0.00648367368570827,-0.0642409513256216,0.0315514312081394,0.0204414132672323
0.026267326780154,-0.0142833987853377,0.0353510146946196,0.00933135041405052
0.043037190865375,0.0411941545707622,0.028233996588282,-0.00280419871070092
0.0356830207904519,0.0906984632933582,0.0215642504221375,-0.00700069956088563
0.0153426780709512,0.125730607332726,0.0226855332724427,-0.00500250451746987
0.0149621475378785,0.151583234827685,0.0284182257458486,-0.00510699421489033
0.026737720636577,0.179030754521168,0.0359879007954586,-0.010458468699208
0.00285115961863207,0.206671105406005,0.046663641729691,-0.0168571873899957
-0.0527476581810731,0.227296732432394,0.0592615330428468,-0.0194115217033978
-0.0895513293654101,0.217353845723105,0.060414921352282,-0.0171174794135444
-0.103584883076896,0.142794301169032,0.0435004016697067,-0.00988388480812744
-0.101612431299348,0.0110555969464653,0.0247315292083904,0.00248258784965054
-0.0678531694596334,-0.136055213995379,0.0179762114419204,0.0157824820474566
-0.0187768919376744,-0.246669738877052,0.014280535201447,0.0233365799074693
-0.0031442276875535,-0.271299716788711,0.00260449946115607,0.0223430510575459
-0.0143521966983954,-0.221785901899104,-0.0191041833211774,0.0152389547213621
0.0207330276154165,-0.162846558849716,-0.0495429232758536,0.00819760658169654
0.0936695657441649,-0.145771623433371,-0.0710642683504026,0.00800570362480484
0.107520882927752,-0.133246459603273,-0.065474509005734,0.0161519012934108
0.048192269853613,-0.0243648288803745,-0.0399721906279039,0.0248117124068348
-0.0120567844234787,0.14332318082688,-0.00759640576217455,0.0229345519700201
-0.0367491253921082,0.22934724051714,0.0272006434331252,0.00845331144204834
-0.0360524898888888,0.219265814483526,0.0553016391600869,-0.00809617973043998
-0.0329195370379924,0.199648711826556,0.0665877176434104,-0.0152464465644969
-0.033414327595733,0.205293459369568,0.0569707189665993,-0.0132986206770846
-0.0213061219555267,0.176329248426203,0.0275128321055638,-0.0090836754561257
0.00156122873075771,0.0989974422679212,-0.00595377957682377,-0.00458424363343657
0.036230940319886,0.0307915617248697,-0.020541106453126,0.000164620657512281
0.0896208810079233,-0.0384604278872376,-0.0185093403918175,0.00155583288820441
0.129115573699622,-0.136089725269662,-0.0221034449051071,-0.00204187730428525
0.133747494114801,-0.205312717796218,-0.0301893712246669,-0.00693629828383445
0.111866353643167,-0.166128051909755,-0.022518101639554,-0.0102015888101781
0.0694431578047792,-0.0579228970368605,-0.00296576602148686,-0.0131435185630359
0.0345318329539621,0.00180427488823348,0.00414458688685077,-0.0166728559686764
0.00826882120431272,-0.0231860254421025,-0.00605820166722945,-0.0183742515594352
-0.0403343822269646,-0.0532870450859775,-0.0111736611959538,-0.0156142179535219
-0.0823370441278102,-0.0135904901608944,0.00444822593620131,-0.00797159938242826
-0.0754422826080128,0.053825062095589,0.0212013749879107,0.00341662094126177
-0.0448724613716215,0.079359449033372,0.0185209153763046,0.0163786178870535
-0.0166892144834854,0.0733530381506498,0.00630451009777215,0.0281755690358951
0.0354880189439885,0.0834371860830811,-0.000289058102914585,0.0377751578803221
0.107177695509804,0.0987093877865682,-0.00179426975358647,0.0458474431263822
0.140743055856951,0.104269818386387,-0.00872661848527361,0.0518061636399249
0.144223680048863,0.102506126487312,-0.0200830333651157,0.052892281836949
0.16431045157879,0.0338141461691212,-0.0244758665513469,0.0453075361177127
0.166691156495689,-0.084731764692715,-0.0226505592913717,0.0243952897518593
0.117205161227292,-0.141576947765124,-0.0231453075679609,-0.00956157079270745
0.0623615772482431,-0.127196498864453,-0.0183123039128849,-0.0448290650949033
0.0460220869412342,-0.100458234691781,0.000232413341448898,-0.0690121601228618
0.0552589394555321,-0.0871326334793845,0.0108824893515467,-0.0797163050241037
0.0531041454537175,-0.0856273592723464,-0.00494435517437195,-0.0770900712684094
0.0353499854875344,-0.0751296422911787,-0.0263232997612728,-0.0593350722259312
0.0238591141840405,-0.0448239106682717,-0.0266921025650149,-0.0292925668849333
0.00561450287680447,0.00232133643740164,-0.00954457060751897,0.00413661328281108
-0.0340814961256152,0.0370873380332458,0.00330189179477777,0.0312495247056713
-0.0503048231781814,0.0225509290705156,0.00117389817768228,0.0459437102975521
-0.0117455101063998,-0.010611006883229,-0.00170999482901492,0.0470197769587638
0.0291205180559107,-0.0327770778096127,0.00581905248083385,0.0371816439442591
0.0344451293880357,-0.0677003277790289,0.00984966660087923,0.0249656841072013
0.0360368440425702,-0.0977744195826212,0.00513482788604039,0.0217866913441285
0.0568315557946672,-0.080512699664571,0.00769388565041736,0.0281140124394459
0.0822125945582717,-0.0310251995395217,0.0149638161998644,0.0310351391815078
0.0792121651565112,-0.000238839972593413,0.000483967670323507,0.0207540889429915
0.0380298898469996,-0.0023484916762563,-0.027698009476509,0.00294490230613484
0.004455692120798,0.00679773390889274,-0.0275620679936497,-0.00997617039466915
0.0182889030633158,0.0342721097075423,-0.00298057407335077,-0.0151638502902862
0.0605847107285073,0.0237945805268799,0.014493895591688,-0.0174498688325896
0.0985090543926152,-0.0260759444925044,0.0203278137187849,-0.0202028630092805
0.103452791489745,-0.0604316620448095,0.0208284002993308,-0.0239652048208722
0.0522291769499765,-0.059073070500593,0.025031897428348,-0.0270309199574393
-0.0138767959412154,-0.0313976901014477,0.0310676902759669,-0.0281395776221786
-0.0201891739837294,0.0120932812483453,0.023381229349306,-0.0267901510589834
0.0266267713281281,0.041252250157714,-0.00142302929660882,-0.0221354247612338
0.0669816897391936,0.0172207607834994,-0.0337845344430685,-0.0127973702092244
0.0817768258848669,-0.0428119606254933,-0.0549708891437884,0.00379343367557401
0.0574049732541429,-0.0717298232327633,-0.0515855760377772,0.0253574083775207
-0.0187189119002707,-0.0422752733984287,-0.0280106894182238,0.0420224987333513
-0.101115192848104,-0.00561296493590402,0.00399031295278956,0.0477890318619808
-0.118205805320775,-0.00799364259267283,0.0231269804446228,0.0459086570258761
-0.0673924683669072,-0.0111580175944306,0.0198497482212813,0.0397533329463268
-0.023813032531435,0.0296844377147688,0.0146640905185374,0.029184128144907
-0.0224838552226287,0.0989637485429445,0.0234900137020111,0.0140442410946918
-0.0265910285562379,0.15580516792905,0.0392448093104731,-0.00467095494851771
-0.0038269255154049,0.157242172480424,0.0492742188350369,-0.0238061485730977
0.0443591021340401,0.075446613234586,0.0450005060444946,-0.0384594623618839
0.0824633373093612,-0.0398652204041484,0.0251424248482591,-0.0447006902138967
0.0722858831533343,-0.0822566999664421,-0.000547799223477197,-0.0409517400237049
0.0357361014045919,-0.0552434675878476,-0.0210507857754883,-0.0287127690645284
0.0156998882131411,-0.0416157475560719,-0.0419082673572828,-0.0135530527136629
0.0111598968630828,-0.0362952323929943,-0.0717851615215166,-0.00166318530616751
-0.00704436565991111,0.0124210351487682,-0.0858091537404808,0.00578137817359356
-0.0621418353595511,0.081111427256641,-0.0564162798714876,0.0104201253370706
-0.119931888547626,0.100963638596571,-0.00735608000394826,0.011840786029027
-0.127029165271388,0.0858719327028161,0.025896208522869,0.00937126250031429
-0.10573824716653,0.097865825705307,0.0425536389509957,0.0046674179972062
-0.105527215780831,0.149882569835122,0.0533356727547149,0.00048898978739226
-0.105856532138077,0.197453311961276,0.0576993381960128,-0.00173680222548886
-0.0588309025330905,0.155735757674817,0.0492273058243715,-0.00270456950208337
0.00208287356338116,0.0209680201225628,0.0278477930573588,-0.00301562555184418
0.0161967188716274,-0.0659543305955158,0.00870763125860279,-0.000966375433707327
0.00931803360424998,-0.0100049471173556,0.00955312100275759,0.00445854765601703
0.00985380194040133,0.0815072088993983,0.0229108539855745,0.0093891089088171
-0.0196435539436221,0.0805774767389484,0.0248123331676985,0.00945158171873931
-0.0563098693898675,0.00801117900587824,0.00908044256799896,0.0059242351654415
-0.0201979658185148,-0.0768377689290651,-0.0154895476380218,0.00196566317003491
0.060344926453604,-0.134609240592872,-0.0410162059209696,-0.00203292920392042
0.0822779708321387,-0.134246625377927,-0.0516771446198858,-0.00579193806857281
0.0161068335290702,-0.0740821399032464,-0.028322344380716,-0.00904171424232809
-0.0870356950885031,0.00780079465344677,0.0145822122606109,-0.0147687171224606
-0.149824596420639,0.0580043083391076,0.0373897656235989,-0.0240171453026277
-0.129490406226197,0.0750377438396013,0.030463657198625,-0.0300824229169351
-0.060013141915223,0.0880916709657795,0.0147966491620432,-0.0260130939620493
-0.00118929399572258,0.0883904319608302,0.00155654338879634,-0.0130794600072928
0.0222196188733207,0.0620825431958415,-0.0120678211201796,0.00200682868666933
0.0305345379255061,0.0352060686439505,-0.0190158647477611,0.0122621568680193
0.0630141741493713,0.00365016057132347,-0.0197288151529363,0.0127166276244511
0.128721624985484,-0.0520234913064445,-0.0295900361672416,0.00459608386825676
0.166853716582972,-0.091057863952547,-0.0396231066838482,-0.0043900333589205
0.110053248200653,-0.0816872646561998,-0.0307595120388557,-0.00881703696533728
-0.00658779079334343,-0.0350535107354965,-0.0129029745623787,-0.0102502632010849
-0.100599257037868,0.00461908280234606,-0.00169858657550979,-0.0112421500718746
-0.128359231505841,-0.00663777376269999,0.0109319496452656,-0.0110073278924776
-0.0814854189793997,-0.0346898136384689,0.0292996850329798,-0.00942202127565129
-0.00637226958140272,-0.0406755687859326,0.0382869142005273,-0.00901593814350212
0.0369343047088491,-0.0261674935046028,0.0323404723411381,-0.010164668889475
0.0462525397359133,-0.00390849199727975,0.0223245673449291,-0.00977310680159987
0.0284591592217746,-0.0477363655244467,0.0112840718826103,-0.0052260795970494
-0.0170778450854107,-0.134471759660872,0.000974421538092834,0.00368331658066323
-0.0526740216220465,-0.107917005867866,-0.00581391875080236,0.0126259847158345
-0.041282652989843,0.00171849409877237,-0.0252725493519029,0.0158145309458778
0.00469415035426131,0.0513530933205432,-0.0548698067671053,0.0144741671524199
0.0449901413854834,0.0373574292722889,-0.0631477300367542,0.0127317478265331
0.0572545484863251,-0.0122687357306822,-0.0440899286774118,0.00939275034765785
0.053668658382629,-0.0842683300736628,-0.0189409580817207,0.00210283502629089
0.0546919793639064,-0.108074816580711,-0.00121965858875629,-0.00679645642901343
0.0635252227720024,-0.063564235692894,0.00203434532549555,-0.0121948369502954
0.0636871330293567,-0.0328213508991179,-0.00946739129553047,-0.0113432768085766
0.0479003742860757,-0.025741966398767,-0.0170527114526257,-0.0055593617666469
0.0327090404546666,0.0141684985305524,-0.00979343520323767,0.000853708523570459
0.0273841840284146,0.062166550945005,-0.000700059765540689,0.00279387144560046
0.0283906310885641,0.0734813662294963,0.00188397032546994,-0.000563408833858843
0.0262493290214835,0.0530793055988903,-0.00125490874686758,-0.00537308973299781
0.00998829491560392,0.0320533298731892,-0.00635192013192925,-0.00828173032763063
-0.0152242366941865,0.0563800802368409,-0.00192421573620406,-0.00884229842406217
-0.0468747338574586,0.0957839004656716,0.0142540244128752,-0.00869116277416503
-0.094989205206763,0.072689868778734,0.034321293165557,-0.00830875685171411
-0.147981624123338,0.00758181023476587,0.0462833434721847,-0.00611475076592894
-0.194596152546606,-0.0413472872603351,0.0417707910840008,-0.000284638557799621
-0.226851283315721,-0.0269644215393113,0.032652747730902,0.0111922107239913
-0.211423035791329,0.0555670784955534,0.0301166034461419,0.0268114247992695
-0.170588164612459,0.116636190286681,0.0294908563373483,0.0387955943290851
-0.166475248718457,0.0897198305221205,0.0311257687675896,0.0405193557383854
-0.167452902451842,0.0420848442552375,0.0393215734897151,0.0314837033489009
-0.0991976599557722,0.0494195328948527,0.0468280606803265,0.0135418318321873
0.0169763377521404,0.0408364514355846,0.0429642075165999,-0.0091051075048499
0.0834634207136513,-0.048292425776864,0.0210056483557369,-0.0265863075944578
0.0626157037970561,-0.0962213686944928,-0.0120779503569666,-0.029480407088223
0.00408789108491984,-0.00643881201313624,-0.0409955710170034,-0.0183989825640698
-0.0568724822481893,0.100301488964869,-0.0516594335767151,-0.00189521660440925
-0.101539985859326,0.110652826288278,-0.0340746377010459,0.0113976709078603
-0.107189470487178,0.0695738979342473,0.000265610847660733,0.0170932561173368
-0.0816069327545442,0.0312460586597555,0.026247656749558,0.0153711406256965
-0.0357614694403046,-0.0431923224514522,0.0208343968865624,0.0091401671419667
-0.031704396882229,-0.145986594454413,-0.00207676382626096,0.00264708029834482
-0.142747753600481,-0.15978045542648,0.00716899982388492,-0.00145376093109407
-0.274124384470185,-0.0577856332920975,0.0539887974148721,-0.00382029298045392
-0.279266137714335,0.047231607064378,0.0915503965728559,-0.0059340127863081
-0.181046788227815,0.0805151917767661,0.0908503668462624,-0.00642022807815962
-0.101758888873248,0.0717945781265541,0.0624127800189713,-0.00102921745133705
-0.0683932783155912,0.0654433206951471,0.0266799667234847,0.00989135517437846
-0.0218213817689561,0.0614648888704232,-0.00418612979044994,0.016759633243545
0.0557834662395783,0.0737109910932158,-0.0186812212348111,0.0118709313439591
0.138755671099877,0.113319218952618,-0.0147603461167032,0.000181579301783447
0.182961592023806,0.0823192133806697,-0.0183364512647716,-0.00839178379011302
0.159468113093531,-0.0557740096372763,-0.0459111569116957,-0.00812363585713323
0.098089995887805,-0.177162146806186,-0.0689743895581325,0.00162298709122668
0.0348312484649955,-0.208993457880915,-0.0585136118041208,0.0145027993218794
-0.0335713084312217,-0.16790654418352,-0.0196961142979233,0.0191406525593625
-0.0946004578536556,-0.116840166138501,0.0212746530593286,0.00955819949114685
-0.100902975977629,-0.10567536550859,0.0378313999009508,-0.00807381579829185
-0.0543969337003228,-0.101838538307263,0.0276251849335373,-0.0224094371929102
-0.016138015073058,-0.0881540160995496,0.00980535080377533,-0.0270071783543039
-0.0196021587030687,-0.0799951134647399,0.00183805537305348,-0.022452418666543
-0.0391790797354867,-0.0682362118324468,-0.000347353996521984,-0.01367621681081
-0.0358987386695311,-0.0364120167208157,-0.00699998672152654,-0.00599325679310911
-0.0198434920138312,0.00608988165990472,-0.0127625775504172,-0.00125230930885024
-0.0128117983479786,0.0373220754102924,-0.0140682368987908,0.00284987913136828
0.011554309523257,0.0555573530683257,-0.0102781189672054,0.00774056929099236
0.0517687660895445,0.0651289526125437,-0.00122293613897242,0.0108617641706835
0.0473124508190007,0.050032360846446,0.00165738734148605,0.0107620893564581
-0.00574562796091352,-0.00147722843148082,-0.0102145546563172,0.0100089791632785
-0.0374454639065233,-0.0287188484738593,-0.0236443834196918,0.0108017066807511
-0.014972124121448,0.00711949131917143,-0.0274122451558062,0.0117875476112682
0.0336263920594884,0.0481873238264119,-0.0281698042449386,0.0101882802367011
0.074448706381363,0.0463791911949377,-0.0304917423936802,0.00497000817098613
0.103236459746193,-0.00603297365448249,-0.0393373372937632,-0.00223981755654931
0.110681965253732,-0.0717501776186966,-0.0524821840122525,-0.00802626820679746
0.0920020810337792,-0.10453583462385,-0.0544658030608043,-0.0100785960400568
0.0745161404895602,-0.102440612612138,-0.0424640851890919,-0.00923143597158306
0.0626918795698105,-0.0739839160595628,-0.0250129644543266,-0.00709723535490842
0.050122209600159,-0.0571925762557812,-0.00626360501522203,-0.005133691645698
0.0248231949534312,-0.0743706370570665,0.00814445350234791,-0.00571383220275652
-0.0216679619518794,-0.0640241087275314,0.00889331805818541,-0.00792633729899352
-0.0555043388430079,-0.019013053912105,-0.0010913772758146,-0.00720482030557581
-0.0354004595810637,-0.015731550835327,-0.00508255588775374,-0.00269920369801482
0.0279624199241812,-0.0474446144399892,0.00585150794848276,0.00212022436516114
0.049848464093107,-0.0406110936159818,0.0230165864603971,0.00454765053583205
-0.00226400810318851,0.0397800492226369,0.0352056719698487,0.00429033950792191
-0.0576179147657416,0.140400010838765,0.0358107752184967,0.00223657457789908
-0.0803361865972255,0.17425023295086,0.0243196299335568,-0.00119953354948862
-0.0785314111634171,0.164415181074478,0.0129840258181613,-0.00676699407491906
-0.0616498778412669,0.160786513103851,0.012222260310371,-0.0138927128127535
-0.0534384968283761,0.140510506115106,0.0176896492644076,-0.0171691213547034
-0.0539969958477278,0.093151391586425,0.0192995219595341,-0.01140747234326
-0.031151333117575,0.020858854386225,0.0162710182972861,-0.000926652199280825
0.0136548303173089,-0.0770160336374413,0.0116773862367378,0.00482301171012426
0.025200182330848,-0.160169552981984,-0.000869472356727366,0.00381741340733947
-0.0335199642940959,-0.156623983469677,-0.0247468110075604,0.00270320328439677
-0.129255087574854,-0.0370689947764424,-0.0394014778706677,0.00792695665327066
-0.193174553298671,0.118131740294965,-0.0265480139446804,0.0178713562488895
-0.214677813730909,0.202442268494182,0.00546317562517156,0.0256360560547371
-0.229387424665493,0.211408779983354,0.042312778116125,0.02816838815487
-0.217687705958192,0.176340753108322,0.0596847465508271,0.0239061285938911
-0.165410124043709,0.121501078545225,0.0509628009469891,0.0103636680411438
-0.110560578741245,0.105893236107079,0.0467071127644018,-0.00708277762268063
-0.0509265789075818,0.0993053664033709,0.0556730352960013,-0.0178808695609221
0.0338384249521471,0.0144519285458983,0.0538783292292418,-0.0180137476234607
0.108898549697858,-0.0992951872449454,0.0287743175489785,-0.011139850039919
0.124118203252757,-0.148941058981234,8.94589108131616e-05,-0.00297355038160289
0.0822821366569129,-0.130070618142812,-0.00721937663920653,0.00266686560509532
0.0596817584943637,-0.0861941445839619,-0.00335549178555019,0.0035584703052579
0.123839339573017,-0.0623510772211785,-0.0103414520585677,-0.001149849922132
0.198407740420467,-0.0195161873054032,-0.0156854610479584,-0.00765134320150086
0.16800356373325,0.107982395075893,0.00382575595091153,-0.0118024323158083
0.0715956338057947,0.250740358779102,0.0330643843253563,-0.0174188056849114
-0.0184403912938269,0.298900151224367,0.0442134527789352,-0.0264792941226231
-0.105942074409482,0.231175564739657,0.0395843175895874,-0.031211360324133
-0.143352427900685,0.0781581374916296,0.0243748650644249,-0.0279044051159972
-0.0958769364694397,-0.104007179441412,0.00112734207298997,-0.0215758419798306
-0.0536967232833485,-0.232340029365189,-0.0178669702573332,-0.0138018766386972
-0.0642522836967609,-0.228290052366142,-0.0314405913042839,-0.00029896741560529
-0.0744635966570542,-0.116490526720653,-0.0378036804228089,0.0191494794863831
-0.0604371210609358,-0.0263660585243037,-0.0277226653751693,0.0360355433644943
-0.0561055397447463,-0.00142899510324856,-0.00406714218278055,0.0410481834481095
