-0.0554480297433708,0.0260492377083468,0.0352087505410073,0.0338955428239846
0.140980544804028,0.197132780159547,0.0497212747618131,0.00687969891429559
0.235536133212822,0.215658473958552,0.0635879886109015,-0.0202736533816485
0.211087209009505,0.141657173472886,0.0679800283744655,-0.0344482912930473
0.163734451047096,0.109999795077946,0.0651063208359968,-0.0341446497130626
0.139080306687046,0.124065198020564,0.0604296278420706,-0.0254068744338618
0.0830661254053702,0.0999167265019417,0.0582673821793516,-0.0143256025302261
-0.0404392715673679,-0.0102437879794906,0.055433419773278,-0.00374472847229355
-0.14765643444276,-0.187256188652211,0.0409990448144367,0.00409367366175091
-0.140405153260574,-0.310300157985105,0.0242675790653465,0.00681634169560353
-0.0594701982564396,-0.301297509935533,0.014762702317782,0.00615331642144072
-0.024561137686056,-0.241718651194351,-0.00159667236604291,0.0063701157843996
-0.0468152440387187,-0.158701860154277,-0.0266258222284028,0.00761657252789428
-0.0481167789384368,0.00443662233888331,-0.0408617587483397,0.00609736643346041
-0.0480570601532624,0.172292627165853,-0.0365284169372925,0.000466273217756118
-0.0896126908152804,0.207998567595831,-0.0214198993709796,-0.00407020434153881
-0.114815048272903,0.129393882827771,-0.00884049021012378,-0.000130435017237244
-0.083813395985028,0.0509043039878052,-0.0185030823721552,0.0122589724316752
-0.020997808521302,-0.014449549420892,-0.0525370959548279,0.0251738944968314
0.0563650144249277,-0.0805558171178967,-0.0793446451268461,0.030219123357
0.121276191618532,-0.0551359173340473,-0.0724546097897015,0.0219505634629885
0.0962639042486118,0.0577383052299965,-0.0505129267036352,0.00288456857439354
-0.0360989570351631,0.13120986201833,-0.0382124939490643,-0.0155623763978898
-0.126603996366637,0.175399040087359,-0.0198310756160978,-0.0253744697269296
-0.0404545445402484,0.209941133565987,0.0167993230147363,-0.0288354268473872
0.132030980499729,0.153548161524614,0.0507214196787298,-0.0308571188225691
0.220348767647355,0.0262514343934467,0.0668319245748137,-0.0310908193811277
0.190164023767466,-0.106239608093552,0.0686349482602618,-0.0261296493924788
0.105229174969032,-0.227002229344168,0.0597908034227234,-0.01447613132083
0.031591503681895,-0.273980401212854,0.0479064630651737,0.00426725571663138
-0.00151000209697179,-0.202518380944014,0.0527696423574363,0.0261903022611614
-0.0102531691942338,-0.0868226792330638,0.0802693590742567,0.0388961478125145
-0.0367908584671957,0.00338885428205141,0.104734323830076,0.0334292574581129
-0.0887993291058984,0.0541417757743827,0.0984227087042155,0.0156849363157762
-0.130892285342895,0.030290631351783,0.0603964952781021,-0.00126392702857843
-0.168901856066398,-0.0896222367447395,0.0138414277996494,-0.0085018915787412
-0.182480763503391,-0.208473591376716,-0.0180237723112952,-0.00414521221975144
-0.109377630718761,-0.168844381898558,-0.0374314114210625,0.0072760824246681
0.00621785419263399,-0.00020080188623689,-0.0630248085844436,0.0189026614616518
0.0833307627302289,0.109997066468299,-0.0947842261138358,0.0243564492054004
0.138898377082547,0.0891431839200524,-0.11752092165739,0.0174066279681982
0.194877827164675,0.0497721497394071,-0.129767515783307,-0.00019785808775629
0.209295114648285,0.0750984600062683,-0.132729018856499,-0.0173337717798039
0.152885168929746,0.082559313510087,-0.116089843806284,-0.0260386035529705
0.0512610680609575,0.0196262893563608,-0.0749818633007974,-0.0263950198546126
-0.0457355380562921,-0.0327171155540507,-0.0218580020332354,-0.0212554779469836
-0.130558627690692,-0.0151363123699411,0.0192235261396781,-0.0128597877844964
-0.200324412099666,0.0298582896916471,0.0335209972631001,-0.00366487465583385
-0.180649544420693,0.0527167302762569,0.0266329018555957,0.00403270467624475
-0.0455828696837146,0.0579499216482067,0.0128980342125325,0.0100939868915624
0.0883352907093738,0.0444587541065386,0.00998730190911766,0.0142389105714342
0.119765653133003,0.00638618044780563,0.0233062386825246,0.0138331576160903
0.0726401053211627,-0.00696631028872154,0.0295953459482228,0.00853879318458448
0.00220498058597957,0.0214431415182077,0.0172474402773921,0.00259933376392374
-0.072310369578157,0.0337147277077599,0.0112419262524712,-0.000357610431961786
-0.121516655548838,0.0090222438290306,0.0256929121452005,-0.000393359718342953
-0.098630795445681,-0.0211308804937837,0.0480650561560716,0.000770348611809699
-0.0270337090174728,-0.0264409702702693,0.066212516281914,0.00148078564866647
0.0064703154463322,-0.0172444005567738,0.074811145158598,0.000972883308282678
-0.021523224633664,-0.0114617591252807,0.0665001922329145,-0.000532703574841977
-0.0460328536286119,-0.0119724597533357,0.0359965675799613,-0.00279315754852341
-0.0317789896625482,-0.0195741701215215,-0.00512764013085906,-0.00518336575964009
-0.0167411606745712,-0.00469265130461989,-0.0447568112345095,-0.0067077710754917
-0.0275543149075785,0.00231013272250315,-0.0750380742643431,-0.00727401230207338
-0.0420297325816781,-0.0612767367926742,-0.084469121536102,-0.00673139326878798
-0.0449458516831848,-0.123768224340115,-0.0708810367033615,-0.00409540249551452
-0.0623711746519983,-0.104755272691831,-0.044433054429805,-0.000361888742316322
-0.0871191698242794,-0.0504939153144126,-0.0264746153592421,0.000627228611156113
-0.0676877816110875,0.00339544341213721,-0.0215022320023992,-0.00196073446737173
-0.00610104342368345,0.040707091722879,-0.0121431499391746,-0.00353961138175547
0.0426100157076255,0.00419452022056031,0.00188831931154139,-0.00175564009481879
0.0453513628740858,-0.0485987990993275,0.0122423026119937,0.00108329803218961
0.0445671872859603,-0.00837894807298367,0.0214063718543506,0.00355078789537392
0.0997048230066073,0.074453569652136,0.0311780273236823,0.00454102651784381
0.16579585406512,0.107031985053222,0.0414030502774312,0.00248161708332429
0.147066403294635,0.0749941175076248,0.0469678854349027,-0.00156936530923624
0.0438185263821126,0.00218417262069169,0.0361517510901866,-0.00497930260549779
-0.049846276402448,-0.00710445018281611,0.0169577907663082,-0.00572312614908456
-0.0491371756196629,0.10686947477046,0.00759119700433274,-0.00357373490919442
0.029798886949633,0.209799369063334,-0.000427810597650543,-0.000289996200789185
0.0680462475031927,0.197300886584732,-0.0231682980957268,0.00225484218389114
0.0117160429960086,0.133777805733598,-0.0518987794220241,0.00251154203392829
-0.052265110891152,0.104485263433852,-0.0699804640533442,-0.000405246611239639
-0.0605375100152166,0.0919575378880431,-0.068726688578277,-0.00509975023954655
-0.0494245746624149,0.0378582076401532,-0.0474897747824513,-0.0085959825369309
-0.0666378163137471,-0.0984773675091123,-0.0224869678291464,-0.00805284961978837
-0.126623353422363,-0.314732592742662,-0.00590038213138849,-0.00241002674977255
-0.16057976718412,-0.430398987036477,0.00263015118197218,0.00562348227868104
-0.0844743535159575,-0.312242857835989,0.00271494703149681,0.0106602326257061
0.0191339662894186,-0.156860192103467,-0.00301019693806055,0.00958326440383082
0.0428255349542464,-0.10100784155406,-0.0101993222730925,0.00494418233081419
0.0379797614074615,0.00145482037883138,-0.0183296141745053,0.00118776238749162
0.0819652236155526,0.181726476928823,-0.0293764275234628,0.000230246761793965
0.145351950597957,0.286389407240586,-0.0392978667946856,0.00252062338584029
0.144283511577654,0.297761588481407,-0.0398184381852955,0.0057781235608438
0.08096493063603,0.294561552666814,-0.0229035228188578,0.00476988046832595
0.0197722402978843,0.24775985855169,0.00893784795191653,-0.00145770049324239
-0.0550776141111483,0.134227455956431,0.035171213101918,-0.00706127425677741
-0.137747088085495,0.0353180210118075,0.0385283599130328,-0.00653458575858322
-0.135129733779843,-0.0025369547451555,0.0142633995485244,-0.00111679491287024
-0.0680249857882477,-0.0435944523113206,-0.0278147678780034,0.00303701563556678
-0.0465407851846812,-0.142609196119826,-0.0555598869572917,0.00228968108816765
-0.0639789680573014,-0.244788914656991,-0.0505480665793922,-0.000745604034912795
-0.0298864187951651,-0.262472778009102,-0.0322527198713435,-0.00118634718692347
0.0801241159303076,-0.191937750180857,-0.0195080115232418,0.00275795809200506
0.190401095310756,-0.106933957721176,-0.0140308021337342,0.00850703442740432
0.212962661586288,-0.0522565323464182,-0.0194992575608861,0.0117648512318497
0.139915968664047,-0.0181844383208525,-0.0325220284582406,0.00966306692009853
0.00867315023474666,0.0147215329217256,-0.0403966798167146,0.00158727774782454
-0.130147459207981,0.0617852503583675,-0.0404108660275623,-0.00924014275579725
-0.184071793423675,0.103362567701618,-0.0348447169359075,-0.0153687977015073
-0.123559580682317,0.100599963590653,-0.0229778935917234,-0.0119118204262727
-0.0381783507651899,0.0659931013440944,-0.0122150765412647,-0.00301841906685322
-0.00187853830130257,0.0466770445768602,-0.0171200219114917,0.00339632757744733
0.00235054146064868,0.0546828613601687,-0.035076112965134,0.00437203948287293
0.0168084548660676,0.0521254049808543,-0.0430223406292971,0.00200282410131086
0.0536394392778323,-0.00558461133437478,-0.028299260267377,-0.000191330371085117
0.100015298116161,-0.0953279147304446,-0.000192860048924791,0.00216290882052574
0.13182789055606,-0.153605081367243,0.0283832056226744,0.0116705406758974
0.152046373563807,-0.1687494005698,0.0481751672954558,0.0218185601373037
0.171058112665757,-0.151485500967266,0.0623877148443621,0.0210616547604252
0.155520968059246,-0.114969737033912,0.0740423204343489,0.00768598079127137
0.091124761835119,-0.0534768351763751,0.0716640025552495,-0.00916264630748278
0.0129158118077599,0.0706646729865241,0.0560173721402696,-0.0207745347077402
-0.0694540776126539,0.201242985758288,0.0456634635273376,-0.0243743858175678
-0.150518830060892,0.217091109398695,0.0440409994002421,-0.0212511876433442
-0.194069519959962,0.102016241933935,0.031381512900806,-0.0145361278875941
-0.214705725942379,-0.0631778352862048,0.00936316866689305,-0.00721776871299539
-0.234136803874178,-0.188339622512807,0.00198718870948265,-0.000111786719794508
-0.17895895912931,-0.23323510441028,0.0113197972550297,0.00660288675099743
-0.046400399498497,-0.250132302841982,0.0216037445287568,0.0113736989456902
0.0415420146692321,-0.244463869228467,0.0235618099422181,0.0117861109320156
0.0718645515454254,-0.130284373801424,0.0131928738773025,0.00642200553821459
0.109385426383776,0.0256739865925167,-0.00440468330576638,-0.0026613809791006
0.134716415455085,0.0879952485120305,-0.0122840688548986,-0.0115589949363012
0.123259250487755,0.0899273198763608,-0.00207613656036755,-0.0180023004004198
0.11316326311207,0.0899973846707886,0.0207201898567723,-0.0202616356402437
0.116855638398414,0.0743337992154081,0.0382327132848332,-0.0162636866770886
0.0953555009588438,0.0380871908082461,0.0323285246406487,-0.00566376944302466
0.044689463680737,-0.0333981566331619,0.0203967066871914,0.0104891501306845
0.00173965266419163,-0.123067569524076,0.0287642731648834,0.0281415016294405
-0.00361452314076341,-0.103549006633015,0.0433138118597212,0.0364043614869004
0.0277423654494734,0.0673704550779166,0.0501639587078099,0.0267218476358962
0.0399599961496479,0.266447216125663,0.0495404090496662,0.00493623139491312
0.00760663401435441,0.393480535891473,0.0274465997483379,-0.015311728932327
0.000943139223878453,0.404511792500511,-0.0169246024211882,-0.025659071797266
0.0530308532129751,0.302236537365286,-0.0560181114575192,-0.0258784241107779
0.0865789239584002,0.138092016608676,-0.0618459512340797,-0.0198422512377072
0.0393901008475506,-0.0533640391658523,-0.0385811573715889,-0.0113829583198455
-0.0592315560979447,-0.254642884326391,-0.00998854242387663,-0.00333249036633149
-0.129962179280289,-0.407132197152071,0.0140200355086001,0.00231574618112533
-0.130998270940934,-0.477519942899815,0.0276965774491972,0.0052600054051796
-0.11674784655036,-0.427784298991905,0.0298413498159111,0.00619821744844288
-0.145534628553111,-0.209585665925867,0.0365168699827838,0.00509074932336667
-0.187656860131703,0.0408983154610371,0.0512405646395184,0.00126200163406701
-0.175445793801434,0.205429735130958,0.0528456488933696,-0.00393839673830403
-0.0909262434307855,0.289233184451392,0.0360890344308342,-0.00673977328169144
0.0376006651878025,0.272209496493426,0.0239759872363472,-0.00483117693957948
0.150844845194336,0.210282615752842,0.0336424220751302,0.000952341261811993
0.188732287849172,0.180606958547379,0.0632524565641536,0.00849725414768566
0.162193066462732,0.169494687946849,0.0881693997693025,0.0140680712145365
0.114588018742272,0.142309323831786,0.084422189095557,0.0127668450582736
0.0588728174988947,0.0662301326618094,0.0715420834129348,0.0048885392167829
-0.00271550550737384,-0.0409451602075192,0.0672490885975092,-0.00301939553323083
-0.0465606673133115,-0.0907185529142148,0.0599853643056277,-0.00609454259143509
-0.0720642599930522,-0.0898411215311156,0.0406922829256765,-0.00450350563490572
-0.0976982112412829,-0.107094655375441,0.00378818556048177,0.000218607637454244
-0.109464042438769,-0.131219054954513,-0.0401046533476755,0.00521143739993136
-0.107159804360095,-0.154798121721586,-0.0703313986616067,0.00612131550274636
-0.100840053401029,-0.185075219900801,-0.0719961950871157,0.00419293033207871
-0.077036954480669,-0.15947028712546,-0.040792198774349,0.00499421259978458
-0.0197106788732192,-0.0551876231129113,0.00461433406374289,0.00766176411428053
0.0422362956705536,0.0423354167227208,0.041605202345249,0.00700776131562364
0.0513315111098666,0.116321706638716,0.0604879173829612,0.00284925530061221
0.0336059799639091,0.210711665911304,0.0579805757789098,-0.00149439763265625
0.051764306986026,0.289624570636415,0.0363753614075591,-0.00471267481250877
0.0815416664569168,0.308937255698824,0.00223649743325539,-0.0068986174161753
0.0744711267227787,0.275745376388823,-0.0325360710287077,-0.00748699148171732
0.0576045879576564,0.201016150802658,-0.0442101281438101,-0.00622634584823308
0.0551110752460749,0.0949831778101349,-0.0238594730237867,-0.00441850819686848
0.0413561398479878,2.61771641762443e-05,-0.00589595088075617,-0.00384963784938015
0.0343022355902622,-0.0638391388493849,-0.020488789483092,-0.0040231190132272
0.0508208797047805,-0.0751316943870706,-0.0451948065655497,-0.00210211373788213
0.0739762109501857,0.0116010046258451,-0.0426096137931059,0.00271534118493274
0.112317402706532,0.0626650283603017,-0.0135389628579874,0.00733028875640958
0.134371212584607,-0.0403498368316366,0.00570951317174206,0.00895054362423936
0.111681579901241,-0.106647778483262,-0.013324999691069,0.00812796291553942
0.0975979062986149,-0.0295301833049127,-0.0505044489493438,0.00693333738687424
0.101952614551597,0.0333907375676986,-0.0614752356076212,0.00603429472983425
0.0695993813707086,0.00261007447457939,-0.0412882892089829,0.00407312522505172
-0.0271667472892747,-0.0859838367368479,-0.0206490497322446,-0.000231046201874167
-0.164757241212386,-0.15942932643358,-0.022985957018724,-0.00549241031983994
-0.28972662039414,-0.106912683021301,-0.0546359638257192,-0.00791805886269521
-0.378769699990232,0.0662316330729789,-0.0918408973116792,-0.00552034575946767
-0.403526975226467,0.239422451517884,-0.0906635105738455,-0.000387975976019968
-0.292700765406944,0.282274041437876,-0.0703417631362712,0.0047053500765785
-0.0720085829555711,0.14807316245306,-0.0824342892594421,0.00957443628291602
0.102133218908,-0.0454518045060766,-0.110997492960532,0.012537910417488
0.143539865455801,-0.177190053357864,-0.122122633656171,0.00856767156675698
0.129427745868551,-0.202691428115454,-0.111713776420762,-0.00174622345960901
0.130636523972453,-0.152787223599827,-0.0835662926581589,-0.0104057787938985
0.119304890905874,-0.106517207248661,-0.055900671000413,-0.0124048819233413
0.0818569534299133,-0.0267527399820907,-0.0509174715100243,-0.010137903667872
0.0352014427850842,0.115207372368955,-0.0626712718153272,-0.00788442509356683
-0.0289324674230328,0.202922992127183,-0.0638044766923464,-0.00744015356957133
-0.107352095549946,0.180731073847078,-0.042267648347622,-0.00876107503902288
-0.158942757216205,0.117951160563909,-0.0190275450179219,-0.0112086697137003
-0.150947362024104,0.00939676848578751,-0.0137511610825977,-0.0132844638435814
-0.101215601622488,-0.147682020070277,-0.0161837172738439,-0.0118777706951986
-0.0424964159528968,-0.218390671361111,-0.0106679710627964,-0.00497337425469053
0.00826395971319464,-0.169560046956996,0.00108538835144828,0.00428505740367938
0.00919452524545424,-0.103826291125583,0.0119587281612366,0.0105241678540747
-0.0535039489041575,-0.0592364030344424,0.0173668244961941,0.0107784549377352
-0.119265015662634,-0.0290756853569146,0.0169744349857525,0.00726167287911985
-0.125059825458508,-0.0157220878272331,0.0140865234479981,0.0085498232993685
-0.0562499681708608,0.00486397080279671,0.00728127469503816,0.0195218377727008
0.0289945606899339,0.0264141592283609,0.000341685386731946,0.0321925666330559
0.0592245798668648,0.0140449860317753,0.00508989138375075,0.032359491836095
0.0330573413142363,-0.0171060440298542,0.0182334375239378,0.0139673235519976
-0.012988591167314,-0.0500814422368138,0.016946773681452,-0.0130333278388337
-0.0437231395098714,-0.0563062302507737,-0.00107401608617637,-0.0316951256959303
-0.0295632969040384,0.00903720387773711,-0.0130183363318568,-0.0339807040035728
-0.00787619307632445,0.0945693536808005,-0.0158224273114652,-0.0246818744646019
-0.046773892893742,0.0348947828746675,-0.0160810986836749,-0.0116455450139521
-0.115058336654296,-0.18880448965347,-0.00676400127118008,0.00079210055236266
-0.131410578492277,-0.291778670902819,0.0160274645056118,0.00839201357959315
-0.0889350206133378,-0.157334795908207,0.0470308212526047,0.0074484987398693
-0.036602189203426,-0.019383912269022,0.0732600020430245,0.000921018705472736
-0.0025721801553626,0.015941735267693,0.0830171351921492,-0.00358918197718307
0.031687417964615,0.0449021309397324,0.0819434504653482,-0.00184889969226367
0.0899279269275797,0.101132011671228,0.0833834122696888,0.00492565737497177
0.142192650449039,0.131689449162411,0.0906655099315409,0.0118962648135285
0.149963377400977,0.100536518405616,0.0953082741387427,0.0131498282644503
0.128311242723985,0.011757116790717,0.0848323674738393,0.00705764589599756
0.110640389454889,-0.105152847396995,0.0675399405568803,-0.000348436099228406
0.0999439775562402,-0.180232645025951,0.0618036177071082,-0.00239201768812942
0.0858467351305212,-0.153553101595017,0.0646424989966881,-0.000692499936604418
0.0834286717128149,-0.0531764983224799,0.0656839585337223,-0.000753026857339016
0.1108831016676,0.060618937218004,0.0597438223024714,-0.00232909410721603
0.165364564595351,0.152040036525769,0.0427923396050624,-0.000978634117999556
0.220395115067863,0.192960758993527,0.0121766298474624,0.00289459703493837
0.238769815868081,0.168782822594762,-0.0180968762045675,0.00486754506848671
0.19895699168075,0.0833534351790211,-0.0148316137082314,0.00565384633505052
0.116068951250128,-0.0157778904354728,0.0245524259864228,0.00885677544224364
0.0313986242618818,-0.0605945945869588,0.0551677750064486,0.0119805341694332
-0.0556724228276115,-0.0401406847155224,0.0567904662975203,0.0103047812509196
-0.150825943358639,-0.00272510109295913,0.0521184671276283,0.00437100764877774
-0.215032146023748,0.0187682219377428,0.0550649810486089,-0.00360299270817387
-0.214073369700477,0.0430430119645772,0.0601275426338432,-0.0124674142535932
-0.131568526015612,0.0782951094752344,0.0487308082173281,-0.0181501506696995
-0.0140975514681702,0.0859155558384304,0.0117472031507571,-0.015774698441244
0.0670572021519506,0.0408924048588432,-0.0318929142667433,-0.00667417847741216
0.122202544081527,-0.0277263920459504,-0.0690706200569921,0.00285594472445313
0.153847272427806,-0.0942276963349438,-0.0900344335740757,0.0088344916418387
0.132032123386711,-0.1934026326375,-0.075541582833921,0.0117319568190839
0.105421933966535,-0.282102764094381,-0.0371722053127056,0.0134778532084994
0.127152755841606,-0.192308321824051,-0.0138212838808177,0.0149734935613812
0.148770298259455,0.052508237421447,-0.0172070166818685,0.0136066810123652
0.119795170136638,0.241887557658112,-0.0209742938823624,0.00503258900808793
0.0814205813454482,0.333392378702708,-0.00701459234741955,-0.0101080889539303
0.104334726883435,0.395412802696856,0.0173992505707046,-0.0251087133495638
0.175492359876324,0.389187008790078,0.0335704918758844,-0.032281081667284
0.208131651093547,0.244317152489121,0.0360785526401148,-0.0266552938469187
0.210110279865625,0.0886648898123976,0.0464586518074518,-0.00727683131886263
0.23660697644309,0.102374933045576,0.0638866681271815,0.0173805346775664
0.2312846686477,0.17886580437183,0.0611436430264095,0.030343728278649
0.115812899397539,0.160956969665333,0.0350553082933018,0.0214189019665762
-0.106794855437002,0.0615969099617361,-0.0111181399214599,-0.00267882954815179
-0.330320008338381,-0.058822119266701,-0.0732881597277338,-0.0220846398254559
-0.429431508171164,-0.142391081221243,-0.117538529215025,-0.0217321653786986
-0.440784672200808,-0.173154143562527,-0.120846690865727,-0.00739199871793208
-0.465409951472474,-0.185822712802618,-0.109043023049468,0.0082224484226576
-0.451305715116106,-0.22366529238354,-0.106171006355233,0.0250424672185774
-0.308159339730168,-0.246606577010562,-0.0983472563366239,0.044497753551688
-0.105053982884308,-0.185268034768252,-0.0786194701461979,0.0531677221033508
0.0201683495795189,-0.0748249183346424,-0.0648389531443862,0.0367209336561782
0.0708459627173221,0.043208850456457,-0.0617661832430984,0.00240099245488311
0.122717405408895,0.1555746469489,-0.0579152085100433,-0.0277302874401682
0.156193527664736,0.20567015081456,-0.0527520155874336,-0.0404559403309413
0.127095627521879,0.179958943062434,-0.0549077048006438,-0.0384459761474721
0.0624341329894032,0.129097820184573,-0.0630984388815556,-0.0298633232157001
0.0225296781673921,0.0749319205551062,-0.0681890005681095,-0.0194631999336931
0.0226741473703083,0.0238144899496173,-0.0631050495402525,-0.00945689340693748
0.0338441082650322,-0.0165636886973369,-0.0477576620590075,-0.00176673471072334
0.0369341431833641,-0.0494844098708746,-0.0313117894029815,0.00362939813285716
0.0194587835082134,-0.0591706155008216,-0.0171770156151712,0.00737928821519655
-0.0318712248999384,-0.0438208199648634,-0.00360043984781891,0.00814125995813252
-0.0966146259483536,-0.0370228232699663,-0.00552642087955869,0.00553692533061895
-0.140718936862172,-0.0426677201706677,-0.0300156800057435,0.00262630702203164
-0.173157297264934,-0.046266976316522,-0.0575916871415283,0.00274458440929045
-0.207313758162191,-0.0692606750878627,-0.0780796597397435,0.00637338232475642
-0.234256201580437,-0.117239851038598,-0.0918075969719668,0.0116509196995649
-0.240755509719797,-0.132925334875064,-0.101334856861391,0.0155446414075671
-0.196647225703694,-0.0936394704743297,-0.107973602791981,0.0150312284159766
-0.107997376255276,-0.058931918249824,-0.101534535608635,0.00917466664729305
-0.0293245849262488,-0.0665636009140237,-0.0792211040796012,0.000404224893813568
-0.0110987134532932,-0.102455963171217,-0.0415707276256062,-0.00658258557415183
-0.0713010947156888,-0.118779653023547,0.00459458564158865,-0.00901691933017986
-0.130163061634239,-0.0474811508173178,0.0326876615497607,-0.00843961483061751
-0.0961805042313475,0.0808214577819689,0.0362704375227601,-0.00776620382648487
-0.016324994487972,0.145933450074718,0.0404131318536341,-0.00779590616600516
0.013671736382854,0.125616465557205,0.0591344478131363,-0.00744353104191726
-0.0187488875408064,0.0821705751518718,0.0849076121615821,-0.00657698183739813
-0.0565378188551093,0.0166828877727394,0.0973295838802335,-0.006944568716413
-0.0610497156552368,-0.0864402874677647,0.0904263953993831,-0.00987110924171839
-0.0328371413004924,-0.18851089771361,0.0916720786741889,-0.0140115576467746
0.0339682007527401,-0.259217986955432,0.104281530288727,-0.0152389879996504
0.10371455358478,-0.290776891200115,0.0931003125854722,-0.0088200937667024
0.0950277236869143,-0.264112091788867,0.0491909100221501,0.00498210904208037
0.0039875626464676,-0.143817765599534,0.00258617138752382,0.0176217761164981
-0.091583704489078,0.0594394420485791,-0.0211355688489538,0.0204332698369728
-0.130679526591022,0.225111230327946,-0.0176173117651722,0.0134854346440959
-0.0879525186852493,0.249777674792474,0.00779788017435628,0.00295370189505009
0.0124009179551298,0.161544119030465,0.0404199147109993,-0.00562179553469157
0.114693277890097,0.0521984334646754,0.0714942121279264,-0.0108278455973611
0.208427284589589,-0.0174952286046859,0.0986606754317501,-0.0139676828884774
0.275339206822699,-0.0522725240654256,0.112737988284982,-0.0165137041458527
0.266489950695605,-0.0577835518440275,0.110746192694301,-0.0183092878096816
0.18878488104831,-0.0465866618384277,0.0989095053355775,-0.0168794144135717
0.080818685029679,-0.0620794686760909,0.0741235194041081,-0.0113097960454361
-0.0422840113969035,-0.0620479427483801,0.0303354654695299,-0.00419275977047159
-0.134770479917614,0.0165446011161621,-0.0153889771273884,0.0034208100416419
-0.144116418949677,0.132878231478616,-0.041600468910939,0.0145340448158835
-0.137816987745825,0.240303322773493,-0.0399918848086264,0.0273132224538538
-0.155811211058326,0.290016372663353,-0.0155505142143291,0.0300940387041181
-0.102875422875215,0.150725716745897,0.0104176164031183,0.0168875648205229
0.0227700026535423,-0.105935602280827,0.031040916742036,-0.00217131738654378
0.145920468844163,-0.171525403273393,0.0572099454629977,-0.0142829260187859
0.242369861510095,-0.0687172305360401,0.0831162756453086,-0.0169128728302202
0.271168961296237,-0.0304325986300054,0.0967372713700778,-0.0141661244846266
0.226480613972852,-0.0147508982042502,0.102425989740307,-0.00934193602852715
0.166937483597813,0.0620417917138355,0.103648350267938,-0.00389429080880399
0.116996148496012,0.111418517258801,0.092829964942277,0.00250547833820482
0.0709492109958476,0.0916101883610745,0.0664618295263914,0.0101713613176021
0.0391677741511467,0.0793453407039676,0.0400792293869672,0.0155165872404408
-0.00299217959406956,0.0503219643535231,0.0319427980315633,0.0136837533759553
-0.104150402942085,-0.0869799874768607,0.0262466707157203,0.00565044264613451
-0.209281726568928,-0.233868576344533,-0.000116001918911895,-0.00170072708616136
-0.225359435852978,-0.22956687241233,-0.0383667144886772,-0.00366935674141334
-0.156667727511687,-0.0634588086355621,-0.0751440025212139,-0.00191100073185778
-0.0577593674510525,0.169699802429699,-0.10278382567677,-0.000436812369360764
0.00747040693397161,0.312893365076122,-0.110034426266224,-0.00131566429422712
0.0178535834716472,0.286993516691074,-0.103058304563122,-0.00393531362952776
0.0622690476202367,0.186630036415214,-0.0994978874185295,-0.00603582638763755
0.168854434546978,0.0910205559154539,-0.101689455514985,-0.00548124154974558
0.223247591723899,-0.0462868163261064,-0.0969800158271465,-0.00202528194879716
0.192604746890389,-0.229300059683195,-0.0732454871122538,0.00277229518458015
0.144892576323092,-0.326994616989698,-0.0372855640335263,0.00788309017817601
0.12331909872278,-0.236116291492577,-0.00792743348305895,0.0132623851804086
0.103790380278111,-0.0172814946394467,0.0127239764283724,0.0171281120500015
0.0362423773745174,0.177313843587853,0.02974311352741,0.0158298483976643
-0.0301753182274042,0.190019450384277,0.0424556911587993,0.0083649811190386
-0.0686451451136509,0.0332341705844344,0.0547264442375647,-0.000312239061799006
-0.127862967660399,-0.0407709213780142,0.0593905043471231,-0.00323377707430278
-0.170303748584231,0.0391144759879501,0.0392778089159726,-0.00052552827355839
-0.140598201089246,0.0755705185025448,-0.00484311414227147,0.000885179911086603
-0.0668560825847527,0.00443266325613332,-0.0465108258164547,-0.000900291007846876
-0.0338596273321958,-0.0433072858337201,-0.0536611854167306,-0.001621052748628
-0.0445251552348681,-0.0133985318053216,-0.0292370567242815,-0.00109476457183451
-0.00538997439823675,-0.0311448241031541,-0.0077076314026746,-0.00279924826900959
0.0774549854827845,-0.13214787027445,-0.00374685010753745,-0.00586228953927267
0.121374562708043,-0.187235036086004,-0.00554315610755752,-0.00631395760212564
0.1075235632365,-0.138251835685061,-0.00817548033665038,-0.00321924926932659
0.077040004869884,-0.0296386854626816,-0.00773696223694531,0.000196863604590992
0.0548837689841499,0.0344710422938832,0.00862506625706834,0.000179903900794354
0.0201497250559128,0.00941990456677114,0.0337721697000956,-0.00250711020266552
-0.0338795733444077,-0.00197241433742223,0.0441251466428219,-0.0034298268891019
-0.0939482473252293,0.0278691380768897,0.0363237731333742,-0.00103294056522131
-0.168543224308544,-0.041471181437508,0.0271929216316785,0.00163783840128678
-0.238516942456125,-0.192237175935313,0.0228048348012687,0.00142933901061434
-0.242574557368123,-0.200719347547216,0.0130153108158313,-0.00238691505681688
-0.159663909163972,-0.065412495142134,-0.0042344775163525,-0.00801195093624909
-0.0511078726604317,0.0290773296758833,-0.0154782753587614,-0.0111599496775121
0.00978376351782939,0.0260691054231781,-0.0105635561896744,-0.00892784248052721
0.0269131115230452,-0.0268557466752392,0.00754103324561901,-0.00348433112536244
0.0433092013825174,-0.0572226019226453,0.0264385041597492,0.00372064855923868
0.0602091740681703,-0.0292307940782372,0.0305672840070912,0.015557837137997
0.0626511938461985,0.00950249451524184,0.023224290942997,0.026844424700638
0.0584895179382774,0.00924353634679179,0.0168845534660222,0.0229212033763701
0.0566837596303073,-0.0373452175972598,0.00631311009519891,0.00167242562423007
0.0501712715782444,-0.112691607653102,-0.00444417271371455,-0.0199920169289938
0.0341063775947966,-0.165002799022557,0.00475896170977576,-0.0262970530496359
0.0225506693708042,-0.175569219462448,0.0320545065459433,-0.0175269049109895
0.0218841260183772,-0.178986939492363,0.0541706905338795,-0.00525066001702601
0.0118292640422165,-0.164962490950743,0.0553055629091743,0.000631559494660405
-0.0254446686885614,-0.109196823466677,0.0366028697877243,-0.000514527185693451
-0.0598012735999619,-0.0617809295176933,0.0199490511640143,-0.00324219314098132
-0.0217739985237537,-0.0602218277170751,0.0163148908875379,-0.00364503007542804
0.0903693628075569,-0.0475816382081503,0.00548428152399873,-0.00186750684824766
0.153801532916086,0.00596664137349694,-0.0206473932027012,0.000189761330691074
0.0881248831976606,0.0560545400520823,-0.0500607767809399,0.00111635207526851
-0.0554905830762402,0.0700651500368995,-0.069539185701146,0.000866717077686768
-0.216399556809152,0.057284990711772,-0.0671067731796769,0.000608567964759609
-0.351341962177827,0.0453382404688316,-0.0455356558067795,0.00128900258165755
-0.418176247891865,0.0636703876353338,-0.0281538554543429,0.00201636492785645
-0.394655295164639,0.123245898521303,-0.0234995266290237,0.000986901799153629
-0.26880185905863,0.128250268414845,-0.0101673509215417,-0.00161998115718536
-0.0834622664416737,0.0295390777827851,0.0173251103151048,-0.00309609087006262
0.0723533676811489,-0.0510441727904472,0.0318397386971456,-0.00196867607814938
0.191567021257531,-0.0401766560427007,0.0155792948161917,0.00139732560986637
0.305750782428743,0.0337328039906207,-0.0189665079823367,0.00838846673089472
0.341438166856595,0.0970519753370425,-0.047187892674057,0.0169171754570709
0.222219542477446,0.0748254043903548,-0.050443808765331,0.0175920855984442
0.0298879063961775,-0.0150168742599186,-0.0325299382850809,0.00644048987912731
-0.0667474113563486,-0.0657857374659394,-0.0192327389054926,-0.00745684027337404
-0.0310171100687715,0.0018079121423478,-0.0304681853113409,-0.0136781430318759
0.0195153296744387,0.127343392841767,-0.0498339776163594,-0.0112732650015272
0.0217510978679949,0.218445514397139,-0.0426866996481477,-0.00588169715252708
0.00665444130805895,0.257005940422978,-0.00772331967368033,-0.00237294596022154
-0.00274496743422143,0.243192931938207,0.0285840374512296,-0.00115941023517748
-0.0123125833140583,0.194599482751416,0.0530372283699508,0.000408261505413017
-0.0288013930558218,0.155333535880758,0.0659375379839754,0.00359794915826272
-0.0264758335187429,0.124005327843584,0.0730018030605654,0.00658581822992521
-0.0185559165749211,0.0587121561277833,0.0833549730448275,0.00671168586342425
-0.0516948267913231,-0.0308794337223337,0.0870553505935323,0.00267342738999195
-0.0887388520786973,-0.114727587898838,0.0652259464519651,-0.00436255824407258
-0.075794878842732,-0.171587864784414,0.0269956932417404,-0.0110432111218457
-0.0263679105757292,-0.168446816598271,0.00187802666666759,-0.0141550320410172
-0.000921446439104247,-0.139875607798935,-0.0140337410229829,-0.0124324555077078
-0.0165551383189766,-0.110747358824631,-0.0465445119089664,-0.00302331912233308
-0.0407387852780174,0.0329351031805751,-0.0789986521023842,0.0177583416633388
-0.0344320701045077,0.28552630394787,-0.0960884314294894,0.0407337787092601
0.0786385938765095,0.427976335757923,-0.108649364880101,0.0458643530047908
0.250579266625423,0.381051678082511,-0.103142784534231,0.0275510276626345
0.273351002068779,0.251515842328313,-0.0765216363350267,0.0011742165239725
0.115759506695659,0.121473468248044,-0.0471860856291939,-0.0166981029117398
-0.0272474138062234,0.0207095454735659,-0.0161283986571596,-0.0206764447894778
-0.0773238905961416,-0.0354559061609244,0.0130804779649034,-0.0142898589279454
-0.134272278243615,-0.0450156279928654,0.0323041082042952,-0.00655529395538168
-0.219234231578312,-0.010911282746406,0.0488598746203385,-0.00527437921682924
-0.231356356810942,0.0517251647376342,0.0693415259542405,-0.00958929792391809
-0.138553551702928,0.087861664169063,0.0877250200395999,-0.0136405983132573
0.00672763416136596,0.0949014675396461,0.0982330794076616,-0.0144611905911518
0.151345414061689,0.127733551304463,0.095625483465391,-0.0130925585834133
0.228269137417164,0.152038222731526,0.0724144156943729,-0.0104913486308832
0.212886470176669,0.12604455962843,0.0433132124720747,-0.00463667598441013
0.163929758046553,0.114236063110155,0.0311247026910579,0.00503658593462849
0.117913099044403,0.127397128503929,0.0267764096557394,0.0128007935086232
0.0420328994852157,0.0372203948482623,0.0067153690500698,0.0146798031787856
-0.0578216810102807,-0.193318573312039,-0.0351741866610065,0.0158382984944008
-0.11453495924975,-0.333228598815537,-0.0827199842230664,0.0212964991212742
-0.115593664906384,-0.255858687742563,-0.10480493360775,0.0274107269660893
-0.0936492916903473,-0.153563527927215,-0.0892249762482406,0.0263643819258787
-0.0698420037182081,-0.113993202427664,-0.0629233175465069,0.0146400845332909
-0.0592286011919702,-0.0673769444364188,-0.04730883637392,-0.00363968609500782
-0.0452228708418415,0.00121784831739988,-0.042445154882427,-0.0209029735896366
-0.0197173057637456,0.0774799858912866,-0.0451470628190755,-0.0307899996064227
-0.00402932710928278,0.106480587571779,-0.0478980744821136,-0.0307452653947318
0.00386765385518875,0.0739937947579767,-0.0478385124457344,-0.0239541767952741
0.00725659796806832,0.0421488142090571,-0.0489943524446869,-0.016488486991384
-0.00392584940374274,0.0242817748609245,-0.0532402675823499,-0.0111069148818881
-0.0446691179232611,0.00283282569573341,-0.0524323451028258,-0.00466629252545046
-0.110504292802801,-0.0546236328918066,-0.0413443486441179,0.00680973136012897
-0.132040815950613,-0.171168367451225,-0.0364587931568953,0.0219646372798885
-0.0806972821737732,-0.248526905127742,-0.0430296302528074,0.0338197332544111
-0.0333952152807248,-0.205092973025221,-0.0372317316742722,0.0352785759406798
-0.02523650259862,-0.134748777634193,-0.0150546108804708,0.0260700091053585
-0.0206081969357669,-0.170832854943062,0.0050617014208648,0.0117925017648464
-0.01115152281503,-0.2749790736032,0.0187156426402455,-0.00181070213750046
-0.0245036304788803,-0.281117171184791,0.0309779392706633,-0.0120553076730703
-0.0622478413687757,-0.185765467156807,0.0451755094697885,-0.0190758375793173
-0.0682351284331897,-0.102080753554149,0.059040702707662,-0.0224342845059956
-0.0269611018991237,-0.0379130280625357,0.0622005872364471,-0.0206662802361492
0.0122391932676989,0.0304563724640724,0.0431387018238971,-0.01447863150835
0.0280926710039793,0.0549667145458365,0.00601120692104407,-0.00695568931546173
0.0206600830579511,0.0141980450454067,-0.0272418144655007,-0.000575482126327978
0.0123750629927739,-0.00258700854618014,-0.0341693693895644,0.00403158070789192
0.0388831073616045,0.0486912655242047,-0.0132336352803593,0.00700946934379534
0.0810074454819899,0.0805996398301881,0.0105930342315156,0.00850588634975854
0.0893970333298197,0.0392637970401007,0.0213508787222902,0.00822380072445832
0.0479456035103456,-0.0439069284182218,0.0235314846942023,0.00584463626399194
-0.00637700512702399,-0.125020807924695,0.0191696166606032,0.00241292821549258
-0.0223083321267212,-0.147917866064926,0.00805456846236703,0.000288111396417619
-0.0106362710703079,-0.118225710728681,-0.00603669987668332,0.00137119183659981
-0.0154734621749659,-0.121577944568728,-0.0131242241328064,0.00550961797740928
-0.0374971273524987,-0.200360224361806,-0.000221898360794129,0.00955329003219115
-0.0300861994125967,-0.278961781819917,0.0232523587662767,0.0083940377552216
0.0390421924853009,-0.25971122110691,0.033955750355758,0.00133604455637997
0.120395874627232,-0.175040538505867,0.0297884129493603,-0.00504767078582334
0.159748648899448,-0.0893818420661312,0.0281905072817141,-0.00532369108331441
0.166457094273274,0.00755995049156544,0.0486291236890695,-0.00162004537779245
0.142670516626218,0.119075456055079,0.0887354349333146,0.000509752604512013
0.0841472036983057,0.219160301970298,0.125490573275827,-0.00168745391622074
0.0328421692513173,0.282126532582002,0.151853820209214,-0.006575374370742
0.0150796749940138,0.281908036188225,0.173010446253059,-0.0105708225946786
0.00269665011665028,0.21295468856745,0.169943337265336,-0.0112068832035824
-0.0386625988983749,0.0993749079041185,0.129012294659103,-0.00846158336459124
-0.106177502964914,-0.0168482013938012,0.0768179787664246,-0.00404058669487306
-0.133002577466193,-0.0853098130991329,0.0393522874993289,-0.000163381847461201
-0.0705525525933896,-0.113845359464389,0.00938665485914991,0.00056115399241933
0.028728004594158,-0.157228905506632,-0.0231606920585718,-0.00225022812178637
0.0848063949567523,-0.221487272192718,-0.0472458927191164,-0.00459410448597967
0.112463158407641,-0.251193409737154,-0.0605809831599303,-0.00302656401811117
0.172779961220288,-0.172762352060552,-0.0718604987298809,0.00179221277359543
0.234587878365669,0.0262520072005428,-0.0789586212540896,0.0092944154121165
0.240454716547926,0.251511959675401,-0.0729207555036512,0.0185590773222258
0.191210208488286,0.417698025191342,-0.052243751848419,0.0213844630252328
0.117723325236859,0.527389967285233,-0.0236729868887595,0.0100522142090357
0.0572909469981758,0.554343949037364,0.0198477447644238,-0.00910301454737573
0.00647206741981243,0.456096142589961,0.079343721179175,-0.0234456462189569
-0.0805222526000975,0.299616971126986,0.122150854260916,-0.0275479213853732
-0.187884728665858,0.132197310377526,0.126226705124373,-0.0233723634628649
-0.213428265235663,-0.0823739648163473,0.106177085694861,-0.0154951429108272
-0.136094704485726,-0.254425972686655,0.0797046455321127,-0.00769822235813269
-0.0417694441844528,-0.271704127831638,0.0529425765931613,-0.00138708288009322
0.0661264502532691,-0.183160411009703,0.0193741520195235,0.00401106226563807
0.169204642671326,-0.0925077948853186,-0.0227385561620418,0.00878820068057632
0.0988007363512231,-0.0770447526081633,-0.057796764523349,0.0106227598623557
-0.123218000275322,-0.126895836300599,-0.083981514595445,0.00845522339496825
-0.227521717419151,-0.163641020383972,-0.109992772712527,0.00653209129740699
-0.166617732413982,-0.133114718874881,-0.127292557115992,0.00784030650285191
-0.128966703934398,-0.020591433904771,-0.123440022015488,0.00882295609708884
-0.155679134241049,0.162220312391578,-0.108078372364904,0.00562178676739995
-0.148238308067082,0.311341370571557,-0.101844387765314,-0.000583621729665012
-0.0787568408300719,0.270324079765122,-0.105706796326253,-0.00636883135308892
0.0416592578299307,0.101192852908885,-0.101544619576299,-0.00751996316863185
0.18006042612064,0.0563967663191896,-0.0747827909910299,0.000755625511401035
0.244338809482817,0.169482709372079,-0.0383628620811019,0.0147452397847351
0.219219313156934,0.250929031399096,-0.0215156125691269,0.019004865829419
0.166455770138551,0.199301193378613,-0.0236108084971578,0.00479085290688762
0.0575826871597718,0.0569933432670821,-0.0229629342153229,-0.0164870560140743
-0.119584042158905,-0.0286320357532179,-0.011196072628778,-0.0271829802737297
-0.21645471852053,-0.00639439398222005,0.00368293553106004,-0.0224023444657124
-0.16046217478552,-0.00890258617377013,0.00357702693720488,-0.0101748783249978
-0.0937953097135618,-0.0929879313324433,-0.0194071456626171,0.000117938243070066
-0.134177268507917,-0.187641304341688,-0.0528295220350261,0.00537041049359727
-0.211996516194144,-0.197242885456395,-0.0775176672157515,0.0076726834366277
-0.160775350477367,-0.0762744992110154,-0.081106770050401,0.00914327036944714
0.0361498428490685,0.0778297429602653,-0.0668157916691477,0.00987009375977898
0.169871723076639,0.0789575953271643,-0.0450871826184707,0.00971445465162193
0.0937857110100386,-0.0925203805705665,-0.0191467179032253,0.00877722591871869
-0.0718348755539924,-0.243282044870223,0.00204363426408962,0.00661089369188859
-0.156194525250516,-0.276321077363932,0.0018406459612458,0.00354422426499386
-0.160444708760326,-0.244628077631828,-0.0146361817864011,0.00100505260049332
-0.146411257641444,-0.161555352429878,-0.0271002319316204,-0.000845739707114403
-0.11757160729546,-0.0271105347232362,-0.0319380448968882,-0.00331150256903595
-0.0834810078070542,0.0911797602166488,-0.0337179787877335,-0.00575440163713775
-0.0706168111750223,0.144569553208553,-0.029285566612852,-0.00601109243905874
-0.0620738627276729,0.163412526167559,-0.0185326502597388,-0.00454928538380469
-0.0414233072597692,0.16785407616602,-0.00775766997915813,-0.000814387767390154
-0.0104830632212282,0.139277961322845,0.00403771214891486,0.00817974637568815
0.0269705209088945,0.0826140476215207,0.0197849898666209,0.0170672783977209
0.0589431043403353,0.0136281186222974,0.0296558138556783,0.0148966291442639
0.0785146315586806,-0.088105154994152,0.0249683398466289,0.0018628953336723
0.0881419484384937,-0.203440121318009,0.0123475947890529,-0.0104990987671223
0.0851972873658379,-0.225188167295653,-0.000866293347999141,-0.0127134000194472
0.0530997916378456,-0.119776257176712,-0.00177576691159858,-0.00690242095953487
0.0223399960901836,0.00833938493484157,0.0236293747729045,-0.00377926449342613
0.0211323021101743,0.0497371897951668,0.0598616924229353,-0.00687675413542997
0.00457996902548563,-0.00358047503383721,0.0846281094659106,-0.00825344673682666
-0.0284264721708171,-0.0664732122262153,0.0986088433373184,-0.00598034795856945
-0.0491771581379489,-0.10030304517969,0.109673159113777,-0.00802591336676007
-0.0916200660944257,-0.176333445314854,0.115185432331122,-0.0140824812429518
-0.148365882932806,-0.306479093749021,0.112902013348621,-0.014380283677125
-0.153934559246658,-0.363687495427794,0.10821716937485,-0.00344730415988968
-0.0969676102276265,-0.267495080399248,0.101373812891228,0.0150859555170815
-0.00785230541558644,-0.119066547891858,0.080722928003196,0.0304740273379381
0.0641103443025084,-0.0451242927574934,0.0421440053699187,0.0325067991418666
0.0809088936572172,-0.0274344130515594,0.0116896580444829,0.0202850377373449
0.0700702579427829,-0.00469514112836783,-0.00328780276072993,0.00306700348913104
0.0670984575290574,0.081408419466677,-0.0349956640135334,-0.00831282496805901
0.0803731497547342,0.250368170207927,-0.0842786942750981,-0.0111730103545439
0.109336531771745,0.378808546114315,-0.131294054598596,-0.0104271972491606
0.119486143703801,0.38184864331011,-0.168053128306393,-0.010190880909811
0.0900456084628902,0.317712124437687,-0.176182165809619,-0.0100668032467312
0.054186872945614,0.2256946161151,-0.14665093623609,-0.00858092982019228
0.0208129086063553,0.116451959721618,-0.0916149388510291,-0.00631204157574171
-0.0215811099230931,-0.0338957543092659,-0.0281636464673473,-0.00410248406696608
-0.0621267924009573,-0.251340569768615,0.0260846846761516,-0.00110990462388355
-0.0624287372613444,-0.376369618690564,0.0579475429688305,0.00278255700035117
0.00202964777374787,-0.27252041982174,0.0670257082155986,0.00536904818835562
0.0783982881033379,-0.0689123754463003,0.0606537272829323,0.00525223497910829
0.124154491161357,0.068837761094077,0.0487607545399023,0.00380709316621236
0.163390868629118,0.109916071629857,0.0439368122615328,0.00252263962724501
0.202359571739754,0.0989284372692451,0.0467505999732042,0.00138629352600865
0.216694717383735,0.0943220922783532,0.0486953913939567,0.00016209761809979
0.202246527845331,0.121793366596121,0.0522030711048752,-0.00064342954306364
0.167227833772423,0.152431639212619,0.0603821545599313,-0.000654926216903674
0.117940977977551,0.153244827878224,0.0613381661094534,-0.000174891473933589
0.0821346238827581,0.150276174542513,0.042920304286927,0.000469480282343216
0.0728630937415431,0.200613529733962,0.01057337961447,0.000948375230121923
0.0378381139014781,0.267054839362012,-0.0238109150690037,0.000756630784433245
-0.0585272370979611,0.257009758863725,-0.0487979855160259,-0.000432052151126772
-0.153119478836064,0.162894107572024,-0.054676576121384,-0.00202862267162728
-0.159630017961972,0.0174762222956797,-0.0502942555040818,-0.00224719252484147
-0.0694897368105633,-0.11065990634004,-0.0530718771101249,0.000496997170951073
0.0369589340580793,-0.146668542963228,-0.0691005892573422,0.00517064860112968
0.0694683712415128,-0.145385588361511,-0.0961052744562721,0.00852308417746831
0.00635886398546082,-0.188324989555638,-0.121545190225451,0.00825961836958531
-0.0891225747869307,-0.217013899587327,-0.123913502869155,0.00444811141713346
-0.0985117279821772,-0.122406547328195,-0.0916806810698977,-0.000787865085047391
0.0286368471383985,0.0708898551643328,-0.0426423636678721,-0.00430104294547478
0.196125719477002,0.200754659810046,-0.010458446714636,-0.00449259226245166
0.262797509016113,0.161884751770598,-0.00256747443730141,-0.00282433101851301
0.213690172970849,0.0479306186684589,0.00181462373393666,-0.00149870235287833
0.141551226077428,0.00712674153922607,0.0152061086993482,-0.00105592041619063
0.0977797856355649,0.0191896299001281,0.0298054560478306,-0.00144762115981975
0.0709538126526276,0.00545463818410516,0.0382046027484922,-0.00301760228435193
0.0275340483770993,-0.0104982230833351,0.0388378748726026,-0.00540056146379313
-0.0446725777112751,0.00385161591886668,0.0384296012878784,-0.00716378122545786
-0.145829428166218,0.0385528290678499,0.0525250750551423,-0.00747683363409642
-0.214675605883848,0.0532410687479516,0.0741618738924247,-0.00691349978035985
-0.169857883965459,0.00383498531867897,0.0805679442676664,-0.00572972432456263
-0.095774556776784,-0.0441029976288005,0.0712652199858814,-0.00375677270996144
-0.0727888165479037,-0.0337975945530059,0.0580314347385379,-0.00113284908399105
-0.0636160107816152,-0.0611856010958411,0.0482856412540455,0.00278993756869905
-0.0741008278386111,-0.167922117955872,0.053002063291998,0.00771072161141109
-0.123928931556686,-0.244936574713061,0.0690946935768593,0.0109685999113795
-0.168354951639743,-0.172367042841237,0.0724969711738654,0.0109999015110618
-0.115411055258353,0.0255620473314252,0.0573841218205112,0.0088994545067598
0.0250533536751459,0.16612282133227,0.0458814285504785,0.00564169042684304
0.10534026184426,0.129271893032591,0.0543785302100995,0.000970802853928306
0.0680235147861792,0.00409260098482594,0.0708677071886704,-0.00477347349623443
-0.000266054261473688,-0.0538067331917498,0.0685093696383707,-0.00974823973900886
-0.0103998138384505,-0.0145337616247809,0.0381628494204341,-0.012206215125838
0.041935738845088,0.0423574134815646,-0.0144434267321308,-0.0115554818539574
0.0409342170203473,0.0212972552635644,-0.0723936695345268,-0.00743912414010661
-0.0706808857297415,-0.0773034002752207,-0.106185657640634,-0.000730675263072076
-0.152783558162012,-0.16108438329557,-0.109519425198769,0.00786995384025813
-0.145513700677422,-0.202834036375686,-0.0985242264789454,0.0184082825525156
-0.13718789039245,-0.201845768091704,-0.0828962768411552,0.0269294612931216
-0.111418460583897,-0.153729676467861,-0.066582102048071,0.0270294790713952
-0.0366298376479565,-0.0898258625662403,-0.0489593328693517,0.0165453926046921
-0.00775446331963781,-0.0210738968316708,-0.0231600696114631,0.00077967461448291
-0.0494605461794117,0.0318983056208247,0.0132028404441574,-0.0116532230819845
-0.0638240977311389,0.0475923400055736,0.0506029966479473,-0.0165573443099578
-0.0198382607772449,0.0557616487523401,0.0768511980389546,-0.0153916619567538
0.0304767274956487,0.0888343170064857,0.0859319982096255,-0.0117747830607046
0.0572606716195202,0.143132449693306,0.0799808915748461,-0.00896108856757608
0.0594794377571787,0.186004431182815,0.0675888514697488,-0.00761423200135388
0.032491932607413,0.19119756089268,0.0559190040752369,-0.00594267046119546
-0.0109807214787334,0.159088756957296,0.0493872714151928,-0.00279307538800613
-0.03597701776785,0.128665788459591,0.0422369716180426,0.00117584567315872
-0.0364263037985835,0.12642877637347,0.0257287008150463,0.0049141739978905
-0.0436733270450933,0.104397790471273,0.0108844273209525,0.00849955767174479
-0.0738775009825024,0.0125090498425006,0.00530781406219364,0.0125966244123361
-0.105253723238967,-0.132602671212465,0.00081419990628704,0.0160612132883173
-0.0811944756339418,-0.24287957149806,-0.000529325019147618,0.0164649464004605
0.0279626504745054,-0.233036092817678,0.00625718391216896,0.0138158155654249
0.154279396995592,-0.145897491378786,0.0153099112105997,0.00978025512391263
0.218819132314113,-0.10293469100313,0.0209838771850424,0.00433504325976496
0.215329269427994,-0.11149925611563,0.0202737182870075,-0.00193184882317392
0.205347526771749,-0.0730326382415528,0.0111959341175159,-0.00568204050130862
0.245675132130343,0.0397757350502226,0.00685616259690039,-0.00524190630995742
0.27342226847383,0.119275471634447,0.0286175632603611,-0.00341444800940729
0.190222456089257,0.0481059761084808,0.0646568623915502,-0.00309649987015485
0.0190585261813264,-0.107882899458812,0.0727300717019887,-0.00377204255972757
-0.124888812441817,-0.164393983330347,0.0354369101990496,-0.00327368300659486
-0.192152373332181,-0.0872753607266853,-0.018438860527774,-0.000788596670669382
-0.225620901105623,-0.0302281975638939,-0.0505566151184922,0.00168618423449336
-0.222351046385046,-0.0266130966678143,-0.0489970445908765,0.00192231771993058
-0.140748580563977,0.0632016630344926,-0.0399071075859942,0.000167384244039509
-0.00409228170186809,0.225174112567221,-0.0593041038726293,-0.00171265999851516
0.101311709121938,0.320008227519765,-0.0931097213812866,-0.00219579783798425
0.14540323371464,0.300670590777209,-0.0920765673114486,-0.00226998813685984
0.180036275886215,0.206506406967756,-0.0430785425011726,-0.00398811856961771
0.206128286569437,0.0761846381045157,0.0124795144724855,-0.00687466532793024
0.17671365839658,-0.0463008088382734,0.0366955166604185,-0.00893246314838511
0.0811663711649182,-0.109908054174437,0.0370046327756083,-0.00978006612240637
-0.0304536788718715,-0.147056457272839,0.0347603394697683,-0.00979181581624513
-0.091592200791299,-0.19934676299825,0.0400011357980981,-0.0084906138413977
-0.095189013376225,-0.24212356235015,0.044581537951311,-0.00585184977946283
-0.0704059347367343,-0.237896105289282,0.0299230322084266,-0.00108373817232296
-0.040697648884514,-0.184545538376392,0.000733335577135244,0.00777907437036478
-0.0359929870730802,-0.136893039816658,-0.0169177593508702,0.01693394592612
-0.087527341104862,-0.0848922742706,-0.0168228712536408,0.0176854705595829
-0.143732868092712,0.0105352172432106,-0.0177312787243035,0.0100610198111309
-0.0941307626232513,0.0750181452769666,-0.0296834058425831,0.00275906264043197
0.0367259684965213,0.0717465950804172,-0.0418619998530568,-0.000596238928161899
0.107945034901283,0.0629159705033746,-0.0444108760711255,-0.00316710720435359
0.0711790248125967,0.0739324775147223,-0.0443177823676915,-0.00707534439673249
0.00205416492358966,0.0845815915252829,-0.0512707945720015,-0.0110004866776418
-0.036505046709716,0.0838597720402693,-0.066168100500359,-0.0128831202053839
-0.0515993797074419,0.0743763539838107,-0.082563871650692,-0.0121288928003532
-0.0521803905840544,0.0627053408922304,-0.0904610531360715,-0.00899581745176024
-0.0345750437826402,0.054968938077935,-0.088480290957857,-0.00302143595243863
-0.011435820217411,0.0515083523800826,-0.0804263075177451,0.00508359303607747
-4.64934492640234e-06,0.0428170952989532,-0.0633139414831948,0.011018553560982
-0.00637094368377455,0.0290692155150124,-0.0367571211052751,0.00968761744813553
-0.017398818172349,0.0223182694444929,-0.00982190591811891,0.000862981385764723
-0.0266978063814383,-0.000700088208766061,0.0118306567421723,-0.00996524692003281
-0.0442709473153363,-0.0609141057352743,0.0336176412098263,-0.016544393336859
-0.0644147828328363,-0.0996465551512689,0.0547300789041227,-0.0161418829217968
-0.0679690425606405,-0.0727672169997473,0.0631488403749025,-0.010569773659209
-0.0341101043560902,-0.029669637432308,0.0610479606295006,-0.0025695631712462
0.0456531165219643,-0.00407342155857336,0.0630318268983911,0.00734628816941617
0.131585495813214,0.0186300368139561,0.064493763511538,0.0157894993117176
0.167125769313656,0.0321598174435459,0.0460664555831386,0.0147471509045551
0.146653373191278,0.0326533280999541,0.0139216809965167,0.00201550942846759
0.0817452598928019,0.0374296796805914,-0.00988532986921606,-0.0115301399172211
-0.0257035496205879,0.0471241349145848,-0.0265203653471287,-0.00973258782767967
-0.146009754551733,0.0194821505731107,-0.0456068865076914,0.00866469576560128
-0.22015563298326,-0.0948538686740018,-0.0702520584601962,0.0250272086100518
-0.218298271631427,-0.266996978083343,-0.0933427645298045,0.026259799686542
-0.165613592620321,-0.32437545110586,-0.0939385564993192,0.0182311874171828
-0.0563703719567706,-0.146361935430069,-0.0609463261115982,0.00971488952983212
0.124672966930144,0.0972595378739314,-0.00889738250980641,0.00178402017971308
0.289731651679739,0.211035074236016,0.0307370869091992,-0.00700070803161973
0.319118764347664,0.207353658085747,0.049228210441442,-0.0156600075841998
0.207011420634397,0.150341826088178,0.0689734700612244,-0.0212976041556496
0.0739017555256017,0.0907335228408177,0.0959140705406733,-0.0219960108457736
0.0369060688139548,0.0875550904138395,0.107934403950031,-0.0176954986254209
0.0605766258892175,0.0855919099003698,0.102204182139391,-0.00901795551152351
0.0297982685927757,-0.0238354708184037,0.105649606114121,0.00116043244296995
-0.0670868871028398,-0.165934083390098,0.118867580687177,0.00795510168133957
-0.129207047325051,-0.205848455030796,0.106559214228695,0.009700672064496
-0.0951314844491915,-0.167804790779206,0.061693213904729,0.0101453921564539
-0.0210500148515475,-0.13089820804836,0.0294038406264904,0.012111690027815
0.0373608288843799,-0.145638599531829,0.0259592517981727,0.0121692291408719
0.0778203529712437,-0.203419693947942,0.0189197560578585,0.00809344964450084
0.103716712744614,-0.176943609947952,0.00242989821157581,0.00484858867957948
0.124559158727664,-0.0156559534288218,-0.0121908413617261,0.0058078972321745
0.135837081552977,0.147922797911629,-0.0250980902021207,0.00662160909582984
0.119573123436667,0.218478276248239,-0.0318893515992983,0.00288625168162992
0.0852804612790279,0.210775870194122,-0.0326360271993953,-0.00317003821830421
0.0610367771179794,0.168742268762113,-0.039536510944326,-0.0069386224860986
0.0547328347991429,0.127782607609023,-0.0564935382032358,-0.00691560998410732
0.0156651456504697,0.05332279165159,-0.0775671609706221,-0.00364823444374588
-0.087888389609604,-0.0578313439650735,-0.0881758384247437,0.00165102104224351
-0.154592744103288,-0.0800436798684655,-0.0604882424002982,0.00713503156042759
-0.113907074407546,-0.0124703089634971,-0.00338633988062917,0.0105051160329351
-0.0330245519328323,-0.00223263719746898,0.0301262740091356,0.00853150524247176
0.0210009894780483,-0.0400864132928586,0.0259336573198804,0.000880617153664319
-0.0160141693803477,-0.0260294826128183,0.00601652419662162,-0.00716781457884369
-0.15018224921252,0.000151992694620177,-0.0195369678327578,-0.0104817495375757
-0.244616196600137,-0.0455552159850133,-0.0389055783281388,-0.0088763760654226
-0.204550150236005,-0.0612647776183966,-0.052253862749456,-0.005379414743409
-0.0880158693134531,0.0501117604485596,-0.0647968433759698,-0.00313434389501403
0.015053251044521,0.150596358811861,-0.0657763715883973,-0.00331078702112781
0.0607920300960742,0.134605497103084,-0.0537498696067882,-0.00496483502902825
0.0659191798917441,0.0627561230303641,-0.0336471923838687,-0.00640382870460269
0.0841144396047472,0.00577501408412134,-0.00711376336571379,-0.00433076084655101
0.145855820839702,0.0109807514753236,0.017399943586101,0.0034381929170954
0.217460308328648,0.0861289648954565,0.0276812062651763,0.0110280539629577
0.206603544989967,0.149539723115305,0.0252711812111991,0.0105388783717986
0.101182139810812,0.118329028957659,0.0297946628537599,0.00320528468876769
0.0106212338552842,0.0216984530327863,0.0429281045130108,-0.00408283398960961
-0.0330535084655515,-0.0543067273778304,0.0416890409984787,-0.00750115114510141
-0.0810428020492343,-0.0625970585457368,0.0202474166135697,-0.00759242441864928
-0.111224175526119,-0.0225673061353632,-0.0140643567487169,-0.00532062197849527
-0.0924706356209883,-0.00931683796388299,-0.0552054054544117,-0.000860381509131073
-0.0527192080110012,-0.029855908204646,-0.0795548105697717,0.00409153508599341
-0.0360056915296906,-0.0377079998959154,-0.0775060974324946,0.00597310241300951
-0.0880043078781123,-0.0290223274981487,-0.0731082447210225,0.00234139567737167
-0.180189343222587,0.0395578554896799,-0.0779190938976452,-0.00518143164543024
-0.214279831936401,0.180012026052672,-0.0865411468115881,-0.0121372859132916
-0.162107648516639,0.288592041758185,-0.0899021159043913,-0.0143059633902045
-0.0790186795636029,0.284390858685092,-0.0724777364709261,-0.00962800316855279
-0.011722165929797,0.177232424315664,-0.0349140109800153,0.00129561656979353
0.0502129205259689,0.0625909090746529,0.00796138249784911,0.0145256059720315
0.112607340666304,0.0343091696386731,0.0498273506550172,0.0199845607696251
0.134855516851414,0.0412542954106582,0.0819662045348184,0.00817573107914536
0.0971542883025511,-0.00590256604330479,0.090277709803628,-0.015163608207088
0.0141104448994039,-0.0897768465951554,0.0719679008036179,-0.0317864824372425
-0.0743919101476161,-0.120447999109897,0.0384562104319486,-0.0292802554639752
-0.103869425860796,-0.0404635799989277,0.00693402513276251,-0.0101635030744129
-0.048034308992676,0.0681440283049765,-0.00691157186692874,0.0151383087468607
0.0232171339302646,0.0723623277563787,0.00620445107650619,0.0354906742884802
0.0206250585653538,-0.0189760024969995,0.0328026074482175,0.0376977475776951
-0.0355659380870432,-0.106382689071662,0.0510383513838693,0.0164203145964649
-0.0585107838943459,-0.141914911138842,0.064990241805002,-0.0113346136760469
-0.0251724726162978,-0.143939202017645,0.0805285570194757,-0.0218797838855792
-0.00238320370968806,-0.165274776252539,0.0850975948283234,-0.0121681948407888
-0.0300482544895095,-0.197528793188279,0.0678501304021937,0.00289683667315857
-0.0489153499356951,-0.181151085891574,0.0387382961104304,0.0107763555173761
0.00207779548010924,-0.113779727739154,0.0248609159030728,0.00878379573935212
0.0848258519950977,-0.0314314034016356,0.0304600103681118,0.00137281998339379
0.115923741771745,0.0430352650079198,0.0339314138716467,-0.00479629410506879
0.0899675050216727,0.114718786824833,0.018530599115539,-0.0065566841209916
0.0625706884768697,0.200567661005554,-0.0275676718803734,-0.00507456002492272
0.0712890122520377,0.266375988655688,-0.0981156317126402,-0.00232518102603786
0.0936931137509805,0.223861227214779,-0.154797529852504,0.00110101285898639
0.086118991435355,0.103337228844435,-0.155278224630486,0.00480657444159461
0.0696289002089606,0.0474895414260566,-0.0950822174925231,0.00665086153446767
0.0666945583793483,0.0542191247670793,-0.0160690280711127,0.00476489107746691
0.0383163245362727,0.046760606938724,0.0400923294189944,0.0012738711823124
-0.0320170987401818,-0.0223198792813375,0.0696012739003507,0.000182471841012326
-0.107900242091987,-0.179328560431397,0.0878085987085482,0.00206294785396509
-0.140150745197039,-0.273665137300042,0.100335819709365,0.00438089723884421
-0.101500298038511,-0.168452309228934,0.0990452484424333,0.00517068566653644
-0.0295738175283888,0.00426233440898148,0.0812186021360974,0.00397278264613841
0.0071958199187051,0.0613286482646059,0.0591624540253678,0.0019434848777312
-0.0323646607569816,-0.0139671617807386,0.0474561295179707,0.000913143109139848
-0.091368667807772,-0.131069345674789,0.0476867807704992,0.00132198745017308
-0.0315701803543368,-0.22891881566864,0.0428435471570312,0.00272903523408661
0.126137664284574,-0.274645666825876,0.015762193795658,0.00454215415833381
0.224381209336883,-0.201776622541251,-0.0243482280979164,0.00517969576431592
0.230323798107161,-0.0314884577946589,-0.0477277750512207,0.00271088046804599
0.185435493252188,0.102435672785694,-0.0470824860578849,-0.0027261155455469
0.106341770334398,0.169839162954624,-0.0462416454259515,-0.00804456805865244
0.0499949495144955,0.199132199100636,-0.0556853628511881,-0.0101628972868249
0.0488836233423952,0.149321036438032,-0.0665207289951626,-0.00876079246415921
0.0428917476869589,0.0879348864113152,-0.0801916952095882,-0.00547645854539375
-0.0133206205141702,0.140130632991168,-0.0916285073395458,-0.00211397328532795
-0.0915314896081466,0.212917867773401,-0.0849658590863714,-8.99950439483873e-05
-0.134808300920397,0.112151819055256,-0.0675992251786876,0.000403912469175096
-0.128453692323882,-0.109265375597071,-0.05966723769828,0.00117356129922568
-0.100509965247456,-0.2043775612378,-0.0577395605078195,0.00282703019089548
-0.0516271129996666,-0.12372241952197,-0.0500137080833456,0.00283556054279827
0.0154322043915409,-0.0218160054145206,-0.041778985781502,-1.20064188697743e-05
0.0594534422519868,0.0152956756922661,-0.0340037577089062,-0.00382373623697343
0.0650466886705253,0.0056946237860552,-0.0174536547821642,-0.00676899267829413
0.0595030143497479,-0.0189482513140477,0.00841501971501088,-0.00799311099384941
0.07118274639548,-0.0475104121977646,0.0320078846107607,-0.00700286037842244
0.0881549357690934,-0.0691397912651834,0.0436805840331158,-0.00418222317397724
0.0871719250770489,-0.0696113150191824,0.042082113460879,-0.00129145930129987
0.088034209627512,-0.0495461381876285,0.0369931197411907,-0.000230629655071295
0.0684955008629668,-0.0210468817174956,0.0410394962360312,-0.0010979549751311
-0.00821853860626789,0.0179690330214336,0.0506647908974113,-0.00241735808579106
-0.0629163781782425,0.053290662176591,0.0577756364756862,-0.00312814442989787
-0.0373505588995859,0.0548848528581118,0.0574552404870515,-0.00327115570303781
-0.00304119457330988,0.0390350202443095,0.0461406252140695,-0.00260917361694454
-0.0315630694630259,0.0313911986319881,0.0223109288525335,-0.000706254354661342
-0.0859425132077156,0.0291288945499158,-0.00842403111173556,0.00111487976142247
-0.0685679361892194,0.0191758366128007,-0.0287291428654174,0.00064738431229461
0.00238386726400176,0.0209734035574595,-0.0365613998694715,-0.0016060414808071
0.0241361047929381,0.0463807784126436,-0.044366419868598,-0.00265796319609738
0.00814172962936273,0.0471671330210529,-0.0581587488085036,-0.00198087020375877
0.00838821943112877,0.0259006230200361,-0.0845733959663058,-0.00220576631607546
0.0032756870247962,0.0574900886809129,-0.110488290719018,-0.00404691894417086
-0.0131657009165011,0.115212951057709,-0.0975795889746805,-0.0051987384023145
-0.00145568824881688,0.106889235966458,-0.0417872498505923,-0.0043252039865993
0.042192927813363,0.0683117087952743,0.0181595733080937,-0.00220961736921022
0.0671653230998914,0.0592314781130179,0.0577199293289771,0.000182982482487795
0.0303504814661127,0.0637395752876306,0.0701775561916625,0.0019665103443822
-0.0393701079198087,0.0169027735891008,0.0634989214280412,0.00221637148513298
-0.0695377651798445,-0.159850396866865,0.0668114055714932,0.00149434447808218
-0.0612208913651856,-0.33589953185854,0.0764313669460302,0.00137106372903323
-0.0495058163240724,-0.278759088017603,0.0678548110111172,0.00145268641854302
-0.0371766214588122,-0.07533655786697,0.0514019048414741,0.000154407922066114
-0.0590216630543004,-0.00379327967545978,0.0343099850849968,-0.00150537024295729
-0.112717006113053,-0.0808376763321367,0.0122472635441104,-0.000825090016515537
-0.132606250457306,-0.0852668834393628,0.00360671076331959,0.00117297830007707
-0.105350825065644,0.0336429887103072,0.0130809585912815,0.000774528892778457
-0.0727163499843663,0.119965515565855,0.0141253649054652,-0.00143907645951528
-0.0533741615220323,0.123186399616616,0.00659348416140367,-0.00211242554652856
-0.0190052650996883,0.11815975853868,0.0125825114386088,-0.000720322187332063
0.062148678630858,0.128008859596361,0.0171675181003643,0.00226908580701794
0.146611670617965,0.106703525889299,0.00557412267762789,0.00726636887996056
0.143547069144113,0.0627852547734691,0.00344024694560468,0.013219864268379
0.0554237611722106,0.0486443736364169,0.0258291006047826,0.0156869105598973
-0.0305610263957103,0.0292075465992501,0.0633722947676483,0.0093351176242807
-0.062892590074899,-0.0500969901479031,0.10519554289636,-0.00498454538663631
-0.0487414306768516,-0.177838509801471,0.131988935225274,-0.018829388334433
-0.0191630939520104,-0.304848917191022,0.129122468698171,-0.023723477953891
-0.0139767184587924,-0.344440891051711,0.1041350021251,-0.0165970331487331
-0.0485926572320834,-0.23124233569658,0.0699002804919786,0.00220301727498761
-0.103076674779525,-0.0149627348706101,0.0332081309108646,0.0251193595185466
-0.125837269165508,0.135164227089671,8.16366390385681e-05,0.0349939242297686
-0.0774499966582379,0.122446263361457,-0.0170032764162373,0.0233428645925484
-0.0142625057508883,0.0414515754621363,-0.0246260757649985,0.00124678110111471
-0.00401907924196557,0.00840403286851446,-0.0562042868675811,-0.0151710023393667
-0.0180547001987664,0.0512321093458195,-0.107399037351876,-0.0185750123768634
-0.00134412767660934,0.0926385352791768,-0.137059610791826,-0.0114731953692938
0.0144419394925336,0.0866491653671995,-0.134925254748357,-0.000858291580460944
-0.022225596653179,0.12166121766127,-0.118139071254677,0.00800739924052608
-0.0830611963265245,0.205545624627971,-0.0956296395786307,0.0122550135370302
-0.115554877268514,0.209098820888876,-0.057118303864363,0.00885522730175205
-0.0971598210322885,0.0541305392448516,0.00311427891036373,-0.000770648518753681
-0.0347815062203047,-0.202420095380127,0.0559163147318984,-0.00777836596511929
0.0545755790770479,-0.425133757093414,0.0801844239983796,-0.00605858007236729
0.121915240636238,-0.442566143736898,0.0891936850858925,0.000684214792944155
0.13988418593641,-0.231703016130472,0.0832311454379754,0.00571155702542827
0.155405420483938,-0.0296780042826799,0.0615155055532712,0.00705298449237288
0.183888310171007,0.035905514641462,0.0458420102460139,0.00764523592228473
0.196265839419296,0.105097572226896,0.0291817779467759,0.0107210058822895
0.172791485757847,0.256289927870478,-0.0101645337331635,0.0148389285303253
0.0858849242048995,0.38030212140379,-0.0469055866449315,0.0136703320400125
-0.0635207538555898,0.368885473330591,-0.0521445795924198,0.00380446031949868
-0.173615563394494,0.275923079857449,-0.0309824168109603,-0.00885181581380013
-0.13262831903074,0.207715402904409,-0.00163480650598834,-0.0155304401044521
0.00253732591822524,0.149092559760374,0.00989710033857673,-0.0140657669015877
0.0940057983142268,0.0748770467194978,-0.00643298384726507,-0.00826783306029338
0.105589281850693,0.00698658987834919,-0.0413506550283543,-0.00258099751535034
0.0438787422372951,-0.085388643832718,-0.0819155604651336,0.000994713850072363
-0.0508738972411005,-0.200248490479885,-0.106774655241454,0.00307705229159167
-0.057050761874465,-0.209088728291927,-0.106711610085842,0.00472915521143431
0.0051274730883992,-0.0644657387413223,-0.0969134932064301,0.0056425338348412
-0.0236265705309257,0.0515849871936835,-0.0928540733299151,0.00515036959558837
-0.0957458596016477,0.0568283779777198,-0.0934660989773599,0.00471388771319072
-0.0676211858543556,0.084186819398057,-0.085085845882084,0.0056269283080832
0.0170318659982011,0.122118534622264,-0.0670770349250258,0.00542717827317303
0.0557847140907993,0.0754942355391317,-0.0541245147304363,0.00196778320363571
0.0193208697077223,0.00339905394835974,-0.0492134335602899,-0.00249040567563394
-0.0437631965160293,-0.0158670077864292,-0.039543738876777,-0.00457568973440172
-0.0321151677599347,-0.00772072698534869,-0.0214742832016942,-0.00390501840892145
0.0589225190947018,-0.0247426310335796,-0.00799283778849437,-0.00173777158357378
0.122030299731564,-0.0511990199450518,0.000102891688585464,0.00169723324518887
0.111001991298005,-0.0587118814218025,0.00742011219073142,0.00500775610542576
0.060593779093837,-0.0662927013964901,0.0108840354138051,0.00493364887759037
-0.00821671606066715,-0.0810130045131169,0.0113236706525713,0.000613158917222554
-0.0717790084072493,-0.0617415580469677,0.0134251425559172,-0.00584655877109367
-0.0952471768876747,0.00919141091600204,0.020764434291959,-0.0124388114433472
-0.0829188621130827,0.0882876588181891,0.0287480598887592,-0.0178290647800724
-0.0614265787456414,0.130193891243217,0.0255658371121012,-0.0206435734561462
-0.0411164543369046,0.139181032869179,0.00455183715851341,-0.0205217527432395
-0.0210789922788695,0.129081947248055,-0.0260459454524978,-0.0182897887799201
0.00213352711257773,0.0796822628803075,-0.0430769050951379,-0.0118839064392963
0.0200695449639612,0.0127807451498597,-0.0280772779599384,0.00233990731420645
0.000527146787071997,-0.0509970130672037,0.000704275180585098,0.0177084213000226
-0.0384870378965613,-0.132338849136563,0.00912113679824085,0.02181096622873
-0.0346174250496647,-0.203602653109434,-0.000916608643783682,0.0183166613028561
0.00183210936450084,-0.195609052774106,-0.000837339312216398,0.022327464330008
0.0221647033716381,-0.0789033634206261,0.0202703013309253,0.0328217864083943
0.0335955718999979,0.026948320496831,0.0453029560903691,0.0309043312076109
0.0521121723385201,0.00360641219436479,0.0536246830577621,0.00857809546806637
0.0561587939950915,-0.0901684644174768,0.0430727367914483,-0.0186274513835585
0.00803850246979761,-0.180318637519668,0.0243839615638561,-0.0324968271295604
-0.0831986007725809,-0.24775276281729,0.013854282129976,-0.0309176368295831
-0.113690066688826,-0.2424842496522,0.0224699790831493,-0.0225479209451152
-0.0449042592198043,-0.141968301673178,0.0427515744436536,-0.014709348439751
0.0299185808685206,-0.0146339406733543,0.0545444568554743,-0.00984058285484062
0.0530488780061523,0.101454426642353,0.0423693484444987,-0.00641440900603735
0.0550043437726575,0.20239133726571,0.0208361892685361,-0.00204114231057062
0.0743845938392121,0.206754746692166,0.0248671287711258,0.00279644516277659
0.0841671958708128,0.0702869115618741,0.0566989492233782,0.00563813313350861
0.0532282870833515,-0.108424771427365,0.0841882236765368,0.0056151888816246
0.0272988582936098,-0.221490984869975,0.0974023892329941,0.00475205923388329
0.0381886096727185,-0.20534684530576,0.0975160336526693,0.00520186595442012
0.0684097714495707,-0.104682659757665,0.0764677513776383,0.0065723682688783
0.0995929924132687,-0.069713017817119,0.0502949644495274,0.00755842195722223
0.0957382094817574,-0.0795805836104415,0.0355383490343005,0.00819010825375677
0.0336248686904854,-0.0102807663828781,0.0142986625193602,0.00883068391253506
-0.0430062826292107,0.135891083707802,-0.0204648660611279,0.00836690384710043
-0.0880304945394803,0.302796589142525,-0.033946961754129,0.00614377421240563
-0.109195872181666,0.417829787781547,-0.0193183596709215,0.00497374358668198
-0.102882291785239,0.362191837656457,-0.0154168738655943,0.00682367856061549
-0.0758283249565538,0.109447649072979,-0.027648058687418,0.00750502226798561
-0.0595230448783475,-0.131154952663897,-0.0305554385869216,0.00268474560557035
-0.042991420230784,-0.182540691682709,-0.0165395910901276,-0.00574343559134264
-0.0268614205456139,-0.127114284711724,0.00462441003660163,-0.0126231520143033
-0.0276704282598861,-0.0805986300922122,0.0243858046873054,-0.014376793184604
-0.0197726002310313,-0.0786846690878569,0.0395379179685003,-0.0118604409370029
0.00337887763742803,-0.0986708109804296,0.0468538104109675,-0.00838979503762077
0.01688636548868,-0.100816646094397,0.0493946404130753,-0.00443613773525205
0.0104403624536146,-0.100708425652809,0.0518687001800797,0.00383422599466464
-0.0104521438560976,-0.108351945862673,0.0541660065474664,0.016374063530063
-0.0317646337344638,-0.0924615989249085,0.052590939814928,0.0231834738633676
-0.0464175270443131,-0.0510058657072512,0.0384727617234729,0.0172561982358913
-0.0626172210078298,-0.0133285463457787,0.0050454830260312,0.00490602489044991
-0.0740835377107809,0.0235408281505592,-0.0422368929882203,-0.00431079193118537
-0.0541843234014449,0.0591451210249108,-0.0844832899323686,-0.00740190512825532
-0.0289019582876194,0.0692501621904918,-0.100039926819205,-0.00616966901724499
-0.0308674956553956,0.057302354231305,-0.0822517588005112,-0.0035873089773022
-0.014454415034227,0.0360043957630107,-0.0472022455368968,-0.00304852474372048
0.0431066002135284,0.0156607623958746,-0.0192476654873848,-0.00688458659660403
0.0900583279046607,0.028114215551171,-0.0122970282368866,-0.0126985998727972
0.0755386242207373,0.0417579348728926,-0.0189110266826038,-0.0141540485684379
0.00234236988801795,0.0236323940205095,-0.0237326148011112,-0.00836274971465566
-0.0684805413943986,0.0440030639554588,-0.0236637432525856,0.00108381549878101
-0.0668117645822342,0.102974957659367,-0.0171179152535316,0.00849385502189815
0.00750422268074892,0.123739950866863,-0.000943789350962225,0.0105864027860584
0.0705778369905901,0.106591011906379,0.0213600689601631,0.00790852118728762
0.0721832349065423,0.0640391756950763,0.0372572696504797,0.00331290086240919
0.0362747381585876,-0.0752476669584726,0.030931370603131,1.64681864517719e-05
-0.0167326271565689,-0.254139443472375,0.00901918409754487,-0.000454036162779513
-0.0715368104788047,-0.233168815027938,-0.0112685193992452,0.000230866474353114
-0.0909940231366808,-0.0280010888398823,-0.0252596353339258,-0.000363087221316708
-0.041388908060553,0.0960923920309291,-0.0273804657839919,-0.00286345516477617
0.0650219829886183,0.0538860139612865,-0.0260858072304915,-0.00630655511210522
0.152268103474746,-0.0306253691039971,-0.030832696543106,-0.00898890861181327
0.138860023950284,-0.0599061112233383,-0.0192636358530172,-0.00975695963151958
0.0744007376362382,-0.0623221584139122,0.0143764513442108,-0.00839005125161839
0.0865824907581396,-0.0698899345478395,0.0428083814587191,-0.00515939549723652
0.148809253403972,-0.0496946938204911,0.0513668718985246,-0.000903491439202309
0.142609165482832,0.0119414231172401,0.0480871023519912,0.00310714173217918
0.0836336904706133,0.091467666920615,0.0381009085289769,0.00560301598533611
0.0361246731659126,0.119694167443062,0.0149262256632484,0.00637671862345553
-0.0100700834682558,0.056293707305427,-0.0134119655249741,0.00645236102258895
-0.0332649054364081,0.00560326199476964,-0.0315660263259362,0.00629999862325862
0.000641999842109928,0.0457646139364007,-0.0422672023520002,0.00569871237745467
0.0217604397577149,0.0770502533362052,-0.0485687302537168,0.00469274024581844
-0.0347949285685749,0.00789110683021431,-0.0470713456101685,0.00276431945494696
-0.122476506285828,-0.0603265536678625,-0.041248622862936,-0.00138404070127868
-0.154838847068184,-0.00741018033093866,-0.0370809692960338,-0.00784772632560985
-0.0960370949867101,0.111665978792977,-0.0287818304917663,-0.0137864006720736
-0.00192127291372562,0.190925805988222,-0.007021051033787,-0.0153016773263469
0.044783370697938,0.195287353435599,0.0193551104984815,-0.0116357726169674
0.0253655604506949,0.147662210990005,0.0404007046917625,-0.00596133781294566
-0.0150241682029035,0.0936720202317424,0.0608811523663859,-0.00238288709664194
-0.0226953768886787,0.0353112576687827,0.0806732609177367,-0.00291894230524092
0.0171932845017078,-0.0462576773824183,0.0930509545820691,-0.00586894629576789
0.0820156691008355,-0.110347498534087,0.0995349367262441,-0.00725606430073458
0.145793198843838,-0.13040972242604,0.09852389784776,-0.00302966194722384
0.195897682859645,-0.135624601084651,0.080712271904462,0.0111440020754131
0.214292680048018,-0.12371715210309,0.0563902237330615,0.0308962985573596
0.183577222218854,-0.112366232257357,0.0494890319566351,0.0384384156642595
0.106332267033233,-0.166549418072039,0.0525204614253194,0.025035266140667
-0.0125380020307305,-0.195972653333949,0.0335594303575194,0.0042421375350854
-0.131298571245451,-0.0716841984083513,-0.0108556697946139,-0.00646582685913492
-0.185148634047712,0.0641409950283235,-0.0549461869594995,-0.00449973482836206
-0.212385619467027,0.0604261597441442,-0.0769939456193401,-0.00127951977459865
-0.293387331645547,0.0146961925602281,-0.0683448923583731,-0.00603034663524905
-0.344454631898107,0.0273982460565455,-0.0437935638792922,-0.0151099841927419
-0.251805011527,0.0665737231113927,-0.0486520109634578,-0.0196407237825912
-0.0947368920904957,0.0790303048154931,-0.0964394829061691,-0.0156633299640983
0.014598965151174,0.0832217140895684,-0.129721714929301,-0.00614974324447389
0.0477283505971183,0.0816480762608797,-0.106132942582252,0.00151293507441685
0.0222118417853134,-0.000251236888974247,-0.0516570362146814,0.00242141023527742
-0.00361803815460647,-0.12649345678502,-0.0139886287762204,-0.00123176056135351
0.0160263177604264,-0.159751815019534,-0.00617526084616099,-0.00346699648129785
0.0685403901888516,-0.0811686196479929,-0.00483096259908496,-0.00118907628486465
0.058159225282137,0.0137377928217368,0.00349846624539225,0.00336990111701266
-0.0371657576644524,0.0885904825066325,0.00312249623205667,0.00826581749650745
-0.0797258377361935,0.153185832118688,-0.0185705764714397,0.0157500037848613
-0.0226586268481817,0.168796319624073,-0.0324040329181353,0.0256864937107949
0.0442480335091641,0.1228690945919,-0.00458292180876869,0.0287993704683736
0.0590635526743026,0.0567020936510715,0.0419289593993645,0.0151882058020915
0.0218365788197959,-0.00875069500768683,0.0727290494478197,-0.0103344803532557
-0.0305235383670994,-0.0782179062869828,0.0858373528647376,-0.030365889742255
-0.0834652989641137,-0.144940993366036,0.0748427634332874,-0.0328618641053933
-0.130316353864574,-0.180791475758665,0.0372202161531795,-0.0205679015535755
-0.1115108987839,-0.152180328809078,-0.00485525456454543,-0.00442143764359379
-4.4371484981931e-05,-0.0823427628728929,-0.0396923271880511,0.00692786141675779
0.104006821333906,-0.0644569440537767,-0.0718800589630441,0.0113160108953033
0.122328400587857,-0.112581644922972,-0.093212358154129,0.0113368925275405
0.123966641573127,-0.110202074903116,-0.0890872438214435,0.0103771506111463
0.158213896071376,-0.014616702230611,-0.0675114594315554,0.00905128655877881
0.187847197472807,0.0952734933950668,-0.0457810046390928,0.00643765850661653
0.188414320160075,0.161190565776193,-0.0258675696775739,0.00239035847784851
0.153291035131358,0.177722913809193,-0.00707765722391862,-0.00281016463540427
0.0755899026857641,0.157712115265304,0.00997292407908003,-0.00814890259834177
-0.0261830207503601,0.129295955692691,0.0236757042025147,-0.0114737402829242
-0.114165059104912,0.107233533003012,0.0230970242216279,-0.0104075377914334
-0.162571174025076,0.0436798668700776,0.00351420489626832,-0.00501334759175154
-0.174764950721184,-0.033622822009625,-0.0204811676784087,0.00127016454785026
-0.157189994690321,-0.0135591169626561,-0.0344123777978277,0.00486865314631259
-0.105273040924503,0.0544814474481739,-0.0370220871541667,0.00495916758174194
-0.0536573975904236,0.0386079640794199,-0.0362776955045613,0.00321006650093103
-0.0347424763267254,-0.0630121315323197,-0.0387511312244346,0.00196586314061856
-0.0362221712822669,-0.129184678258577,-0.0380731300054864,0.00220596149217044
-0.00532383003109119,-0.0642021871978511,-0.0259976698836042,0.00269507423706139
0.116093367025953,0.0510806713724309,-0.00693283320850292,0.00174805519653432
0.25970853826607,0.078265481898201,0.00899878511472584,-0.00119731527993315
0.267579263106751,0.00387979518105785,0.0175007045006943,-0.00502427610595655
0.10957008336688,-0.0901713026515216,0.0195531225891598,-0.00747787746904363
-0.0371044840218684,-0.0769320827545571,0.0176466479144901,-0.0073715586337641
-0.027330958299586,0.0938536729522026,0.0151111698846666,-0.00420093744667695
0.0387921981586199,0.263221711845172,0.0157136541167034,0.00199410167416487
0.0380237091720959,0.276040370913242,0.0252843868966348,0.00757927612836854
0.000609575633381952,0.184025165610656,0.0474033318565277,0.00756865079816591
-0.0324687002394646,0.0833525532594028,0.0727599299568256,0.00254096775493953
-0.0820975343243632,-0.00996660382578435,0.0882333987352299,-0.00191833968689786
-0.140881527766706,-0.108142572106768,0.089027778944879,-0.00286890922059028
-0.150648096171111,-0.192085130423324,0.0760049181019981,-0.00202702127742428
-0.108633603937219,-0.19727200842012,0.0581349267414822,-0.00144312368974501
-0.0625621883687142,-0.124441386655011,0.049916776288897,-0.00211666245578491
-0.0211471703878649,-0.0721711587692807,0.0509761378395154,-0.00420137168641531
0.00422696044247764,-0.108910569980812,0.0402873790847705,-0.00622668245323343
-0.00376912756774657,-0.178986445067302,0.0089410845256508,-0.00618511003048375
0.00917809901371944,-0.162872377305786,-0.0233262110317598,-0.00342061022455842
0.0872910268551123,-0.0646918452795299,-0.0381306992186674,-0.00022832911458419
0.172210830722769,0.0119524619538633,-0.039961503366661,-0.000310985492365679
0.182921336314299,0.0337065886063225,-0.03861126660925,-0.0043737784844787
0.116911038893282,-0.0112351062082445,-0.032956716515727,-0.00965766357599114
0.0319182354504138,-0.101747937914385,-0.0144321714864485,-0.0131258103311454
-0.0284023809097403,-0.135359566916439,0.0102846320633474,-0.0117664024755064
-0.0579321009713942,-0.118541015732251,0.0199961446513899,0.000564582131897098
-0.076047617390633,-0.0906107475674698,0.0179855760280335,0.0251382989874375
-0.0890748538416794,-0.00755301453373594,0.024989071717884,0.0455319450595564
-0.0842742638207194,0.0964592274887804,0.0455655126565925,0.0418861154849503
-0.0900702429306025,0.143178104299327,0.0602990037544092,0.0175181027722551
-0.136064113204001,0.149957977919116,0.0320426728987345,-0.00657815673227581
-0.143258597395443,0.108172470882012,-0.0400674686968966,-0.0191264498465145
-0.0533029625928704,-0.0447835352160885,-0.107498663389122,-0.0236885696893972
0.0322033884698633,-0.132020711206718,-0.148269101877268,-0.023724517617538
0.0330281505965321,0.0016485561209549,-0.15631499405081,-0.0187208666342852
0.00962338044214473,0.14846143994526,-0.117599639680759,-0.0112246345212262
0.00142913069559023,0.140554393757382,-0.0668274588037328,-0.00492855821487001
-0.0405539998511207,0.0394508554375185,-0.0474388076081546,0.00146826656546964
-0.100821000854128,-0.0586856923054826,-0.0460985231652679,0.00877249995754325
-0.108030648841326,-0.104276753983439,-0.0343026031638628,0.012507043014407
-0.0738072222497589,-0.102073306014315,-0.00169883688352493,0.00942486550961519
-0.0370620046726479,-0.0723003001764864,0.0498005664353197,0.00207041160691116
0.0115984204258887,-0.0572551515345477,0.102385198052478,-0.00431271589150989
0.0692783815886833,-0.100972688580185,0.131347270375651,-0.0064276291385718
0.105204722180631,-0.165572689423778,0.128373498039033,-0.00478600656075895
0.127286049910336,-0.184997124486703,0.0995730152554876,-0.0018590369163307
0.13689402336129,-0.162624333195222,0.0594180389115042,0.00117672005513598
0.0558831203629696,-0.116110534755834,0.0260626945659543,0.00492878064476275
-0.108802802678212,-0.0451589333483151,0.00453216770092671,0.00927463615904796
-0.19861028835879,0.00479929812453755,-0.0140278526188293,0.0125452257911596
-0.139964420223518,0.0495431370631279,-0.0485822456617233,0.0132295406913391
-0.0133330865155465,0.177524947974494,-0.0967541214694369,0.0110913637916081
0.0931726274630515,0.354687365612843,-0.11601152173812,0.00670232158970221
0.139626406453954,0.475779855549246,-0.094496430966871,0.00126485678035852
0.117527154768822,0.488758319158274,-0.066964339709435,-0.00337781344098432
0.0438400450597907,0.394318066859826,-0.0484713383838322,-0.00632443049684485
-0.0563704727324876,0.265180483481744,-0.0339349745923992,-0.00780970759493624
-0.12656317795557,0.159508715452628,-0.0255914696925305,-0.00736596459289272
-0.111126536546902,-0.0192238494319739,-0.0266778868609346,-0.00395544974543007
-0.0490923445315071,-0.309323843396664,-0.0323009351996729,0.0020202333650786
-0.00180125885782461,-0.45406815003597,-0.033237020577003,0.00675827334756574
0.0254169097234331,-0.329190890678615,-0.0225474224979315,0.00526919073074868
0.053854829954736,-0.171844723914428,-0.00772327488846341,-0.00197929504962129
0.0814959657148283,-0.086361662406696,0.000786323193971532,-0.00870345473603594
0.0526747917842574,0.0132685979853182,0.00782676266250611,-0.0110414451418512
-0.000146511768072177,0.117373026463417,0.0163425778303009,-0.00967509128701386
0.0333089173626149,0.174389553884885,0.0348115468855762,-0.00372500904394953
0.114802538659645,0.112469036325019,0.0667176509583595,0.00468270171319509
0.153431544860242,-0.0397307163995537,0.0804228061422281,0.00525863794383669
0.166180328752144,-0.086415630263939,0.0588923665339086,-0.00522781713423865
0.177848678406003,-0.00755595666921036,0.0358609609423818,-0.0150391552277395
0.136740113283764,0.0522400498329331,0.0438986228244703,-0.0144909583962707
0.00514960218848501,0.114121551884596,0.0724222504030865,-0.00677918897921898
-0.135717682583819,0.220646932819382,0.0965216859770122,0.00387572662105504
-0.16782436077113,0.211500756560267,0.110987916382581,0.0202448206493407
-0.107382965962929,0.0217759767324069,0.109753525314505,0.0378922380593909
-0.115057167335528,-0.169307099312211,0.0987856015347033,0.0407802044300763
-0.222884676657212,-0.26879493158279,0.111436143795926,0.0238842632131158
-0.243024789384164,-0.280586978708281,0.135586728671841,0.000992032508431197
-0.122385157429158,-0.16777980554813,0.120504704237936,-0.0155501117984444
-0.0186137694141028,-0.0157214413992564,0.050328748417078,-0.0241705568553485
0.026667400611503,0.0652644688053421,-0.0451730146717952,-0.0259168229832604
0.0905767650371566,0.117415042179957,-0.118111592863722,-0.0224443789094475
0.164432887331566,0.158024351280306,-0.149372845899988,-0.0173906307063364
0.205079397171946,0.112954771227239,-0.153328226281492,-0.012682252164479
0.210027156834322,-0.000315025851795075,-0.145476996313025,-0.00780880221166202
0.160914549776218,-0.0629461233264833,-0.119181405960667,-0.00169678335707563
0.0529440548710911,-0.0643343769824192,-0.0663632934273537,0.00735577064751659
-0.042701607298894,-0.0646798797461267,-0.0118531474700995,0.0178970178117055
-0.0773627070835714,-0.0555375942910541,0.0191103960336929,0.0224634387504284
-0.0867420785635046,-0.0368198199441998,0.0285947712878505,0.0165099360603626
-0.0917822393970234,-0.0436641516444216,0.025647152994113,0.00522014588397243
-0.0538305991787802,-0.0667482323482888,0.0177074883753201,-0.00310196767322853
0.0248011961311098,-0.0570493695260351,0.0126998726341067,-0.0044866991017148
0.063631320535944,-0.0177018521139444,0.0177219338662419,-0.00134055611518304
0.0223375470459332,0.00610611636192446,0.0298346323786068,0.00112363247521186
-0.0707205588192793,-0.00387838600412684,0.038112603548418,0.000926777639089836
-0.150115216432165,-0.0311948176008784,0.0419225993408407,-0.000485697758830491
-0.157730886064118,-0.03038270173384,0.0480881716694933,-0.00214684085331257
-0.123767990010122,0.0182433263904475,0.0559068185844423,-0.00427485991584607
-0.101665325799855,0.0390874248027395,0.0562810182293726,-0.00562269110491672
-0.101178837048593,-0.0631848931993196,0.0411142947228751,-0.00285010307271276
-0.11278777811668,-0.210125275218406,0.0161078215156968,0.00444678857501841
-0.104993770281838,-0.204753479411935,-0.00418004866140764,0.0101467445042146
-0.0691563956573501,-0.0415732212032698,-0.0189364763710512,0.00891314431847458
-0.0355568299208644,0.0935346530192243,-0.0338789113585293,0.00308135745917163
-0.0129113707407466,0.0794400980084699,-0.0424451908588187,-0.00223446018755251
0.0185679366790526,-0.0410784221065431,-0.0371135029898116,-0.00541566768703325
0.0618677185038117,-0.104721856840877,-0.0209498033248954,-0.00796876426086669
0.083748406578155,-0.0395205132142703,-0.000697828960787197,-0.011288027807413
0.0837250019782243,0.0285064056810567,0.0159129838502297,-0.0140930990846548
0.0942316653122956,0.0565778675530331,0.0183334854588422,-0.0135009999352196
0.112810083981366,0.120016473328214,0.00233186814408448,-0.00876571353620624
0.123292928412708,0.207189585277319,-0.0258991272933825,-0.00121797563192209
0.119269975328833,0.28207706777255,-0.0531747568169162,0.00832857091791195
0.0916978391183617,0.285197695339223,-0.0582997409010401,0.0176709864246626
0.00450195235865136,0.177430131715737,-0.0360776141171832,0.0216784868799115
-0.116547904438719,0.0863755170970345,-0.00860073317992794,0.0167827383789946
-0.155388088295471,0.0676746597198564,0.00579713315055754,0.00478295997885195
-0.115857164970442,-0.0448041335887206,0.0106142117120492,-0.00670747114828808
-0.0812683067488211,-0.291829538848337,0.0185163039071055,-0.00857588246098065
-0.0386270523438993,-0.438699338879284,0.0160935520356796,-0.000377723408709162
0.0295839912980436,-0.304159387626958,-0.0156867442167112,0.00635810225213087
0.0652733221719334,-0.0283766695176735,-0.0519901206934309,0.00135488133755282
0.0265141035353579,0.12059319475918,-0.0608576885509023,-0.0107544960396853
-0.0362731665685669,0.08854511600567,-0.0435930299658657,-0.0176299004729457
-0.0706185212845395,0.0293293413608243,-0.0168668323476411,-0.0150409803188213
-0.0939130390079249,0.0323674295008458,0.00836514915109492,-0.00758769737475947
-0.131285522737078,0.0689433164301836,0.0228815561939351,-0.000623777732937404
-0.147894629075543,0.112320016528376,0.0200233950605666,0.00328114103891341
-0.0926892296810744,0.110025350838302,0.00831971480942321,0.00472667825731613
0.00500388548194586,0.0576746283537294,-0.000943677705817575,0.00571435917820058
0.0719019826089489,0.0556617800876515,-0.00409814443345104,0.00631095778154709
0.0690375288478881,0.0841169669586377,-0.00223821693126446,0.00533959887787259
0.0447878911883996,0.0213076332257614,0.000858471753768762,0.00398375688653041
0.0719337700824091,-0.096124202773073,0.00284767354218303,0.0045082291712982
0.115663658211289,-0.140234170056797,0.00539869514623746,0.00588624304306467
0.134969852914551,-0.0882241406492017,0.0104361955230662,0.00515433956366821
0.128071445285187,-0.0238230338938513,0.0195254473220402,0.00247291720370386
0.0568780557430868,-0.0139308207552286,0.031344295654004,0.000713703710212974
-0.0557590331725069,-0.0334620513353165,0.0332445403970729,0.000584289017358363
-0.120139327094475,-0.0359440126861585,0.0198880498390626,0.000228496943869553
-0.10944572632071,-0.0123426548820962,0.0032181428312885,-0.00120929183501936
-0.0629974789367616,0.0177995815489494,-0.00988700390756486,-0.00320769007498162
-0.0229547913962921,0.02235251592859,-0.0215218852124721,-0.00463605998034951
-0.0105654834089409,-0.0172095250899726,-0.0306416667476252,-0.0042782553829126
-0.0158067222097754,-0.0814872086733058,-0.040144547563404,-0.00280330984949843
-0.0187141367984488,-0.129999625964433,-0.0536064547819197,-0.00180242352172265
-0.0359317668069816,-0.150922087559294,-0.0558356805385195,-0.00140936515461626
-0.0893718217558271,-0.135050807725902,-0.028233264641989,-0.00114279471250839
-0.125042015553909,-0.0821299760154349,0.0152152795330095,-0.00137420945111495
-0.081436309000076,-0.0530713198527168,0.0421585041992052,-0.00259243957999012
-0.00466654664478382,-0.0625205187477705,0.0489600830277671,-0.00351149455625061
0.0506693931878472,-0.0352097480291086,0.0486267578054928,-0.00196076630286476
0.102635338957151,0.0476939935206417,0.0448772572301078,0.00210501578204668
0.141355595480541,0.123806137229624,0.0309550772714828,0.00657290632340057
0.12692685399378,0.174929900448323,-0.00436224949602789,0.00991429813214294
0.0774269382841478,0.219022636589355,-0.0475504914192876,0.0112416787498065
0.0437731098557687,0.210688164217203,-0.0648970767716085,0.00815317339168442
0.0368378299073022,0.109514568854221,-0.040286908111161,-0.000835696933837227
0.0206203000788323,-0.0213264766688276,0.00921550881332281,-0.0128266297387541
-0.0340307043144535,-0.0986860953499656,0.0445617577880697,-0.0224786207510993
-0.10198475248279,-0.119404244094679,0.0431428977875597,-0.0243625290799883
-0.121507304373162,-0.101000267376684,0.0223492048799111,-0.0149023502487017
-0.0595516056376476,-0.0315918373411506,0.00764842021643053,0.00139682651449848
0.0495407447471721,0.0363627794239596,-0.00180033686508391,0.0120131297969789
0.0898437725517248,0.0416307067771878,-0.0137512855517937,0.00954900664922298
-0.00985217729759747,0.079565017954777,-0.0240067253910203,-0.00110386802404537
-0.107847004305129,0.182305686674489,-0.0373710379171216,-0.0107893372327186
-0.0749722210230234,0.171091436433494,-0.055507632910934,-0.0132058775742948
-0.0115825834352765,0.00133740707827623,-0.0546146091854621,-0.00506478589995671
-0.0341121105514012,-0.146899967947793,-0.0312410760759553,0.010188543827676
-0.0744967212779562,-0.153720704528945,-0.018220783279982,0.0205944755657001
0.0015832026703939,-0.0759626679752366,-0.0212894771444763,0.0176832022745882
0.133570871251557,-0.0208906879574924,-0.0199116008116749,0.00550046218555592
0.147934052616015,-0.00296216747019262,-0.0129057123263686,-0.00740966215024191
0.0535901462657438,0.0330324946887219,-0.00400231884576485,-0.0166678570615904
-0.0228217717046866,0.0895714015573061,0.00277221931984689,-0.0208663054378957
-0.0503377231532592,0.143277175933473,-0.00345339104224963,-0.0192283657453248
-0.0572578370289557,0.186145618977951,-0.0204921012396397,-0.01231475664487
-0.0282767022363921,0.151303973526864,-0.0296547936077096,-0.000867473423514283
0.0289491306906115,0.0519159283527659,-0.0206072119813078,0.0140556211311657
0.0427404013175629,0.00178881535625789,-0.00670408841358655,0.0256664943950638
-0.0149669215697322,-0.0183977986148596,-0.00986188073464902,0.0251472499079832
-0.0875926935410965,-0.0585034830243609,-0.0324679316994135,0.0147306862332079
-0.121818984760268,-0.0430836650755122,-0.0564901260055255,0.00520779681647492
-0.120079829985665,0.0492931915455234,-0.0675621845153588,0.000233803512386038
-0.091103277293458,0.118727269773676,-0.0632415639590311,-0.00493947509826338
-0.0414672824490825,0.139234630514681,-0.0537859789441393,-0.0115875749462235
-0.0133880615976626,0.15960284937667,-0.0463506606762955,-0.0146303433387841
-0.0191482555754102,0.142087133910188,-0.0393301979475934,-0.0105654026035828
-0.00977409170449442,0.0330199558893259,-0.0368789116757142,-0.00189183434331282
0.0358925594327781,-0.10632536330616,-0.0404828581939363,0.00688775576142437
0.0860214195956253,-0.164589437289295,-0.0398669232391435,0.0131308365365414
0.103837433104648,-0.125777611915274,-0.0248453442494953,0.0152444374350462
0.0845952710515813,-0.0618704112621127,0.00223902365122366,0.0120692452999208
0.0548119516540022,-0.00378405325505567,0.0265530079059961,0.00501474311370494
0.037899420653075,0.0534231060120923,0.0337178195348552,-0.00148854857853355
0.0205190484002243,0.0662110316463797,0.0346187355392108,-0.00408354752393973
-0.0160181318643346,-0.024990928379247,0.0465416291584003,-0.00218951822494028
-0.0458829927547626,-0.167050023820452,0.0564099978935465,0.00447331951889311
-0.0350678543396615,-0.236109705907624,0.0515313356297427,0.013319519905842
0.00441549890241314,-0.204421540189216,0.0436973179905841,0.0174878304987855
0.0312279430445185,-0.122638198397956,0.0432261155506834,0.0140621862288577
0.0334261202087226,-0.0468343222294297,0.0465877169951267,0.00701817929816242
0.0376633663250685,-0.0171362024400237,0.0427816255927826,-0.000146023011368252
0.0644199544966309,-0.0144410592453935,0.0278165539128974,-0.00701894908317384
0.0889563869021152,0.0201554955335262,0.0103839406712084,-0.0115924230240521
0.0745199181345462,0.0983941604783475,-0.00164323887461359,-0.0107238565045204
0.0441113524520423,0.14872443509258,0.00166337905672342,-0.00620004257675656
0.0528336476934058,0.0909556757719891,0.0272644363846409,-0.00280640918481465
0.0889535149498683,-0.0747577229511843,0.0585528056398279,-0.00164035489554848
0.0868157591678659,-0.256729590897142,0.072754540068038,-0.00106950814812303
0.0349709489830786,-0.283202967571763,0.074479960706135,-0.000625271746169782
-0.0251815103485038,-0.0737713665265908,0.0864875087046107,-0.00108224672393816
-0.0520994437302123,0.175618257538355,0.112035346566883,-0.00317247768855296
-0.0493055903167792,0.270671778029156,0.127922908871912,-0.00615498566236882
-0.0572484318620677,0.264493808624459,0.107712723031816,-0.00808576472671716
-0.0501453160439872,0.210358201973644,0.0482777072922209,-0.00823575243439555
0.00732360682387825,0.0438431721852592,-0.0217137606079884,-0.0062296674810387
0.0652655621493431,-0.258030321394822,-0.0672358708579716,-0.000208788717585987
0.095258466536677,-0.496114237087086,-0.0836222424677386,0.010112271290846
0.125082897323027,-0.404215025407964,-0.095611977089674,0.0199698414309704
0.138990834018641,-0.092225279626535,-0.113400771987622,0.0247374926890266
0.112736709521121,0.126707733186709,-0.115500779478686,0.0253056426793644
0.0789731806948224,0.180770983085297,-0.0779553863334653,0.0197718777570835
0.0668646447806335,0.161570104818878,-0.0105979744298823,0.00271252787049521
0.0556015812130166,0.120230665439594,0.0480151818692474,-0.0205287166597794
-0.00301372391923278,0.0673548097985905,0.0757505416194059,-0.0363580958765687
-0.108743963210125,0.0321019799810638,0.0817892065409573,-0.0384882612990088
-0.160438388236115,0.0331625011669297,0.0833987623299485,-0.0304570701672818
-0.105635242323627,0.0333667415272271,0.0863171876694587,-0.019400836948719
-0.0393531457413909,0.0237218410423572,0.0861649979794669,-0.0112481960633437
-0.0224978889103676,0.0213961637546937,0.0799443600731036,-0.00716744625784424
-0.0057646240310442,-0.00851558213816629,0.0662806490226241,-0.00375523862006908
0.0357904083076603,-0.053659182445859,0.0415513603720642,0.00186760799482381
0.0545177969183668,-0.0614159032152175,0.0132544672251688,0.00809840413335931
0.0321047273167577,-0.0332553037554273,-0.00364208177083949,0.0115699233210395
0.0198993895725479,0.0266676247532106,-0.0106198288632012,0.0119106054458484
0.0471675987452527,0.0845739446891083,-0.0102794884647996,0.012381200887129
0.0741529491002151,0.0642434534731274,-0.00322281796281212,0.016610859838164
0.0608561485651029,-0.0160082937364814,-0.00330610128170832,0.0212845126148003
0.0319590950589161,-0.0416423847550449,-0.0086222909124828,0.0175886645051234
0.0195706716964558,0.0132384248324895,0.000744975418729622,0.0049282298293133
0.0126582715985189,0.073136945247132,0.0191327061541797,-0.00763160719198406
-0.0119370760469023,0.0936080676144427,0.0206857482424589,-0.0138823155300622
-0.0549116917586044,0.0580155634860231,0.00052525096672551,-0.0152532115278691
-0.0526567572622995,0.0173364644165032,-0.0330332157913969,-0.0147170492674865
0.0303783154503198,0.0384856950460824,-0.0742618203089514,-0.0135661023146508
0.105690874694099,0.0758106750549574,-0.097517908461209,-0.0136512245100487
0.108709090346543,0.126677353792231,-0.0777615328393873,-0.0155756489496399
0.0668203192706149,0.21268195447022,-0.0373412347366188,-0.0166772029913264
-0.0076659629885539,0.196294402317093,-0.012698470539466,-0.0139970963518651
-0.112145670717342,0.00203163156741554,-0.00435249114434131,-0.00561204793570354
-0.195543160222933,-0.195631689899142,0.00200296089132521,0.00996307619793591
-0.198533417335403,-0.215858263745401,0.00967315757714305,0.0306432359014088
-0.16194096823186,-0.0689719655622509,0.0174896907354644,0.0447583316976097
-0.129608066750367,0.0838850135804001,0.0161096091303253,0.0388700283326382
-0.0475775112702573,0.093199851589759,0.00454721437868023,0.0163287974172498
0.063290755953774,0.00297799647547159,0.00306285292100489,-0.00588427422665235
0.123133914721081,-0.0239521254068822,0.0166769301769309,-0.0168795369391023
0.136654845805942,0.0283669090837321,0.0293409459269226,-0.0180378062974851
0.129233042585368,0.0336727293549956,0.0317262011256018,-0.0149411107441503
0.0737507915533488,-0.0224550941503358,0.0286147935998037,-0.0103288334535057
-0.0170453333963789,-0.0549910697079781,0.0233608806840235,-0.00475435021734362
-0.0822388896479857,-0.0566874477843241,0.00811357216345228,-0.00047682976655313
-0.117555988288247,-0.0585850293345569,-0.00872360309378085,0.000338843639276594
-0.143503054463635,-0.0487314356752108,-0.0121075360493855,-0.000834785182471184
-0.147123917634943,-0.0246378417337528,-0.0166976484849566,-0.00172468867645945
-0.118463986683037,-0.000255675022996116,-0.043440502489722,-0.00156684017774937
-0.0752657299677373,0.00425436559166227,-0.0870589865260027,0.000342854402170763
-0.0191903341669896,-0.00912973643037421,-0.118443846316844,0.00421333225555874
0.0643784934453314,0.0172577095145031,-0.113982574148244,0.0084919478565475
0.138861663859637,0.0776238134374637,-0.0785218879804959,0.0112234170201539
0.141192742322178,0.070885291125997,-0.0337627942417534,0.0115002147331432
0.0989082492578989,-0.0182625176910468,0.000387907514830768,0.00959634947786843
0.074335321644945,-0.068644180719192,0.0141827964059256,0.00685500699849573
0.0500086680099462,-0.043824174633096,0.0150447177890929,0.00462946069013773
-0.0187455368083116,-0.00790558075748289,0.022946926231744,0.00335788311735262
-0.129182335921176,0.0111621577522688,0.0409579143218962,0.00253550007415455
-0.205673112086291,0.000676985727366502,0.0511062835865465,0.00135811377430767
-0.188300966410027,-0.00998755943356091,0.0479035520996614,-0.000457807278976105
-0.129852838225722,0.00884533630007964,0.0389348593287766,-0.00259863783589562
-0.108071541528227,0.00626351615529499,0.0309428822983154,-0.00528773374213014
-0.112540779277455,-0.0429127093505012,0.0257811541425091,-0.00914391766663874
-0.097711483726527,-0.103611492278324,0.0128056180080027,-0.0123165666394765
-0.0598445697488617,-0.142865771115369,-0.0104721833701961,-0.0109060167393813
-0.0122583543948857,-0.136871552998133,-0.0307648895096158,-0.00379957540782066
0.0262399374270763,-0.110409626053447,-0.0436139178277647,0.00542507289869911
0.043946220272092,-0.0950400736228368,-0.0501173053376167,0.011870631907778
0.0547541336106716,-0.0954180907957056,-0.043612503058787,0.0135673370882668
0.0669511116796886,-0.112610144349221,-0.0249323440566746,0.0117747688076716
0.0589998320784273,-0.117827858321115,-0.00480057989736711,0.00753117032590419
0.0222788961657881,-0.0700030898394872,0.0168198409916465,0.00104754493036272
-0.0122808938758939,0.0422361712378163,0.0412459230872382,-0.00545580122110907
-0.026508605802227,0.163498730782441,0.0663931544206724,-0.00863923587998177
-0.0288563733142662,0.218192449271294,0.0929398526642894,-0.00822318973143509
-0.0343323746348211,0.18933453666695,0.110300871675357,-0.00687305142374387
-0.0541524261764388,0.113658107650302,0.104095944909229,-0.00581738665551526
-0.0665694267611869,0.0260639759202995,0.078436303518102,-0.00394341166809971
-0.0650119419068508,-0.12864015633821,0.0252788995080684,-0.000980066078173136
-0.0597872939360619,-0.357810268556363,-0.076785220953599,0.00187449639368587
-0.0202210382756027,-0.474444859680679,-0.178215429267223,0.00423706073324787
0.0233160939761557,-0.347712225509318,-0.217164006194827,0.00637385478029791
0.0390081902104541,-0.0800749140528897,-0.206591311888435,0.00775849053829307
0.0661453453146926,0.16319711501141,-0.176345681388238,0.0072888314120731
0.0711209421419024,0.289176948231134,-0.139339292225465,0.00401820849981454
0.0606969750552335,0.297853337959241,-0.087651046898975,-0.00108749911834535
0.0991882830044419,0.279966396827521,-0.0261169059982097,-0.00501140756304655
0.134756840144108,0.278689323431768,0.0200189778383149,-0.00670180855828958
0.115920920998834,0.258189383089159,0.0551113428348319,-0.00920504686228132
0.0661036324560057,0.195200222258046,0.0896356869396729,-0.0143349611277141
0.0181231018632981,0.100487613626051,0.112031855283706,-0.0181080995539773
-0.01071834090036,0.0263349575745386,0.125178857495404,-0.015784872094083
-0.0299051249946971,-0.018467489919897,0.143443745459855,-0.00699377773822326
-0.0558639678864897,-0.0732303807939329,0.154342701876589,0.00578772591014633
-0.0924116521666364,-0.143439501855253,0.141734951273513,0.0169460329709683
-0.104644180338461,-0.247827626578684,0.113539161882771,0.0188733039241393
-0.051303006154072,-0.351085099432904,0.0794441511098185,0.0108787731499088
0.0368312883811633,-0.336897370172672,0.0416853650503274,0.00111601052063145
0.112432399876915,-0.186255094328487,0.00155746478076782,-0.00352004870797203
0.155700787210403,0.00569345343487843,-0.0469011595332866,-0.00314713422193073
0.132077554180987,0.151335727218237,-0.103447086574577,-0.000285919449484569
0.0733837068324139,0.219240827861337,-0.144692942480874,0.00362390929014329
0.0767362083099953,0.195672089778409,-0.146878201744521,0.00631964935455408
0.147327426544726,0.12737071623614,-0.118258614149311,0.00523346499660482
0.211970673500469,0.123781640131466,-0.0878256635038297,0.000299585559128053
0.222638851667371,0.198692109815887,-0.0706886408775973,-0.00604190757588047
0.189749136678118,0.247468874925667,-0.057531785002874,-0.0106483710149677
0.144663333406612,0.222585048074018,-0.0215247165375892,-0.0113487988132046
0.0680682765900384,0.191439712356955,0.0378838906529992,-0.00859516737322479
-0.0250106754541123,0.194517018909309,0.078464655932199,-0.00516119500447316
-0.0798939628058828,0.19938308456114,0.0796497615786821,-0.00371114411602159
-0.126000586433502,0.203827446443352,0.0640247438410252,-0.00440759786009107
-0.167219623267655,0.197637281014513,0.0518188744266005,-0.00551183719946513
-0.144641656196182,0.0768077024891369,0.0416557823243379,-0.00608459887103769
-0.098250416259907,-0.170735316208752,0.0278889802288855,-0.00443211945479815
-0.0946242029483672,-0.369419000600987,0.0146757358116629,0.00307978959564816
-0.120411853288296,-0.405344581469739,0.016009166047332,0.0148255305873611
-0.104823906187496,-0.30599677928399,0.0351575587343315,0.0233511346268472
0.0120289387235865,-0.157092121157866,0.0522518507104866,0.0267187996559069
0.165419036737941,-0.0648363113669332,0.0542129241536969,0.0266953479068627
0.256976056101911,-0.0135587090726584,0.0575712326507817,0.0194585888382035
0.268765521034931,0.0422559246980626,0.0738991369199545,0.00313530349312286
0.243869946257903,0.0558921439612601,0.0832214919361848,-0.0140072726784479
0.21612332575343,0.0309611098459847,0.0760663933396826,-0.0225566031807265
0.140629399624709,0.0308503971952355,0.0687204673033081,-0.0219056394458551
0.0080422105599802,0.0745414586918763,0.066695544136138,-0.017858274241985
-0.0935606093442727,0.11849801114347,0.0583136233590485,-0.0150270484376463
-0.125855805174686,0.10942925815433,0.0375056389837714,-0.0126557587669039
-0.119144788187522,0.0549302075319526,0.014599209450077,-0.00653682574912172
-0.108456580086302,-0.00921242555874265,0.000794210732727271,0.00384969753783989
-0.140560308775556,-0.0794805294813279,-0.00025519423948029,0.0120327226682356
-0.187305899815558,-0.151103109719696,0.00633406666247446,0.0136529219869718
-0.165741706481856,-0.223112073745764,0.0108871589550426,0.0121993775540203
-0.111156387454973,-0.301024535442928,0.0130101887177396,0.00952949240019023
-0.10328492548806,-0.319608187399408,0.0111504495898445,0.00212677130300337
-0.123921686093758,-0.197890341233326,-0.00241000203094377,-0.0094859730407999
-0.137851300637014,0.00576196007257063,-0.0278684289152877,-0.018528725180959
-0.147112353385709,0.121720730383784,-0.0538576117940401,-0.0195622536090956
-0.138018082451208,0.100249918582703,-0.0734608297636262,-0.0103226857827537
-0.0950933509952445,0.0929735440685369,-0.0890759929590626,0.0114228067060937
-0.0209092399655371,0.181939184172186,-0.0917203083572338,0.0393318958555909
0.0710882973193892,0.270480582086574,-0.0751271224836437,0.0499927838843633
0.131445261594656,0.257932362149237,-0.0542755824779798,0.0277478711708192
0.117099017089901,0.129527355592516,-0.0404402260116499,-0.00941223816330865
0.064111132694587,-0.0631495009159637,-0.0319332034202627,-0.0323968211921178
0.0364832865238044,-0.253356572479159,-0.0269617023345114,-0.0310492557215098
0.0149553333695345,-0.339277431532026,-0.020672206209867,-0.0119689073837916
-0.0204440131963928,-0.243527885892285,-0.00956937437386425,0.00948260446678291
-0.00600331898520105,-0.061592831113261,-2.45761904846264e-06,0.0174307200981788
0.0498143743003712,0.0657134036862552,0.00668803470524303,0.0115311457786262
0.0595105139213894,0.0945576083826031,0.0163966185835443,0.00453680065637784
0.0066134860379554,0.0331688200715528,0.0263175805467215,0.00210203184679363
-0.0538485373487861,-0.0415518077276603,0.0313502672611532,-0.000440188008449048
-0.0700350213933355,-0.0379050168043047,0.0309382177940539,-0.00622971753000968
-0.0204837961294832,0.0512264991302203,0.0250702077703966,-0.0127675479733572
0.0443500762195596,0.164093435046997,0.0191205886429067,-0.0157404680131906
0.0409046180820485,0.205347771180878,0.0193835112857042,-0.0131894975191258
-0.00442309343534711,0.0936678381657126,0.0237714727856417,-0.0061758826632291
-0.0131633831159254,-0.0602451779071627,0.0247147436002393,0.00338316428630288
0.0233241883230402,-0.0579670124014487,0.0154149684644372,0.0125658682901967
0.0490032148923394,0.0344230770208675,-0.00374523513674335,0.0171793064631194
0.0103859584666664,0.0626622262546692,-0.025699302351695,0.0157158081188724
-0.0762441337574104,0.004767407311827,-0.0456076396909006,0.0104508287287496
-0.15774169883498,-0.0790829282130912,-0.0575234556732036,0.00435120090058112
-0.20002017279946,-0.064568433358018,-0.0496392542457568,2.00287330732489e-05
-0.155655028300479,0.0428441107590331,-0.0205873782451834,-0.00204621491445894
0.0021879960999957,0.098772530607583,0.0108389667333798,-0.00385143742127565
0.157715150352458,0.072402616090822,0.0230467203616929,-0.00564645781375876
0.177699369992345,0.0390949923625342,0.0101913855244397,-0.00559563781000802
0.0965482961600095,0.0163705616393058,-0.0183418102818865,-0.00381224587158253
0.0329800277494805,-0.0036941631553809,-0.0551065980751913,-0.00148257030690117
0.0392514328104032,0.000643994887982405,-0.0832286691498232,0.00265646588007967
0.0739529221907495,0.0230206331555367,-0.0714861208404609,0.00911635277674251
0.0904906185877905,0.034770781154495,-0.0259623398215836,0.0118845052521884
0.0862807383399428,0.0303033893574935,0.0117513927602622,0.00523782934850663
0.0608462162089762,0.0317830561687326,0.0205910493987827,-0.00611557217532687
0.018849661198751,0.0625837856580837,0.0126883491531104,-0.0134592201123649
-0.0238393184415793,0.101990765924313,0.0107923509086462,-0.0144572090662691
-0.0665247683599453,0.0773676874776078,0.0264732216391741,-0.0118711256043024
-0.090601694197093,-0.0233090502041333,0.051350899076351,-0.00742635865450634
-0.0543143065585581,-0.111455907163801,0.0665705361527101,-0.00233217846760715
0.0292552630525063,-0.148044198545064,0.0618135787217206,-0.00104791762168574
0.0629499358793365,-0.167802917232157,0.0347953914197106,-0.00551246172935435
0.005992197332597,-0.179689575551217,-0.0113568688315538,-0.0104254203631661
-0.0626948108611982,-0.177055259243816,-0.0535802154553897,-0.0106876359011459
-0.0995224755537898,-0.144311432370995,-0.0617152536686345,-0.00726057995743656
-0.126800857606804,-0.0567525525430509,-0.035812586140653,-0.00557892635899433
-0.151914854795929,0.0474962551310424,-0.00714357885073319,-0.00993303688288445
-0.182440184107754,0.129822414440403,0.00369679476584528,-0.0179334098587319
-0.19420733607696,0.204909557169014,0.000475178110644431,-0.0225462148597385
-0.104200827080241,0.211362246916374,-0.0123833208756532,-0.0173029746841716
0.0995862820219438,0.116619559157082,-0.0275199117744974,0.000999942392893992
0.307128239361061,0.0349217154740536,-0.0287713217995824,0.0292809282371074
0.362404492076169,-0.0116269497004295,-0.0174992724065415,0.056209325359094
0.213912633222689,-0.104206414972688,-0.0104395366429652,0.0666031169425169
0.0107683942761065,-0.197012129191614,-0.00333864711888776,0.0499780799162491
-0.0900900182431228,-0.207990682644051,0.0100564262314561,0.00807220221015369
-0.0972347742559325,-0.18679636773283,0.00358243580955684,-0.0400911645054575
-0.0762296086549003,-0.171752046993228,-0.0373970557637989,-0.0676753961227788
-0.0457440665496561,-0.108077009668678,-0.0771643740490088,-0.0624486083033984
-0.0173611303799564,0.000251751462438804,-0.0878197965736738,-0.0355159314750842
0.0238269383981136,0.0811027011123231,-0.0897121536213441,-0.00718430637141478
0.0971843098051817,0.0984195535978787,-0.106827276320752,0.0114991282971392
0.147045854821372,0.0901578743222202,-0.132163748443262,0.0214974198064749
0.135063534077356,0.108644283341194,-0.142503023549995,0.0263037936504283
0.0757772002234307,0.151080284109283,-0.126953566818224,0.0263367660885544
-0.0223115064439656,0.173324181434795,-0.100533069301735,0.0198046893150653
-0.0757954496011009,0.111167734686567,-0.0789721774914956,0.00705141662668025
-0.00280646847121414,-0.0245976824487041,-0.0496084169011155,-0.00603158581261949
0.116041036067419,-0.116372134771639,-0.00751532952779094,-0.012912502311005
0.174692551633734,-0.120932329439162,0.0225473092359844,-0.0125967341396878
0.177851456363252,-0.143236192796318,0.0286121194030917,-0.00777261551844527
0.156475366938396,-0.242740255018897,0.0167275773726147,-0.0012516278807597
0.102765811939399,-0.259386711654698,-0.0136992856699463,0.00498110120210461
0.0309032110140327,-0.0444204223133431,-0.0390770944353826,0.00987841411876477
-0.0415772807199214,0.205944208031983,-0.0256933036360262,0.0123677668067998
-0.120902150266002,0.259768074932487,0.012232313270969,0.0118861667530508
-0.155260438871566,0.201054287689825,0.0442399079547303,0.00957577666383086
-0.0938122524845635,0.146255065501212,0.0620735450376613,0.00667041748370385
-0.0177599472734628,0.0991905036443176,0.0671296321840419,0.00359485931981506
-0.0218601336103547,0.0690081843517825,0.0609773287455888,0.00114038092907781
-0.033035774083584,0.0191382807504473,0.0513883519111865,-2.11074825603227e-05
0.0300263606409092,-0.111518695840995,0.0381728583688225,-6.98657410206204e-05
0.0923752716720765,-0.228631391324941,0.00931490285795852,0.00116263315779343
0.077300663416078,-0.181516429974086,-0.0228740780189666,0.0032858366409305
0.0266009527067515,-0.0190822709141965,-0.0380554512881672,0.00362636082722897
0.0227070944063485,0.123979548799935,-0.0427194579819304,0.000625551598364078
0.0602016928942392,0.20616003610192,-0.0438590528067516,-0.00332943997465913
0.0807588999738838,0.217942578328635,-0.0407095021267782,-0.0052988324413158
0.054542611835118,0.133675698332745,-0.0317960742256214,-0.00462000450895016
-0.0407667378935138,-0.00959140551174525,-0.00756531991398298,-0.00222386447989664
-0.156145306041586,-0.108429705977716,0.0221674309402631,0.000187914027439107
-0.194236271591421,-0.120940865540517,0.0314250495756317,0.00112803960926284
-0.164203771569262,-0.111515610833806,0.00749004323427564,0.000262520550170375
-0.135545545720149,-0.109448597951185,-0.0346603036594351,-0.00160082462196673
-0.112347639116188,-0.0666770938998255,-0.048816883795472,-0.00303797658466293
-0.0669929439818829,-0.0178969173785758,-0.0223737575440724,-0.00321282004409562
-0.00818503714660967,-0.0121129910128143,0.0097420814848307,-0.00188814221671887
0.0446140453151597,0.00568090626124658,0.0372339424874753,0.00086461438527534
0.0775557499583418,0.0516051315266666,0.068056618429066,0.00326405571687358
0.0701762021522867,0.0900770408062703,0.0951339403116286,0.00248448938697401
0.0480410542131973,0.0917825112076565,0.115325470363775,-0.00205075537890813
0.0440630868988537,-0.011088225429964,0.127568537949611,-0.00755594774854298
0.0331490929989963,-0.182649946863926,0.127716155697611,-0.0106269887934071
-0.00305758913895876,-0.240450080367396,0.124056776713538,-0.0101495276965882
-0.0553245934608487,-0.155259607198818,0.123570010776922,-0.00801958759358558
-0.0996142452855355,-0.0534852834975221,0.121325495465532,-0.00676076183525937
-0.104774059038793,0.0258808826323834,0.116815742069766,-0.00627049477845266
-0.0982406231756712,0.071028397417793,0.113995627108404,-0.00490246794001593
-0.149216214964265,0.0897366988330321,0.108221099457275,-0.00247674131108999
-0.238038903840309,0.14474508437487,0.0875256238652875,0.0010585982654205
-0.247827471331417,0.192419656222986,0.0492908186588887,0.00694387667589348
-0.142845775436092,0.16808092749561,0.0145834504024073,0.0125542238379969
-0.0191848338935161,0.124465978495971,-0.00701173700250568,0.0120695550178927
0.0632845329808911,0.0924572573176779,-0.0311188558285383,0.00636528780836071
0.115854050912624,0.041287166443692,-0.0547513241701483,0.00237849471607769
0.126109784484362,-0.0155956181887957,-0.063990316742856,0.002526155794283
0.0927941153971149,-0.0426839049918734,-0.0533218557486333,0.00306782147268779
0.0731572252072198,-0.0345851051815627,-0.0270204665742943,0.000380918106929308
0.0947446074072049,0.00875697494442272,-0.00420226296755748,-0.00634813105814861
0.109500561244074,0.0085726238344502,0.00755478375568461,-0.0151825599447169
0.0804002493427083,-0.13548301662772,0.0188683389060485,-0.0209733969127391
0.035189295628313,-0.300450495225957,0.0324149673589301,-0.0183491931129357
0.0218810593445743,-0.294040774043729,0.0421962502825781,-0.00756517780123066
0.0477332455642312,-0.151895791204207,0.050507060168208,0.00449350859033862
0.0777010897272286,-0.0210033515236513,0.0605194169532875,0.0109469175354209
0.0598811174365638,0.0171394445619399,0.0576472994064815,0.0110110408000377
-0.0208479929694043,-0.00475718935522118,0.0414792581962512,0.00852837518489347
-0.0795895734643018,0.00284295315870502,0.0292033289973465,0.00628579428160108
-0.0328865487668375,0.0572681299824886,0.00815994639044116,0.00370956139592067
0.0539605288935213,0.102529586913082,-0.0198123617411869,0.000388158698915928
