0.0423049423927418,-0.0051829049099541,0.00464622537999383,-0.0247474896302755
0.0501572264077336,-0.0460246399675047,0.00412902465902365,-0.0328016076036367
0.0500810997217546,-0.074190843641807,0.00447178302951114,-0.0294142838520098
0.0413458241657884,-0.0949917053553356,0.00619996109892713,-0.0180175761686601
0.0292837928929565,-0.116511206510334,0.00736929995069226,-0.00291590622211525
0.0216135088514328,-0.115084705533199,0.00606888256524715,0.0094295148855378
0.0227054288593916,-0.0764652602203642,0.00144106904743416,0.0134266734583616
0.0208213664337535,-0.0248094972861839,-0.000214531072274954,0.00880747047968876
0.00508227560289813,0.0199583483257772,0.00622225719089198,0.000830204437093911
-0.0103247546472559,0.0502242229366938,0.016270220870846,-0.00374926994904081
-0.00818211196597114,0.0599909801755087,0.0254057996770701,-0.00262818363915279
0.00739162054073394,0.0616833282704763,0.030488398588345,-5.10025065123265e-05
0.0253650655522447,0.0659008337890806,0.0265341697835208,-0.000963247319277081
0.0467806794890833,0.0468316319271904,0.0177576492066665,-0.00539612493448421
0.0687958786655137,-0.00117747985540778,0.0112110880991193,-0.0100154437325697
0.0784391091515937,-0.0380854201707683,0.00723286249297352,-0.0105332829037903
0.0674350758990393,-0.0498340324777487,0.00925004699355314,-0.00420521957183001
0.0358683572346914,-0.0560126127357846,0.0145816760611106,0.0062406991021234
-0.00126701805006125,-0.0688206931407419,0.0164337039849716,0.0148324401965684
-0.0240154024489579,-0.0762912250130637,0.01674441955135,0.0182203953353991
-0.0231406115035923,-0.0636790219835125,0.0169476750043686,0.0170724240888509
-0.00902992730267272,-0.0451982039708877,0.0157996775289413,0.0133363736064526
-0.000995647463940721,-0.0337342501649629,0.0147616090630782,0.00863029171736845
-0.00126827152613809,-0.0211403242657136,0.0157201597569238,0.00455367890673599
-0.000879048474301827,-0.0140360491553855,0.0174429838155112,0.0017714569620702
0.00451169854896759,-0.0359250977375836,0.0126403730780915,0.000120383091222665
0.0118781105181404,-0.0722990174805481,-0.00469466994701178,-0.000931108010839602
0.0201070607880302,-0.078913187781341,-0.0228501699454894,-0.0027021443278892
0.0329959175608373,-0.0561335445141842,-0.02194213602576,-0.00590960955645211
0.0425510775702683,-0.0261805685694757,-0.00396981588875644,-0.00953756397129678
0.0389865908436709,0.0125826071721099,0.0118890132971512,-0.0118351739712858
0.0309570688867177,0.0450393838926191,0.0190763281682705,-0.0119637152972324
0.0317432468397372,0.0488639487106285,0.0228866755789594,-0.0105413439436643
0.0456830688705681,0.0373522348255874,0.025184104699676,-0.00839549271796203
0.0587863781439196,0.0339420589306377,0.0265293367133482,-0.00558080583762714
0.0426784369039975,0.0434769664844688,0.0294862818662421,-0.00232898779336527
-0.00613793987171035,0.0525524200825493,0.029159306971765,0.000740948535769628
-0.0508584160655569,0.0509709637381214,0.0183223274007231,0.00348723495380437
-0.0655258616480837,0.0394832480079528,0.00370997594192192,0.00547111300319569
-0.0614864250772101,0.0182374351424048,-0.00395671833434415,0.00603237351884783
-0.0502602564755646,-0.0107240946163493,-0.000434887564593204,0.00542696804207214
-0.0347334979389322,-0.0241972309511911,0.00836247765101518,0.00474826970354025
-0.0219011901605662,0.00314662696580373,0.00893846615139968,0.00452836194048355
-0.0136503752691368,0.0480874387574669,0.00231591782044746,0.00333931059700287
-0.00671538212729627,0.0734294647851969,0.00213714489238313,5.4420652583194e-05
-0.00286928411314472,0.0644628101669851,0.0126647428555374,-0.00324271704250008
0.00232732495569432,0.0265191987014373,0.0221325146356525,-0.00335756507935355
0.0159941097542323,-0.00313523470424155,0.0164650678977061,-0.000533117089095325
0.0229916223176448,-0.00912584189760041,0.00166027245563406,0.00149107592197128
0.0102213009420286,-0.0163531869408802,-0.00268525817201876,0.000259477534134735
-0.00688255638633315,-0.0254475270360794,0.00850867494762033,-0.00295862557914061
-0.00765760241691288,-0.0177330023560297,0.0230934065796109,-0.00516792024652766
0.00606410619075093,0.0031302399337783,0.0322187078291809,-0.00452800677524067
0.00548847035880224,0.0151273677809309,0.0405360106397612,-0.00123950041509895
-0.0264278826310312,0.00930150827788654,0.0467537873095587,0.00340855646824832
-0.0669044369613285,0.00493691549670326,0.0378533649516253,0.00700351287476833
-0.0853852680264758,0.0171914814353316,0.013894523751111,0.0065079009952311
-0.0690589345717333,0.0434682886422385,-0.00990963048412023,0.00127084031556382
-0.0302112816764936,0.0808046122010533,-0.0214836037742352,-0.00554386058146058
0.000132778868159503,0.108188541967327,-0.0231132906258263,-0.00925176597234745
0.00751936597353733,0.104660570720402,-0.0247070987543124,-0.00766801182105246
-0.00532353587827206,0.0912105426225286,-0.0343341972311383,-0.00319490105337275
-0.0271396630797447,0.0720625566129436,-0.0506449092775283,-8.69825815312184e-06
-0.0338938412276859,0.0214952407698431,-0.0551010740786735,0.000203706422679925
-0.0210244069573176,-0.031295146085736,-0.0325873525388215,-0.000874273374302879
-0.0130804858981013,-0.0221615397339255,0.00256613488887157,7.56555657953535e-05
-0.0210570276541418,0.0314614399451147,0.024577679096988,0.00488427391503231
-0.0216701824580917,0.0409480034482816,0.0286493493303508,0.0107364914172092
-0.0011157916880619,-0.000739868296237102,0.0238593837437013,0.0121766710192348
0.0211507160736076,-0.0262711196309997,0.0148427848589934,0.00713867534280303
0.0304783825382791,-8.90136049494766e-05,0.00482046341180472,-0.00104540657109627
0.0217499895723377,0.0653054478363617,-0.000882161547012501,-0.0070746586297293
-0.00132451003891883,0.104071241301315,-0.00150123976959982,-0.00798964676164176
-0.0168700249784836,0.0623367436131671,0.000994821079690406,-0.00489606879711724
-0.0191422925015675,-0.00711619464353298,9.06793309510961e-06,-0.000942032347687013
-0.0201137751193526,-0.0104007840277448,-0.0179598813275684,0.00185798426944358
-0.0207397776054061,0.0338078472731949,-0.0436560099739231,0.00319897561541732
-0.0200665231556055,0.0433812310467126,-0.0522030934742759,0.00363622978261069
-0.0182430711415855,0.0245163042468547,-0.0418605185372143,0.00406298048151994
-0.0170502974798924,0.0323254625413961,-0.0268979952165131,0.00459956098892671
-0.0259673255872067,0.0770336847706406,-0.020650675456526,0.00396418821834784
-0.0427372277680472,0.119024734908784,-0.0225859437544695,0.00103285159842725
-0.0540758143441179,0.120986928614411,-0.0202601930132076,-0.00301011937803942
-0.0522798024858767,0.0922563760322193,-0.013314692908799,-0.00512445056529328
-0.040253466087115,0.0562035206178886,-0.0105567576452076,-0.00364213436080429
-0.02570586955164,0.00314491206339187,-0.0152274596688072,-7.67909994073869e-05
-0.00944833050598397,-0.0762284590105777,-0.0187861039209072,0.00273311111761566
0.0176426399540552,-0.134610479515594,-0.00932657099624865,0.00366284495577335
0.0549006376705545,-0.117994725368726,0.00507060538315565,0.00402335873788989
0.0728853371074216,-0.04186275765991,0.00569685951304268,0.00470405510158554
0.0602277251941645,0.0270371022293091,-0.00673939517855371,0.00450850355851945
0.0488328655128627,0.0466541073218717,-0.0147389843014778,0.00231274429753549
0.0499811058717107,0.0330509765217214,-0.0118523037787057,-0.000929979601472162
0.0417846472703264,0.0167727094003395,-0.00842810514155558,-0.00309558140565748
0.0184363335849197,0.0143770786656003,-0.00934890878853693,-0.00348399726462686
-0.00521439748845652,0.0287969158706741,-0.0113232113896737,-0.00355333285377053
-0.0162678661047144,0.0495851381074143,-0.0147956217706257,-0.00450681813955741
-0.0128341573165765,0.0507513766565289,-0.0152629934611766,-0.00544313097784389
-0.00431352573836587,0.00708173437291684,-0.00704194385533012,-0.00479492557383443
-0.000411601842594016,-0.0477127336138817,-0.000583878707016604,-0.00199350709285539
0.00160966355572302,-0.0633921270422792,-0.00443790172108565,0.00182110632303327
0.00659773957469275,-0.0494743921656781,-0.0106474356340241,0.00435656688803262
0.0128311741688562,-0.0433983478957234,-0.0104643512111703,0.00481077501819578
0.0160877531746265,-0.0689991513173401,-0.00435299842472612,0.00448045720347058
0.00805006105154368,-0.111736311342017,-0.00298796119190429,0.00418429219956253
-0.0120539775752197,-0.122571419619982,-0.0094230447867768,0.00304205175343508
-0.0220675253788013,-0.0864301663962567,-0.00368485409430602,0.000446898580009688
-0.00139609677769323,-0.0498541795056223,0.0189038134656829,-0.0022023684210655
0.0318801820623092,-0.0397349229201214,0.034373710247035,-0.00311199206833859
0.0373379433142566,-0.0419159789245992,0.0305761934025434,-0.00218818779826503
0.0104315944957087,-0.0593846024370701,0.0132941383092767,-0.000780067534809625
-0.0136105959157795,-0.0943693497352656,-0.00445251212966078,-0.000512950444068684
-0.0141030357974623,-0.112576429257838,-0.0164413790802385,-0.00200422064587556
-0.00161901890680347,-0.104603226298957,-0.0226350198470079,-0.00412379573892993
0.0140893583862219,-0.104539724339684,-0.0190704100058102,-0.00499215284514493
0.0307320575365404,-0.0944247171928802,-0.0107828548875242,-0.00382165896571675
0.0233184925611176,-0.0176247752459685,-0.00585950461583138,-0.00176131928063935
-0.0240473848032455,0.0929787615389827,-1.04081708237648e-05,-0.000620300413167615
-0.078683660711404,0.148148821623076,0.00767325351271503,-0.000281745008643862
-0.104514915964021,0.145068324941492,0.00911343146370724,0.000569552114588104
-0.0995101002710486,0.137554269069024,0.00650112791596524,0.00193643203830355
-0.0812739819216907,0.123346611777792,0.00770892169714787,0.00304225500116831
-0.0635191309980241,0.0755003045530146,0.0108899783365959,0.00334956919143964
-0.0432029252342611,0.00166054761027956,0.0132201288519782,0.00287636326485987
-0.00910886996303248,-0.0709796401204313,0.0159227223261412,0.00227751493100154
0.0343404325222953,-0.106619166660891,0.0149976157939671,0.00218334751145266
0.0674263065695346,-0.0998415409213684,0.00633394345156212,0.00202400765028992
0.08213573022899,-0.0777352087523838,-0.00640970469533993,-4.50929688122943e-06
0.0788024503550308,-0.0449703827233133,-0.0129402890745735,-0.00399225932081427
0.0536716037295204,-0.00878468298169188,-0.00617722145261596,-0.00667735789305446
0.0187632344069994,0.0122924514673554,0.00505665242752223,-0.00493742633344663
0.000819354751488061,0.0271328815921303,0.00626737054215656,0.000131778822685068
0.00713598231980198,0.0445301154867845,-4.2038997004128e-05,0.00442809928615289
0.0135906363397517,0.056464902633713,-0.00775627853535517,0.00525530297326793
-0.00104570536986383,0.0629415503450774,-0.0201048066995565,0.00273007681755441
-0.0282666654605043,0.0607404368610925,-0.0266432689994459,-0.00119647146169224
-0.049201578328384,0.0430268572223414,-0.0179221351924229,-0.00358118899226772
-0.0438560814034283,0.0322917864714105,-0.0104795467560081,-0.0028702437803084
-0.00260610751392471,0.0377427846563224,-0.0111060775286898,-0.000955573503153398
0.0453842129264554,0.0360432826893733,-0.00395171413457571,-0.000331487239866311
0.0596570975954478,0.0392090004248105,0.0113071306476511,9.40956309149281e-05
0.0347715592102838,0.0800774866740628,0.0153760352757415,0.0022139927684421
-0.0020062662562188,0.134046321415545,0.0094249812954946,0.00427987412783247
-0.0322206551917339,0.152455171718109,0.00767120369847421,0.00409722047430127
-0.0528399190444491,0.13293837288773,0.00681630044603956,0.00238178887112459
-0.0527000851637956,0.0906641056857908,0.00167585337449898,0.000681539485592787
-0.0449920098761029,0.0272862361601781,-0.000865013325479779,0.000751411167623661
-0.0343879815966468,-0.03528486825191,0.00141477113783096,0.00511721004170544
0.0101525866395867,-0.0485133436249598,-0.00222016317951525,0.0106393349894751
0.0702081438888228,-0.00842643674799928,-0.0108582339834728,0.00812872157954152
0.107167316320143,0.0350944361117477,-0.0128110766519801,-0.00383744672283801
0.117623911567119,0.0450988322614373,-0.00692516405512658,-0.0165434836205706
0.0976938490193411,0.0302082423607248,0.00127892503378688,-0.0221733925385192
0.0540908285946115,0.0263026161924929,0.00752542150249478,-0.0184895151415678
0.0122981482692612,0.0320129317265577,0.0101992426340853,-0.00842761068339764
-0.0178096060521417,0.015879950224437,0.0116916687830565,0.00153357350751829
-0.0408173887395011,-0.00466413573582153,0.0102362489265908,0.00511234119669507
-0.071123064673703,0.00774903200234241,-0.00226082725747323,0.0005022934368822
-0.118169791217736,0.0288890967134365,-0.0189613509148539,-0.00591558520168825
-0.147067715503837,0.0209326350701998,-0.0210073732173628,-0.00210175667545267
-0.115926770337396,0.00664044591839622,-0.012190007010731,0.0145596721954411
-0.0498042543473872,0.0103439287286702,-0.00723829241543199,0.0280486011362304
-0.00367266803456989,0.0298020687029792,-0.00690115724072929,0.0227019947145384
0.0231534276290756,0.0556524779673079,-0.00644792925058879,0.00395605844411088
0.0573380082018948,0.0615945355577827,-0.00316767793830276,-0.0093862127865442
0.0817103776319204,0.0341603776517662,0.00362808658136239,-0.00541972458013002
0.0748686042090417,-0.0149225319958545,0.0140748865354107,0.0100861549178471
0.0475999761612282,-0.0631981863801043,0.01783229605705,0.0180188608611244
0.018060275507027,-0.0924241423960995,0.0102297838106022,0.00456977660199152
0.00481480188920069,-0.095014506272629,0.00664942496374073,-0.0224119167665478
0.00660363520632358,-0.0715514513532804,0.0108809422970202,-0.0415081899638632
0.00250918579852062,-0.0373065039585031,0.0159577207407656,-0.04020954540838
-0.0058764653964288,-0.00088640197480843,0.0194185532782021,-0.0232586560173179
0.00359753959809096,0.0330684542133139,0.0141523544818663,-0.00300168963078454
0.0282171791697353,0.0228918342938469,0.00563060727415148,0.0115720373096955
0.0425176598614384,-0.0520450991487114,0.00985612392445679,0.017744692997309
0.0380813847961485,-0.110100857111172,0.0218043867489321,0.0168674202772835
0.0277877354508674,-0.0809464391482233,0.0256365219948179,0.0124163454658612
0.0113858977313252,-0.0216831115505207,0.02155600307457,0.00808988094167763
-0.0180149039487941,0.00674311715318764,0.0183102363182096,0.00526019902042366
-0.0415096765586389,0.0178311858229545,0.0171253793725272,0.00336638254881578
-0.0426489298697731,0.0223535532046296,0.0160648328876226,0.00213929965449195
-0.0258607668251728,0.0127367295105639,0.0175744347302161,0.00229195569637891
0.00346822052255591,-0.0120036797130128,0.0217323287318286,0.00445893789872872
0.0316385819888224,-0.0387508265427103,0.0224097841872419,0.00769293320356093
0.0443628083542109,-0.0458658715024672,0.0149166921378303,0.00791915519323996
0.0524567168545136,-0.0347233843564235,0.00222659941329875,0.000604016891283697
0.0667418295638777,-0.0207320169712209,-0.0066262872820496,-0.0120583077523041
0.0782992565716253,-0.0061913526175871,-0.00573181758963248,-0.0224014501695307
0.0772183707643271,0.00291911374947449,0.00170893729887064,-0.0255020143976486
0.058034603919848,-0.00447961005803007,0.00951538952723052,-0.020921715727998
0.0262316224025241,-0.0249085297227977,0.0187750119481765,-0.00971231665338594
0.00596464081738077,-0.0412074549534747,0.0255364016215396,0.00853119013177936
0.00878251368711652,-0.0501375596679327,0.0200624439837094,0.0331062912174156
0.0184160734604195,-0.0611851071645488,0.0108432209916722,0.0512964308480835
0.018638765546381,-0.0632939056399914,0.00928059815736656,0.0456228297430593
0.012105273622693,-0.0418436005710926,0.00653298640628553,0.0185875331590082
0.00873860152449235,-0.0144891959335784,0.00176866144812051,-0.00987036715405477
0.00775340773630695,-0.00399993387236472,0.005963815336992,-0.0256034484306072
0.00473464479779669,-0.00860700088688926,0.0146045451678427,-0.0280046603370362
0.000615754484863958,-0.0190841636630146,0.0153720830355167,-0.02336829940667
-0.000360782526276811,-0.0264486386714082,0.00700181523532113,-0.0180322459878383
0.00212352861664449,-0.0230920534819655,-6.94815196474793e-05,-0.0153940807667714
0.00547979294640125,-0.0279388347468526,0.00418715258741585,-0.0150585558759683
0.0130645887212201,-0.0540448017263335,0.0162318607916669,-0.0127411918773603
0.0268276773175332,-0.0662737782235195,0.0216523890731745,-0.00458885707283926
0.0393140596917713,-0.0511839029319672,0.0156585460623552,0.0067844777213977
0.0499373227857658,-0.0432480213188524,0.00338266589558724,0.015161079938509
0.052879172938212,-0.0509820855981566,-0.00926079003358158,0.0177907397154164
0.0227965715800237,-0.0467485405859285,-0.015160463956947,0.0163969837340918
-0.034101998351366,-0.023423234761932,-0.0153497240150935,0.0137543652100494
-0.07497764978495,-0.00110294762789961,-0.0134824913942469,0.0106831502063865
-0.0785234094753971,0.000573549122827824,-0.00749840270657355,0.00665492441300464
-0.0567255855973115,-0.0112920899956047,-0.000367996721681647,0.00221495550303659
-0.0320602147733143,-0.000385033245034572,0.00571340715898012,-0.00116798384664021
-0.0222806184412653,0.0326828106256928,0.0107261039471699,-0.00253788476295832
-0.0241784864487531,0.0314591502992557,0.0115980777903038,-0.00276530012550188
-0.0196968975555826,-0.0238910422070741,0.00875780414072474,-0.00418447040813494
-0.0077438228913882,-0.0746874545587636,0.00523143081390512,-0.00740058312466152
-0.000697584720485191,-0.0782092386551464,0.00475003806330855,-0.0103562532080045
0.00148132656169735,-0.0597653212137176,0.00503792169351122,-0.0108401920215034
0.00243644989148357,-0.0450873018309109,-0.00192467157083712,-0.00869150044906199
-0.00525575507011492,-0.028549446600765,-0.00740244093941276,-0.00534664594882273
-0.0238270534001803,0.000223444033104231,0.000367994050343342,-0.00171617743163946
-0.0522299203872955,0.0309701666026612,0.00910133927000602,0.00179917698676143
-0.0887828851891034,0.0355700788536773,0.00744974608305412,0.00359852271402414
-0.093670036873236,0.00836000653171311,0.00320051748267189,0.00205289153048716
-0.0409170575488285,-0.0191556876374173,0.00509823843564217,-0.00175482787122772
0.0124059233236639,-0.0263021124511449,0.0124706693127915,-0.00465493456536409
0.0217880580796116,-0.0236868342193298,0.0166608554882812,-0.00434741543895113
0.0131185606949403,-0.0217274928250706,0.0105940101649711,-0.00160871480688441
0.010707625282173,-0.0170713169234156,-0.000719210944888492,0.00108135241293579
0.00783422559972603,-0.000183195568615383,-0.0193585498410374,0.00285796281831601
-0.00378648860643915,0.019256532492581,-0.0473233355832736,0.00381540111937367
-0.0148041243766452,0.0290969807762639,-0.0614920486554656,0.00375366852480563
-0.0171510411676902,0.0384308005988484,-0.051632489425377,0.00327502390506578
-0.0153699815072522,0.046817806816191,-0.0363263812772742,0.00260531462791474
-0.0107006583661241,0.0451284182922287,-0.0255183420913741,0.000817331444181036
-0.003971014654478,0.0359113557651069,-0.0160852905242275,-0.00175153528762995
0.00722685224326555,0.0225401213919988,-0.0050796718632314,-0.00348596882146194
0.0222684619366227,-0.010683979291804,0.00872271311269759,-0.00364746577347809
0.0177605057590036,-0.0742799344366686,0.0204524854182944,-0.00218554776644672
-0.0121948623922682,-0.117410977426774,0.0215796175538816,0.000385450431341685
-0.0370100209237792,-0.10077480970653,0.0154170639518049,0.00201268800757358
-0.0334696340354214,-0.0728582072055251,0.010217731660772,0.00108522921391872
-0.0119938788442284,-0.0717069937574077,0.0061744318092118,-0.000913595858155906
-0.000272669268682878,-0.0781123856968144,0.00389468528884954,-0.001285654857294
-0.0136460649593664,-0.0755065631030573,0.00444729321187614,0.000419893683005787
-0.0489756624705501,-0.0528757553572299,0.00666651644167114,0.00276733962418614
-0.0765201824181531,0.0108006136190181,0.00783461672949198,0.00503311924266305
-0.060249332786543,0.0909232468849645,0.00758969523865964,0.00750465700085022
-0.00829863978469968,0.11964475042278,0.00961169973170201,0.0101030242609425
0.0332202543141591,0.0890456761843781,0.00261292242770069,0.0112251160905962
0.0398806436865323,0.0454085384633007,-0.0228679053665091,0.00844954347321818
0.0375723339781112,0.022025172987808,-0.0415535772141831,0.00199289711645745
0.0442961433820106,0.0437598746347023,-0.0396414506876855,-0.00458562409964479
0.0357023677657571,0.0880664768832176,-0.0364099337668104,-0.00863679617380472
0.00465840077337182,0.0971017566645164,-0.0369187603182849,-0.010278293467126
-0.017219775246929,0.0670902040505848,-0.0297202718274843,-0.0099060061774389
-0.00941813451243565,0.014357752512692,-0.0166773998548364,-0.00722125373217907
0.0123145141835154,-0.0533467172516343,-0.0107176229644828,-0.00250390165036425
0.0201325498928737,-0.0963415750126858,-0.0127693416395839,0.00284325405593664
0.00383266625290983,-0.0892973017510604,-0.0156394376242334,0.00693525386866754
-0.0236151254037001,-0.055975446192843,-0.0178723693047394,0.0086671353139695
-0.0422597570028365,-0.0253310869293164,-0.0169143213432925,0.00824506152329934
-0.0425927631471888,-0.00758336292902686,-0.0107578894686541,0.0068426949117903
-0.0338459454019132,0.00973529861974285,-0.00541221995766466,0.00558138218068345
-0.0250226264936919,0.0352951730692102,-0.00592961749488637,0.00383182641355654
-0.0090634938683237,0.0494398061571756,-0.0106663235306077,0.000303766596111639
0.0135212585151741,0.0535288812750959,-0.0155144550497419,-0.00417666527856513
0.0322257387848955,0.0710092464701615,-0.0151732207036508,-0.0070772711955314
0.0437174203629327,0.104994763728038,-0.00880406130664162,-0.0065443164751554
0.0425990009774516,0.140693019200218,0.00283042261412912,-0.00275465606948729
0.0189916429309354,0.144731525650666,0.0150612496915904,0.00246177239645465
-0.0166710143016171,0.122362669678222,0.0125664595151622,0.0066512716850461
-0.0365186553873705,0.121066122416939,-0.00390165446793561,0.00831820139364749
-0.0337201332572073,0.128584338583648,-0.016394341835422,0.00778694271815859
-0.0257240253711874,0.0981258916009553,-0.0172774716687509,0.00590372069233503
-0.0212835379837359,0.0463913012211314,-0.00967194103126062,0.00286439105686692
-0.0187213874223823,0.0186497649168312,0.00185327481147579,-0.00118723788226039
-0.0286716555495195,0.00864831106054424,0.0114282219635528,-0.0045776177859273
-0.0436452126373021,-0.00235534031736191,0.0143561412359513,-0.00526607973532747
-0.0297423869117117,-0.0107815611975408,0.0131719568957127,-0.00404606282225289
0.00964313453746769,-0.0351943346497085,0.0097302203525379,-0.00334050300517027
0.0476160798544702,-0.0637072629440313,0.000370467133360926,-0.00269609435880951
0.0687609156077961,-0.0348226565641463,-0.0158872611441437,4.43508265420673e-05
0.0572923210237541,0.0423274278283515,-0.0285970074222777,0.00347136123387255
0.0211926054427276,0.0867832454302318,-0.0278255141056518,0.00422493673772911
-0.00395779966650629,0.0594452422493774,-0.019833199217258,0.00203070803924936
-0.00199439435686602,0.0201330960265905,-0.0141160731987213,-0.00172785777616356
0.00386465070806175,0.0331841835278547,-0.0126687485503393,-0.00682316638816563
-0.00783733138291461,0.0600101009590591,-0.00952991610297824,-0.0121220526408567
-0.0296206241252549,0.0578530889847873,-0.000820055049319298,-0.0144051904625697
-0.039422040830534,0.0475604284089644,0.00555669552724123,-0.0110860582481401
-0.0262058919454687,0.0422948602055179,0.0095219987028131,-0.00287028947463958
-0.00650064672045183,0.0388124178556597,0.0136004484008275,0.00631093655351389
-0.00104614858643178,0.0380450036631676,0.00838830630245685,0.0121329505838561
-0.00736717176145486,0.0339857677689858,-0.00356813414408933,0.0123333446710088
-0.00495805377375387,0.0212839779431388,-0.00710463029654166,0.00777820676403569
0.0180922492422883,0.0142964294797955,-0.00113469766419664,0.00192871001152298
0.0479737541920871,0.0182617917478078,0.00109844848520219,-0.00214573043003754
0.060398694123959,0.0211995551920801,-0.00520739476830787,-0.00376382666745364
0.0476144999628734,0.0123936413816411,-0.0141592749671702,-0.00429329739203977
0.0143410696705955,-0.0163255658506927,-0.0181420266882418,-0.00546916000640713
-0.0356699832950042,-0.036902891960572,-0.0113687861127676,-0.0068577708865787
-0.0767916467324906,-0.0271153588816678,0.00215063129226381,-0.00652607564515642
-0.0739286049700634,-0.012537498653248,0.0113927440207019,-0.00409186614122322
-0.0429221889501574,-0.00295563778852476,0.00962282903142054,-0.000820398937353965
-0.0216635431494779,0.00103918650295219,0.00464373252564234,0.00154572517328488
-0.0209689368884035,-0.0154726070019586,0.0061834657379697,0.0024896286408888
-0.0262852353775515,-0.0391018307614023,0.0111294931100674,0.00334803603337208
-0.00446761926550531,-0.0518230559644414,0.00986462487955664,0.00418112067816183
0.0350832988509496,-0.0723119018462039,-0.0008217279531145,0.00310060861654135
0.066060092516125,-0.0951309339269507,-0.00755420010283839,-0.00021957128251333
0.100215187828043,-0.08866729054868,-0.00148759919144119,-0.00326135527907357
0.115342521964251,-0.0627237345335053,0.00705970132526229,-0.00373740977386579
0.0822853138792764,-0.0404258593008631,0.00823330772753308,-0.0025264459834467
0.0379037715163187,-0.0320425510696089,0.0083438071754487,-0.00212458443499146
0.0185358909115618,-0.0360415434100321,0.0141152019987371,-0.00282728285521831
0.011909025198819,-0.0322953253106677,0.0137487822529533,-0.00293885334972413
0.00481077937888644,-0.0160404818116276,0.00314096821484354,-0.00249997207155726
0.00802900316300053,-0.00979501672673963,-0.000766757269868457,-0.00261700363855254
0.0245389172847839,-0.0244125574673573,0.00957379102165977,-0.00265152787906945
0.0402634955922758,-0.0305757450387448,0.0174215674115629,-0.00139448179381358
0.0375374631128455,-0.0014852781375926,0.00878457483257833,0.00083005659087645
0.00974647767678446,0.0269016118907289,-0.00166878688627237,0.00363914701881862
-0.0180087393131745,0.0174352044947821,-0.00277687882105225,0.00793321172341258
-0.0232885134642028,-0.000107295427545835,-0.000609702311201745,0.0116245559532704
-0.0192081028459777,0.00597303303970426,0.00491728453132622,0.0107275113086149
-0.0182751848724455,0.0179896711162925,0.00911666144183098,0.00643637512555228
-0.0119642866625749,0.0148365630008576,0.00268253143160561,0.00186055656344465
0.00349855562947902,-0.00727361045194098,-0.0126387939778247,-0.00323821884742235
0.0176182488505783,-0.0438476239004362,-0.0257876159589174,-0.00829037924808562
0.0234097831323638,-0.071094989164954,-0.0281445919360517,-0.00948672928116084
0.0163886108513776,-0.0729684066231937,-0.0237288296871628,-0.00462306605048956
-0.00349748600561833,-0.0559601966017044,-0.0176260769998936,0.00337213988447158
-0.0237913843121539,-0.0337660907273371,-0.00535219260679296,0.0091105753549113
-0.0351638600331586,-0.0224350843039877,0.0108440713649126,0.00860711159758319
-0.0364510345370581,-0.0259285473392633,0.0175547707898771,0.000870605870409718
-0.0328508001670919,-0.0292347659807856,0.0132165666411691,-0.0122956156441632
-0.0315883269660935,-0.00584235267397741,0.00504352884526424,-0.0261095259300638
-0.0224428737466759,0.0440478535516283,-0.000760337267401835,-0.0326414252515542
0.000532859796043436,0.0890571153002843,0.000999835388801714,-0.0258862662975937
0.0320284967501494,0.0947470151753239,0.00789942146375908,-0.00720433625825152
0.0661017433046917,0.0383957299072334,0.0148861649391121,0.0186840659718003
0.0754246426810142,-0.0346490605445926,0.0120453616593512,0.0447999829667638
0.042935141813286,-0.0609411446130515,-0.00317412809714901,0.0588917229451015
-0.0178846035394992,-0.048324413223924,-0.0152609512495339,0.0550544940301028
-0.0724392408251439,-0.0336937682341805,-0.0173551013278198,0.0385695427847558
-0.0810323007324358,-0.0391377884069615,-0.0203237658815512,0.0141186569752578
-0.0507510041486888,-0.0655079004614716,-0.0280353413977327,-0.0145342332778027
-0.0132046422494089,-0.107470633353748,-0.0260471607861481,-0.0388848069227488
0.024421247748964,-0.141353739312428,-0.0106786997285056,-0.0490580873176199
0.0524338122684943,-0.11708401725604,-1.33101540751475e-05,-0.0415432373416318
0.0551577410273291,-0.0368070118445278,0.00232847059288135,-0.0237304351101613
0.0330576953217439,0.0151700639891572,0.0051159203182247,-0.00690434711873194
-0.00359730683416808,0.00287355925590015,0.0056941261627308,0.00419052018632541
-0.0340961176123823,0.00129244556259282,0.00262777563924977,0.0103880478479246
-0.0426538536038418,0.0447022039860827,-0.00192651535112458,0.0114799333633261
-0.0438385860933466,0.0883369559911513,-0.0074619727124613,0.00635272320902408
-0.0532795743152259,0.106873455814258,-0.0123510513420475,-0.00311762902522361
-0.0610515443311142,0.102602555076105,-0.0169313288620887,-0.0129061443250921
-0.055549877842161,0.0798598060944645,-0.0224642177096617,-0.0175307347206955
-0.0414969207770298,0.0432218529965718,-0.0278609869662986,-0.0113109871471509
-0.0352289226780696,0.00441504156158937,-0.0305235378111717,0.00395752569281405
-0.0359149362522521,-0.0194399363974975,-0.0265554925775979,0.0188045700189484
-0.0120895350781997,-0.0296055185789457,-0.0117941458309304,0.0261637643032066
0.0263539877166571,-0.0342165389691666,0.00545163816574793,0.0256669254860668
0.0236455197985179,-0.0198930469038635,0.00721479841998481,0.0202766274310545
-0.0105790161101252,0.00368803087835895,-0.006143002647375,0.0125252988098692
-0.0282362455953103,0.00397539851021191,-0.0208339868643576,0.00347013667678638
-0.0232953306122708,-0.0199673295048747,-0.0287389594117241,-0.00612276238049164
-0.0102753484182508,-0.0389748896737705,-0.0235563629935621,-0.0141578988870668
-0.00496458023848907,-0.0238456703035007,-0.00777008918283881,-0.0175166382807951
-0.00640488926375747,0.0138131322576878,0.00924085107706919,-0.0146273133076469
-0.00696610531824322,0.0349195713483747,0.0196209213730604,-0.0074785110133614
-0.0155399761575628,0.0330181817026679,0.0209198933182893,-0.000760984520715104
-0.0178213535251242,0.0220362450529371,0.0191937427255656,0.00202370801635582
0.0115698676241727,-0.00462288552234488,0.0172704366122571,0.000872286500807512
0.0565574680038946,-0.0196359278767101,0.0115413416166926,-0.00238619675884185
0.0884515332413388,0.0303189439557376,-0.000378104788373284,-0.00614769953458841
0.112059373922783,0.0946755691438416,-0.00897500260551541,-0.0111166805960966
0.125962920257022,0.0812252511899039,-0.00628933301395327,-0.0181540573063761
0.0976017209721138,0.0107676253299813,-0.000480952811385965,-0.0229731218776628
0.0316286462021261,-0.0377847097020094,0.0046531580666227,-0.020415838253021
-0.0262605658829091,-0.0350503920235031,0.0120151607460986,-0.0110748753789896
-0.0480269595627058,-0.0016042248230765,0.0192630311809535,0.00149395687355159
-0.0426453514146438,0.0236759775832415,0.0253095778013536,0.0160894719685502
-0.033396338548735,0.0204752128227923,0.0285331206017986,0.0351499198410144
-0.031896300008173,0.00666447176141582,0.0254050569972476,0.0548927600340497
-0.0360771469984235,-0.00288357168442534,0.019429914900171,0.056889163563505
-0.0270533286544513,-0.0178681123459346,0.0172612278451061,0.02946273323834
0.00503044205957431,-0.0346617490995969,0.0143032470577214,-0.0111012119847039
0.0443757583638864,-0.0358110958709733,0.00712090549251738,-0.0391843251880105
0.0738704512741362,-0.0260947853455198,0.0106309259624555,-0.0457052580619394
0.0818364114913684,-0.020917689027419,0.0280787387414307,-0.0375043581430226
0.0745808902171268,-0.0174817769670688,0.0420517768212023,-0.0240096718894744
0.0623337004683314,-0.0112761002835577,0.0462619387010125,-0.0108025499981687
0.0375342090394725,-0.00813795406249464,0.0455958391657212,0.000337441996334231
0.00463562679293683,-0.0023547998209072,0.0427433537016766,0.0098780163051017
-0.0099522857053633,0.0102395353369568,0.0430498372520859,0.0179333222865975
0.00147435962166701,0.00536365276768252,0.0477551578325235,0.0232477017795774
0.0111123058989655,-0.0200338589524353,0.0414398039815041,0.0234706078065055
0.00427469759662405,-0.019360143262169,0.00989576656524212,0.0166601127632814
-0.000380685046713222,0.0221202270425617,-0.0308468672601098,0.00471520933004051
0.00660737295592835,0.0539689544672101,-0.0470166570333263,-0.00628219830533776
0.00735124384594834,0.0381389576888592,-0.0341303303547532,-0.0106646894010209
-0.00157906439931561,0.00310139600684213,-0.0217373877956823,-0.00812663608779197
0.00142402468468667,-0.0170774315217853,-0.0229127868285576,-0.00346827805684777
0.0183434503330254,-0.0318607547711159,-0.0210948562883036,-0.000931765684197517
0.0361779751597564,-0.0466154827447679,-0.0107251235657512,-0.000313344374713777
0.0545307445868802,-0.0487008445830076,-0.00331792791590391,0.000577043574815653
0.0652740443369481,-0.0364749757597725,0.0027494174385001,0.00219520533771337
0.0528091341781672,-0.0333075117088935,0.0169173262156556,0.00367906924012786
0.0199777981366633,-0.0558054130886055,0.029958482711759,0.0048790417809259
-0.0124196314136927,-0.0803125507172651,0.0242634687469886,0.00597254383565879
-0.0213599293392235,-0.0890409543034264,0.0076766259484838,0.0058688731726812
-0.00475343510231224,-0.0947505613445605,0.00391222383596297,0.00361192693077104
0.0121861711013404,-0.0936493755049385,0.0157806120351626,0.000832671718394512
0.0115171029930992,-0.0675527505443984,0.0276794946401825,-0.000693772874916251
0.0069559912286177,-0.0304966542787091,0.0278979031010573,-0.00171514630491422
0.0119012177596302,-0.0012124391192806,0.0190631297029072,-0.0035909116680089
0.0158804808538794,0.021788411425095,0.00908400234080525,-0.00650571335849719
0.00784510590189214,0.054229028465591,-0.00183015026267463,-0.00860861078805301
-0.00779575028658788,0.115624791129559,-0.0141863234610501,-0.00746127348751098
-0.0207662021770154,0.157055614374181,-0.0292429372611729,-0.00400490852703824
-0.0276806726676436,0.12484960234122,-0.0476638164485177,-0.0018845603925232
-0.0353669597020259,0.0757131420820079,-0.0575515591843879,-0.00263836461107011
-0.0550125627797051,0.0723286214658268,-0.0496206683696485,-0.00393162338799727
-0.0801735536700388,0.0845436934104835,-0.0319419394969974,-0.00259135850110434
-0.0841940528877843,0.0628092375328655,-0.0179724436141575,0.00177168639624239
-0.0627193331311916,0.0175865676454797,-0.0130900691581572,0.00657143635857173
-0.0359956718834475,-0.0158308541926155,-0.0159965684802046,0.00857503905899775
-0.0135644055679745,-0.0263928878214478,-0.0207638876097349,0.00658728747838568
0.00235424277168478,-0.013320170393831,-0.0217983584753603,0.00227038998122419
0.00432954121052551,0.0185175449675485,-0.0216782434850331,-0.00201305627491708
-0.00127619809771405,0.0427467375951828,-0.0179327552147456,-0.00516704596314798
-0.00148917918151593,0.0287402531657887,-0.00538690583947892,-0.00678862929738846
-0.00581010861730194,-0.00369000986802549,0.0039047510539631,-0.00624420976132209
-0.0178079591784754,-0.00727206196419319,-0.00267937565261991,-0.00350406768561678
-0.0200767714187832,-0.00380279592178844,-0.0116815195481446,6.1207245110606e-06
0.00245972378358588,-0.0286268900324792,-0.00544710639855754,0.00261126456656187
0.0383017492289142,-0.0475571274304049,0.00808608219306571,0.00358138301534544
0.0534606399477026,-0.0335215749653315,0.0125754441508269,0.0030563662219295
0.0425907763438623,0.00130754559188598,0.00173987861293881,0.00178213382181554
0.0219949831592259,0.0461300818252405,-0.0126402804292593,8.8555423129715e-05
-0.00651674203566904,0.0886587421919767,-0.0117611726458739,-0.00251814059343558
-0.0450443247962216,0.113851296329768,-0.00322621846020867,-0.00583458816580021
-0.0803023128133097,0.116983791932711,-0.000276111025896858,-0.00850529171998569
-0.086305130271011,0.0990592363932754,0.00438915463356397,-0.00894564777630539
-0.0632129164741734,0.0791986316801464,0.0137965030106075,-0.00580542455442908
-0.0446446585849148,0.0785200431812224,0.017259210201258,6.9858249871697e-05
-0.0410531021663657,0.0727833457065634,0.00985871770727078,0.00477522973093709
-0.0243738327156263,0.0315091075086694,0.00396513247373376,0.0056517777462874
0.0113260760842339,-0.0315162906692136,0.00749114866540971,0.0046566938585239
0.0315398213711432,-0.0966425376545281,0.00607855000084549,0.00472713025864411
0.0224637258954526,-0.148812339601318,-0.00192504118910906,0.0050600712497372
0.0242953613173732,-0.146356606431791,0.00430578955835499,0.00377866532575702
0.0532025664276973,-0.0613901738907758,0.0188828823819014,0.00176119766890243
0.0547026482390674,0.0508932640322635,0.01980499657342,-0.000136615789125989
0.0125966158930262,0.0908531898146613,0.0175792720920324,-0.00228181793395998
-0.0278846767894766,0.0573028437575268,0.0218820383230505,-0.00345173765587604
-0.0499244150324038,0.0291925488700576,0.0163308745819969,-0.00195721720784978
-0.0672684875707018,0.0267211180730659,-0.00764589697775594,0.00104685544500152
-0.0747446819670005,0.0284848187344221,-0.0394861568811319,0.00300665027211016
-0.0530571557600641,0.0214726650539938,-0.0580267825196878,0.00322276363282605
-0.0262510952616222,0.00851056424631584,-0.0546511850711686,0.00262401733442539
-0.0331811440466853,0.0125855711642729,-0.0398776587240328,0.0024021078655676
-0.0502810099505128,0.0311441816746479,-0.0203128623136183,0.00272011021180041
-0.0442894352325591,0.023075208921861,0.00151459658456696,0.00274108709221377
-0.0217445449571091,-0.0235734041825632,0.018276925954495,0.00231999619323065
0.0131794002872859,-0.061602466581805,0.0279548114350045,0.00166753721613347
0.0486837480446471,-0.0605014925427304,0.0304302609570483,0.000618330368317605
0.0620401542385087,-0.050127573233067,0.0205528017427788,-0.000942237488129944
0.0567720825164718,-0.0634094789279574,0.00659195928334951,-0.00280858061675212
0.0456123057990999,-0.0926275612366084,0.00205759681883667,-0.00416245807993927
0.0269335480047226,-0.119593648297608,0.00365657197997095,-0.00437943317171625
0.00211681244423504,-0.132795343675445,0.00181935309452694,-0.00362950227324129
-0.0121920460244127,-0.0984319191564372,-0.00641229810514896,-0.00237564747461662
-0.00585913561719256,-0.0112745789431661,-0.0123450934436229,-0.00145856455742645
0.00502024611095424,0.0669582950295647,-0.00797220530876632,-0.00127434973182105
0.0037678777765907,0.105829956671048,-0.000363635737794072,-0.000594444850691235
0.00527512930090821,0.11710248890938,0.00525834281493493,0.0013122458363649
0.0230150389004265,0.0782291817286123,0.0110011655651714,0.00315286900698553
0.0337665661532072,0.00221740017917664,0.0141749553579982,0.00398774675782477
0.0213544096872105,-0.0402696084973787,0.0127500993781714,0.00418726655261415
0.00953706180962837,-0.0468271725415049,0.00342465205129409,0.00396115327628416
0.020193328243188,-0.0633956973888423,-0.0160288020431325,0.00279792153711422
0.0316862041576772,-0.0720960450791867,-0.0346021943372265,0.00028830442632988
0.0174680712854829,-0.0534816111790847,-0.0359726034888733,-0.00305679489869555
-0.0230899650258352,-0.0471858556241771,-0.0144684280179224,-0.00534653515978061
-0.0763807045170498,-0.0532733934891011,0.00877083829470357,-0.00467006533317267
-0.089767812966315,-0.0363588240250338,0.0115022277401653,-0.00191025587510012
-0.0343165885197559,-0.0141309938660016,0.00492027158126941,0.000247610112088477
0.023362598781,-0.0123923482889844,0.00281096869878285,0.000564810205749615
0.0270321763014149,-0.00965584215984423,0.00264446934647228,-0.000257334934387982
-0.00389857109712984,0.018957941346384,0.00309784060228774,-0.00122724212612753
-0.0307710742487403,0.0546452577786066,0.00530622644336515,-0.0017334570175842
-0.0363075337369973,0.0692838941044061,0.00458986600886269,-0.00125676699291049
-0.0279571931524435,0.0678731777903711,-0.00226646580525119,-0.000232096008619
-0.0122734023431588,0.0584515271792667,-0.00746382417858479,7.32783637573817e-05
0.0144564272308844,0.0200857674911298,-0.00125864552365067,-0.00075546321756869
0.0481614737474145,-0.0543131658504215,0.0132410562185373,-0.00159563832618776
0.0585719739555041,-0.0988922990745027,0.0187137276721342,-0.00129336514733398
0.0206625253125851,-0.0688352963624875,0.0108737835929636,-0.000287859202812695
-0.0261385293894842,-0.0168591220684753,0.00486507009460457,0.000442552392942156
-0.0301238706500003,0.00642477278359379,0.00798317788594532,0.000734181494782478
-0.01230253807035,-0.0107500358100564,0.0173562815126859,0.0011327157840692
-0.0128563660815727,-0.0532620411343866,0.0278985181439114,0.00239431398742262
-0.0328198268007631,-0.067051230299777,0.0328277583185775,0.0047074710876758
-0.061522384885407,-0.0191648782645256,0.0327227757751644,0.00695215369845188
-0.0763112253082299,0.0496983315203515,0.0333705184142882,0.00762085785447185
-0.0503354506894191,0.0783665923079492,0.0327217298018078,0.00617517899452965
0.00260269385482879,0.0481861317134859,0.0271729922312599,0.00251559189986567
0.0417669492222221,-0.00949785435351218,0.0237426426690681,-0.00250005627359992
0.0543496796296012,-0.0380620158466002,0.0232594677478744,-0.0063406273547753
0.0542739827104432,-0.0249887569445729,0.0168766985185767,-0.00715522990518124
0.0418485102846117,-0.00201479302228183,0.00608205819922211,-0.00569734877095698
0.00929454570391181,0.0120909099739139,0.00175238335323373,-0.00371073445780428
-0.0278021810609341,0.0139476548760596,0.00770252180303485,-0.00176653522712478
-0.0415578562020443,0.0114502504926714,0.00762725221681278,0.000182676822642967
-0.0256076254995928,0.016834297474514,-0.0121792006399932,0.0017049820787974
-0.00077851760098839,0.0279158455759935,-0.038260678636836,0.00203146874504767
0.00339366419017617,0.0265926720155426,-0.052123888361366,-4.5527982657228e-05
-0.0177405602042171,0.00492118832265459,-0.0459731772767938,-0.00439194142964238
-0.0386633494517205,-0.013123766096402,-0.0256118439925642,-0.00776624118777613
-0.0393520329567877,-0.00166864460973769,-0.0136934821231801,-0.00799657107573726
-0.0180754517086816,0.0169492207440034,-0.0170410379640576,-0.00660676992712639
0.0132338067607671,0.0105241713612558,-0.0145266744206859,-0.00330697172429556
0.038092651237258,-0.0076987312189966,0.00273398528505825,0.00731065720885932
0.0501145973237216,-0.0196525348602096,0.0179189694762444,0.0272067544465609
0.0534642997441274,-0.023164975718304,0.0174150554424844,0.0436347059481034
0.0605905898446047,-0.0215325057432351,0.00788235225966357,0.0377654543703432
0.078321550724464,-0.0295120885790046,0.00183760910083996,0.00814550593380321
0.0900974507246839,-0.0472415887051785,0.001656373128287,-0.0252532145601513
0.0766843893757362,-0.0510683717585837,0.00345944985812723,-0.0411389434742201
0.0494208236068244,-0.0328138803132042,0.00335516933865825,-0.0346770346158403
0.03294933513697,-0.0180431761075972,0.00100630356287078,-0.0179792820555038
0.0331358209329001,-0.0240260446464733,-0.00152472983275456,-0.00708958386414677
0.037339479290782,-0.0347944097973762,-0.00128575334275184,-0.00661723983828298
0.0365759016302989,-0.0273558041568955,-0.00301942332464727,-0.00803074447170604
0.0358474576073163,-0.000196234666545649,-0.0157322081651586,-0.00363785821848046
0.0312641670387234,0.0316334895873677,-0.033084610206902,0.00480176749041084
0.0144783328351593,0.0661430243631327,-0.042559111722328,0.0118008967187803
-0.00542938850208415,0.0950005888360579,-0.0420518366407523,0.0150316140406673
-0.0120917596437164,0.0836780928468139,-0.0362732816041602,0.0151599072662637
-0.00605709236942942,0.0285796583055844,-0.0292345709967488,0.013201652742603
-0.00408463950216303,-0.0126156003466075,-0.0269523463491334,0.00924274932099333
-0.0132038789528175,0.0035331048513421,-0.0311448346508329,0.00245709410869546
-0.0207108306111697,0.0416875403298624,-0.0326971930583572,-0.00559282112941893
-0.0112739176393992,0.0446277664759007,-0.0267936656028262,-0.00912631009635162
0.00694027056814338,0.012989804706981,-0.019767586769645,-0.00299922913570801
0.0217637205074315,-0.030370471902609,-0.0152791320515176,0.0103842137388326
0.0455871824725143,-0.097300332142669,-0.0113973149414794,0.0187956079515154
0.0808435587196818,-0.150114144012806,-0.00841554059895142,0.0109128670219315
0.0972967537496802,-0.116072943705788,-0.00824269890554278,-0.00993809381099022
0.0736929505888519,-0.0507835171557154,-0.0120557027703847,-0.0288206386410291
0.0283833114225223,-0.0373149171214085,-0.0172727711454725,-0.0332991234931937
-0.0170049514010129,-0.0447213969134121,-0.0156759258424463,-0.0228634412652592
-0.0526750437415928,-0.0185326820135455,-0.00415764156174646,-0.00623458192473545
-0.0638225630524424,0.0344847081387494,0.00783550191254922,0.00805102035836285
-0.0552875446434466,0.0814814736691406,0.00906133722537212,0.0157948398579132
-0.0453898101748083,0.105329398493851,0.00322268561963473,0.0164758008627074
-0.0328875399763777,0.096783595994666,-0.000174348946060734,0.0132262053805371
-0.0123085334694188,0.0693349983013738,-0.00274635927991355,0.00973392879653307
0.00434712694022743,0.0503402810485627,-0.00573308855167268,0.00633791953022327
0.00219002858795798,0.0692069635801166,-0.0051899902639371,0.00288301606437682
-0.0137818936287212,0.116406809976291,-0.000569272015456673,0.00109036759968599
-0.024841931189922,0.10488744635141,0.00854020209549985,0.00139084252050755
-0.020841070938349,-4.10847535298187e-06,0.0218074249938118,0.00242055382769701
-0.0062724525423116,-0.0927479898634587,0.0289011205133745,0.00353564882845124
0.00618663367075803,-0.0928538818471323,0.0249613497632438,0.00441153189314788
0.00622400642611829,-0.059222711084552,0.0208917477812875,0.00412014345994351
0.0026166665554553,-0.0591968041663829,0.0197421620470271,0.00218020790806754
0.000519406034625129,-0.066460585782146,0.0141001691518472,-0.0013701500338127
-0.0146708896136229,-0.0364074026336327,0.00249184992574192,-0.00688350341321215
-0.0344669570848893,0.0173848421126005,-0.00798699965551124,-0.014086108340193
-0.0392562113185266,0.0480366387030181,-0.008410059988013,-0.0197517915413265
-0.0389320257922077,0.0401416468524405,0.00178580891531285,-0.0188524882975874
-0.0482308139508388,0.0238393431249249,0.0135920526844463,-0.0100275337449166
-0.0637507537429312,0.0225890435593523,0.0167477350541317,0.00121771976341102
-0.0733805653142985,0.0308839002626342,0.00918978757336341,0.00702254874358452
-0.078448316840168,0.0426887807029919,-0.0031693740441912,0.00585930630452691
-0.0853877192403718,0.0545011913989468,-0.0123284451000082,0.00270891200347464
-0.0747587647914373,0.0569649256993465,-0.0125367610620959,0.00186828767246829
-0.0344377648447982,0.0440286544337913,-0.00422753546089439,0.00560706947506273
0.0091690578326971,0.0121893724992389,0.00935011515525842,0.0148107082688341
0.030181318335444,-0.0360540402612853,0.026156081779379,0.0295504801292079
0.0460838623145861,-0.0746179768431971,0.0407699745077056,0.0490186511628715
0.0779514224601886,-0.0748704736726959,0.0417378334641155,0.060978247435365
0.0946578606151448,-0.0404906156682007,0.0257886539583636,0.0445271525291296
0.0753188292974618,0.0015567228502925,0.00782256098371183,-0.000489529734081229
0.0539326538968711,0.0267375339239244,-0.00114534115822645,-0.047376207083584
0.046041250137668,0.0308637459481534,-0.00541066086706165,-0.0725949053395832
0.0278578185967982,0.024293612118446,-0.00795527727108477,-0.0738299046460881
-0.000465031761163123,0.0159155598785021,-0.00874158039456176,-0.0620679611493909
-0.0156957568181052,0.0101408289472209,-0.0062218377642126,-0.0465388030518594
-0.0155319026444815,-0.00579723554143203,0.00365022061505913,-0.0264195648423372
-0.0123847429891565,-0.0470577018007539,0.0126803701115578,0.000509979861858578
-0.0137613778141821,-0.0742416797283242,0.00849879808658774,0.0261129128179329
-0.0279423771606887,-0.046427249428374,-0.00112944394917264,0.0395114343412093
-0.0542511895325891,-0.00213037009202824,-0.00253418348952034,0.0400234145962509
-0.066346415460117,0.0148787440437467,0.000437138395964826,0.0342760630714121
-0.0525880468815156,0.0145146705749774,-0.00143274078843443,0.0268245956340971
-0.0345048422038869,0.0168383405034082,-0.00264662798008557,0.0187732984122012
-0.0274094011700331,0.0275715679113701,-0.0011977566836927,0.0111157435892718
-0.0390107739021724,0.0361351938619126,-0.00735356294836295,0.00470635968555189
-0.063361972001569,0.027754119397583,-0.0172713904013109,-0.00150950875581871
-0.0652085819567839,0.00563695361191448,-0.0207896464440212,-0.00894261790366162
-0.0288541996163209,-0.0206196581782066,-0.019784905690938,-0.015878007903219
0.00890626781107749,-0.0459789498046787,-0.0136793649540809,-0.0182892945525284
0.00964489876927765,-0.0653120571498618,0.000679892369248876,-0.0149082864258799
-0.0134221667011949,-0.074929797768865,0.0172073232019469,-0.00851154127864894
-0.0192952176609981,-0.0725116183447866,0.0249157373803853,-0.00319800296503386
0.0112000440378522,-0.0749506051743445,0.0182436720495245,-0.0019674624223284
0.0609733110390521,-0.0914877752468838,0.00714282126201233,-0.00462402243651852
0.0860422983878698,-0.087754011101351,0.00259005313952354,-0.00778715958115749
0.0498147115601032,-0.0513413652725628,0.00220009935689474,-0.00836396866555509
-0.0233010673615182,-0.00420112160882599,-0.0018333830972524,-0.00646799768893352
-0.060308753984802,0.0424138742426474,-0.00889699449133563,-0.00446287994031337
-0.0364464421231281,0.0763850924794254,-0.00930053390737682,-0.0037769911395715
0.00619654208595268,0.0729885812886175,-0.00186247519292791,-0.00274780108827977
0.0335622932043075,0.0404536327747215,0.00461318781949052,0.0011545966111491
0.0348791423182211,0.0349760163241002,0.00356038201420667,0.00652478708137392
0.00854668679095376,0.0586216891487658,-0.00224357715924545,0.00905520226302009
-0.0231828795190436,0.0604903989643731,-0.00445859214429797,0.00782377825843096
-0.0329731848694383,0.0400727891181502,-0.00206147008452481,0.0055677884781166
-0.02029882585331,0.0157333442440537,-0.000247162996622279,0.00387394691681009
0.000465716764692328,-0.0234804588743711,0.00209042986399793,0.00247858969195074
0.0202031181255779,-0.0711873720599451,0.00650495631170999,0.00143934201863032
0.0390259515202164,-0.0932087289572983,0.00770942026433954,0.00139813569280213
0.0530499789068859,-0.0834092229059274,0.00816442136045939,0.00234547104805263
0.0402111764930143,-0.0690147111086405,0.0126198253577355,0.00343055958333658
-0.0022660860167347,-0.0570127024194544,0.00968216987596475,0.00395528350961995
-0.0550529086368537,-0.0253872745004216,-0.00610041668756801,0.00340210661787448
-0.100570739883648,0.0247622514674675,-0.0204115251472015,0.00125712887133379
-0.0944608076276439,0.0542171355491034,-0.0219533899884527,-0.00177287788933491
-0.0252638169414376,0.0480964408005236,-0.0134420464960347,-0.00377851624438649
0.044072737717124,0.0321921137610823,-0.00362353384224198,-0.00370011641878534
0.0733774696909869,0.0241358248051788,0.000653623067927645,-0.00171068735980893
0.0713144376342572,0.0224050238417847,0.00137666949472291,0.00196711186445663
0.0561509346900179,0.0262847011840564,0.00532415387811482,0.00700272657659162
0.0441910752349073,0.0415504573722311,0.0119338627479277,0.0119956969888405
0.0387923637917005,0.0609586804838172,0.0186487149573314,0.0140971138297908
0.0376242438677551,0.0617491470163815,0.0284455464999849,0.0105682093230407
0.0396517283936305,0.0500974990188445,0.0405083503486706,0.002295290360061
0.0364356649712915,0.0554579138457263,0.0459384752429189,-0.00508494086653544
0.0292258785760869,0.0673348899552183,0.0429211504147838,-0.00694252579314846
0.0336481183674356,0.0497536450159459,0.0415494795789431,-0.00479330470396572
0.0369611418098648,0.0070065828165673,0.0458435954822259,-0.00278041009879103
0.0214448685777536,-0.022848252864074,0.0481360084481595,-0.00229598734612312
0.0139703866215413,-0.0224221547914614,0.0436757854059989,-0.00187233879498896
0.0271750053895008,-0.00966237133452792,0.0349698206715536,-0.000715825662013633
0.0392632751490171,-0.00732862579860435,0.0274894119749407,-8.64357340466136e-05
0.0431706547452531,-0.00819446888840532,0.0281670750048856,-0.000628007944020992
0.0434322188899292,-0.00430701336268391,0.0372318858147995,-0.000902509699991947
0.041224918033612,-0.0313096221674096,0.0466370937996718,0.000715656933334881
0.0266638536794898,-0.0790061413067428,0.0430636557790973,0.00377119804710853
-0.000750903611885602,-0.0705942983472296,0.0181248975389382,0.0058500001980801
-0.0217291079928652,-0.0108423219171866,-0.0175820753537843,0.00558814990905344
-0.0237093767296984,0.0313114295997263,-0.04985215403935,0.00409484252896231
-0.00853194492054569,0.0388994707841923,-0.0692403194815272,0.00251945554462177
0.0074143025437076,0.0367401753536459,-0.0736836814627372,0.000616576274260993
0.00979719120424712,0.0384091628672059,-0.0664083557536458,-0.00235209391051086
0.00459287841313833,0.0349398323511187,-0.0421122364341283,-0.00598197256599451
0.000964753397575634,0.0267638145738485,-0.00501988634216334,-0.00829543663864461
-0.000271669171715897,0.0271774676968607,0.0275150205351488,-0.00782970271881684
0.000276382940690226,0.0395273521145946,0.0480620056100891,-0.00488648434004933
0.00483458191269204,0.0538161763778025,0.059535976206104,-0.000837304461971751
0.0100793933287843,0.0487968406803517,0.0653769673671104,0.00319418998782138
0.00196800435096621,0.0266879055648057,0.0639905386506544,0.00672173025672372
-0.0184958085278549,0.0127986574395503,0.0510184374449235,0.00894279091156007
-0.0347642095440495,0.0119006937616116,0.0311099827527093,0.00855273926902596
-0.038365752515508,0.0132950757948764,0.0166302334393063,0.00487129558079096
-0.0291637584487328,-0.00543518079389722,0.0107895813826334,-0.000916722362752937
-0.0113268733367121,-0.0342870825924989,0.000174582495082669,-0.0063433550602467
0.0113087532097618,-0.0252077285721457,-0.0226795283160734,-0.0102434868906792
0.0310849361183936,0.00857200360769537,-0.040944018191348,-0.0133172505793874
0.0424142844031615,0.0155202807935057,-0.0389838607873294,-0.0151988497359421
0.0559196321110622,-0.00908337964818107,-0.0264756345807118,-0.014085418594131
0.0703980175912582,-0.0348177682761277,-0.0196764014182485,-0.00971472296217655
0.0671960907899811,-0.0434021094639286,-0.0234070686423978,-0.00376817425338029
0.0373615742533226,-0.0426265065288358,-0.0328842914328333,0.00142583517455489
-0.0152613054583081,-0.0367078827626478,-0.0353655922613514,0.00435244844732033
-0.0671997614249795,-0.0241035832220898,-0.0274096630250204,0.00540594573315255
-0.101640939076202,-0.00957406250320555,-0.0207895875993027,0.00576385405607457
-0.122443149460879,0.00617677065243012,-0.0195068488273415,0.00605517882781274
-0.116162427798912,0.0190719534397179,-0.0189646982258278,0.00584630700588961
-0.0754676129008449,0.0185054374174226,-0.0154178714521416,0.00410172081854598
-0.0273266894329609,0.00507873579733831,-0.0100554306295531,0.00110622999664381
0.0060853767012254,-0.00433208062474405,-0.0108227872897363,-0.00164328893057999
0.0270255065003938,-0.00570094004997034,-0.0186041862414227,-0.00351453797008332
0.0434007350065803,-0.000945870472171442,-0.0281934757191,-0.00453639698493044
0.0441293638472753,0.039737905333735,-0.0381429600541416,-0.00480279201131238
0.0104355657341148,0.106821544581535,-0.0455189363559181,-0.00496130858726958
-0.0461509933833225,0.148136204039434,-0.0470154812059991,-0.00521782586106177
-0.0867846705208004,0.160697480649941,-0.0451334837749367,-0.00474776315534474
-0.087139540112893,0.160637817231516,-0.0419699744532915,-0.00300442414115945
-0.0693979857134606,0.151722561156488,-0.0318207497917076,-0.000850256001330215
-0.0679793002098882,0.135167413634101,-0.0126208079566042,0.000367506508895009
-0.0754389532841544,0.0811522458970796,0.00897294632358867,0.00172579187735631
-0.0635249020055601,-0.0342311452794239,0.0264554620072908,0.00571380339569175
-0.033203021562609,-0.137058756802525,0.0273147343986185,0.0109225953607667
0.00115286111427772,-0.167673254162562,0.0105415678487609,0.0127179225204684
0.0458041265320002,-0.180587460081801,-0.000159701759690104,0.0109630971566696
0.0973054473778869,-0.197837459925848,0.00835795436898382,0.0117248035973681
0.116306541566638,-0.171492899766519,0.0184649431048278,0.0168851938326983
0.0710137789694574,-0.0939702347327471,0.0146101409290251,0.0161314233745737
-0.00803319172555453,-0.00890682771458495,0.0045628794137425,-0.000475528699973068
-0.0590829677832273,0.060192160689228,-0.00299900611778037,-0.0245158536190137
-0.0595595178696562,0.111649452735801,-0.00557018762458667,-0.0372949787311746
-0.0294160712822416,0.116074098794465,-0.00205221341784824,-0.0318139018756741
0.00564310526556615,0.0560352470478886,0.00252617645014199,-0.0151288699668266
0.0225166068531166,0.007827627354942,-0.000222827169552721,0.00315735082771518
0.00689987335181771,0.037661007489264,-0.00603380175901345,0.0156354486574112
-0.0201773470291397,0.0729358590641642,-0.00375272275756825,0.0195302889352839
-0.0323733845692737,0.0574715795950276,0.000526216004380468,0.0175725850032756
-0.0250287176286788,0.0329169583307223,-0.00197850974201476,0.0128954662679392
0.00133480049908372,0.0124191445023583,-0.00414905701377151,0.00718339739603333
0.0302525649675631,-0.00990942916232382,-0.000566177077679819,0.00226594234897458
0.0361287147798846,-0.0178827422185804,0.00490005666321747,-0.000350273023060105
0.0125490902045968,-0.0125724301833298,0.0116502276561333,-0.000565925987765604
-0.0198288358649939,-0.0132388728188995,0.019570515878413,0.000624004621761628
-0.0264552381492656,-0.0274982286575044,0.0254316712765382,0.00208837647092269
-0.00225709959078823,-0.0468505210403681,0.0343725137421231,0.00290409247624108
0.0233619593945435,-0.0594699901494609,0.0467393476027133,0.00252048884157164
0.0320790555342026,-0.0604108703572738,0.0483933906537046,0.00113456046353342
0.0273188652293097,-0.0514395200854064,0.0357146291954807,-0.000552010450692122
0.0234037182304702,-0.0376640016668957,0.021299370978002,-0.00231541717656456
0.0295156474488516,-0.0340686203507354,0.0168605247614354,-0.00406727249545294
0.0365209075419124,-0.049967906979177,0.020343634713106,-0.00485960520214173
0.0399191625730851,-0.0717619174359427,0.0210132384556892,-0.00389246434503511
0.051337374255543,-0.0835079368249393,0.014628331998641,-0.00212980916067721
0.0675233637433403,-0.0720264109636603,0.00156898541991527,-0.00136194644664085
0.0681779668168013,-0.0409407840364043,-0.017526281990924,-0.00222466867868872
0.0500545989014426,-0.0393277162916451,-0.0337361763580395,-0.00400858479589839
0.0196622478245999,-0.0815328410142072,-0.0321914909130151,-0.00561167068207931
-0.012872210770083,-0.108597997366739,-0.0134671182244079,-0.00608395335164715
-0.0269740561738426,-0.0961799872464046,0.00598209915499273,-0.00447888321993934
-0.0240082706416028,-0.0711404134515137,0.016986047722122,-0.000260317667060013
-0.0224396290152952,-0.0539329717842287,0.0174176973929316,0.0051106788449952
-0.0264830470671579,-0.0550934547440559,0.0086517810052244,0.0080935395960059
-0.0455227843101913,-0.0615078660403388,0.00421959303577929,0.00640895992582277
-0.0737173009426556,-0.0396664463702766,0.00873777860830291,0.00135864713694146
-0.0691292821178535,0.0113101629715305,0.0105727387258603,-0.00419562501679892
-0.029249028961505,0.0529424812345094,0.00749136428259175,-0.00768709646553521
0.00525261499847732,0.0655515987343403,0.00604979388560441,-0.00746147303757805
0.0144773738002076,0.0682443193211875,0.00733591556545314,-0.00431917270870472
0.00817517905225779,0.0808630504377369,0.00360819526953475,-0.000329483282124568
0.00408832965577245,0.0835095586688783,-0.00566513799790586,0.00479755595238001
0.00313432953320359,0.0458185348667479,-0.0120626647524923,0.0134413551558383
0.00191151348511024,-0.0259723064662409,-0.0119671646293086,0.0225859377936756
0.0182560156909832,-0.0968687452647657,-0.00455922572763911,0.0211763296724911
0.0511299772299045,-0.123342350471327,0.00199154692431437,0.00382881237891345
0.0593450583371205,-0.0842723650615814,-0.00259629925338475,-0.0195193827304816
0.0370865197489219,0.00219686002110487,-0.0124080131848489,-0.0334002204369178
-0.00122594311050926,0.0882827114011749,-0.0206811090572773,-0.030163520492179
-0.0521856382581761,0.120138263733656,-0.0310881578658225,-0.014488458863489
-0.0682678602663071,0.084835975848163,-0.0363047986645317,0.00280096102438785
-0.0237097998240537,0.0277859449121282,-0.0280094087654514,0.0139370974227233
0.0244784455507534,-0.0141189165947938,-0.0177193566162107,0.0167155614398564
0.0174826925524819,-0.0336149426820772,-0.0157556728630101,0.0134836080020026
-0.0302856268541076,-0.0265928491680261,-0.0157347195583241,0.00861831408634508
-0.0651625695625716,-0.0103737696844382,-0.00882722921673902,0.00473536754625092
-0.0771470449929978,-0.00195861783747143,0.000751792380457904,0.00154366961163563
-0.0866062093650425,0.00719865452281002,0.00373409210374671,-0.00202138618202668
-0.097654593141744,0.0282932309256493,-0.000271977513553347,-0.00471806832145994
-0.100446431751853,0.0507323066603316,-0.00542219958749936,-0.00333541265086501
-0.0784643308414954,0.0591442588463187,-0.00637996723738662,0.00172151487086107
-0.0331040790322205,0.0621716232514967,-0.0051799129688554,0.00580249247318065
0.00849565574307219,0.0646249416512054,-0.00656797164759453,0.00630394904189193
0.0313534475281309,0.06935742993457,-0.00856494338528445,0.00353057079045905
0.0464714772288288,0.0864278131066747,-0.00621955033564118,-0.002062375700446
0.0712335714427125,0.089558533544347,-0.00151520022325554,-0.00847192704231257
0.0982938884429983,0.0477961633673968,-0.00200802616795319,-0.0114517658136632
0.0968790509956462,-0.0102201002834207,-0.00442426688323805,-0.00849669736048764
0.0714236922878189,-0.0399737981200765,-0.00223234032464038,-0.00182895595545978
0.051982268794527,-0.0548675034853034,0.00459498599770639,0.00392255065242746
0.036721062430919,-0.065813761319897,0.0126372673483081,0.0063079591466468
0.0119763442690606,-0.041343047234238,0.0108813658495486,0.00616141832517713
-0.0137867632351867,0.00210804958381189,0.00066896895319548,0.00485879977409914
-0.0282451755616692,0.0238517271560781,-0.00473362241986797,0.00273694815153993
-0.0316104900732476,0.0354723327031833,-0.0039545115323563,-3.7762287428435e-05
-0.0257200450134706,0.0576736507996342,-0.00156884652663801,-0.00392927452806483
-0.0170126406735413,0.0795670818050504,0.000828017525410348,-0.00980536457382449
-0.0107637369570414,0.079404054687751,0.0065739278494688,-0.0153481983731278
0.00439324640197892,0.0403902539801116,0.0177517226194714,-0.0158546329657808
0.0290897636518874,-0.0196466025178942,0.0268712888510941,-0.0101567029145567
0.0418371085171529,-0.0448718960668238,0.0270163318685851,-0.0014553001357712
0.0311286414250188,-0.0230979082031724,0.0219893650278928,0.00773241831591978
0.00513985060397379,0.00733738026981848,0.0191974996700012,0.0202305104504436
-0.0145813340390993,0.0286598201688152,0.0162073913867898,0.0378323958966546
-0.0116912619522365,0.0420307723436256,0.00344464999818805,0.0470538414228122
0.00975038071046736,0.0290779488302536,-0.0120918842406912,0.0307329181731638
0.0334751866063667,-0.0178164432343259,-0.0152696231328389,-0.00422266132554164
0.0427405870976607,-0.0524497225287556,-0.0108433448413896,-0.03358690204555
0.0393854334186055,-0.0427370848662863,-0.00965982217633122,-0.0439135592050581
0.03407731482202,-0.0204638915970675,-0.0117280891889256,-0.0386715430337414
0.0245025671045228,-0.015415876611092,-0.0110320504850095,-0.025510040081696
0.00953333678659125,-0.0203673755163641,-0.00418001099714798,-0.009474603000324
-0.00135106042165074,-0.0261104481020438,0.00735362030639879,0.0048288444977325
0.000801136142663028,-0.039430229679787,0.0232975013585178,0.013788869010545
0.0131763174819894,-0.0610061986815808,0.0389612364419028,0.0170636657577063
0.0193713137203491,-0.0651330507048905,0.0427059544381368,0.0158578653383417
0.00682672217103556,-0.0389274423549817,0.0330354047040848,0.0110809949233088
-0.0134749734109167,-0.00850633226529544,0.0183550585024755,0.00447976786355263
-0.0210073858378648,0.00657277866853859,0.0065670289452811,-0.00198513905889725
-0.0137644297504123,0.0112513207448906,0.0052771772159622,-0.00702967197267527
0.000970514377132227,0.0131414199855162,0.0131686179127325,-0.00911932677539366
0.0185694409738241,0.0186272729334301,0.0240980369808168,-0.00775634668533377
0.029376283308512,0.0307651547738399,0.0329405956602628,-0.00294809736201796
0.0265543443270971,0.0400944902095712,0.0315530271784157,0.0052668772799108
0.014648741203006,0.0465493478905145,0.0171849324691266,0.0130876720577802
-0.00821015754798854,0.0487582586591223,-0.0014595417550359,0.0149150940637265
-0.0550997491799944,0.0338806884485366,-0.0176834360452784,0.0103633930081124
-0.100267102385394,0.0105708972531932,-0.0312172967553774,0.00397631401711078
-0.0960181612044432,-0.00612569730505408,-0.0344417921450401,-0.000451814904094058
-0.0572042943502688,-0.00243829442649997,-0.0263913278492189,-0.00232809768539773
-0.0220954755045765,0.0213071922527742,-0.0206097461024972,-0.0032291157416985
0.00469608208738334,0.0487024778784524,-0.0196061724358023,-0.00437327212348369
0.0236645251083989,0.0730468480480718,-0.0164334019186972,-0.00503850402646184
0.0350370437837618,0.0779181100443712,-0.0107988007692491,-0.00431836434585677
0.0415893077411827,0.0563016745926273,-0.00734669805338588,-0.00274380424741627
0.049783522784206,0.0286077929019839,-0.00610661800418751,-0.00130318712133502
0.0756168138443653,0.0201171971235537,0.000246373265212894,-0.000187392577434425
0.107013873160339,0.032728597607523,0.0122769434979943,0.00136300816594123
0.0955006558274377,0.0413504709999092,0.0211176224145228,0.00330474738113402
0.0366408105055087,0.0419107913155548,0.0148832592559981,0.00381081917202673
-0.00576022112542129,0.0168906924504679,-0.00369843382859327,0.0010704048479238
-0.00249737306651222,-0.0594353362676891,-0.0129468642696028,-0.00447547769333261
-0.00314222296689744,-0.12543803303732,-0.00770263269342737,-0.00937962801635729
-0.038114922353522,-0.110456667755602,-5.84646582625567e-05,-0.0103766950175917
-0.0668376160179586,-0.0534348062885047,0.00907775595716779,-0.00750228620019811
-0.0541026175335752,-0.0225122046815237,0.0204724747583906,-0.00283200286975021
-0.022916444522667,-0.0115135960788618,0.0210928025210548,0.00147609359487738
-0.0151710234472208,-0.00295289603161137,0.00566591840470939,0.00390440736604023
-0.0421429535188486,0.00280762998016731,-0.0119354206721747,0.00409885511819231
-0.0636547141828077,0.0351688315864883,-0.0205491455152627,0.00271612062790496
-0.039381359286353,0.0856430607050044,-0.0179942677575211,0.000403323182165631
0.00204349009967861,0.10257368959497,-0.00949189000527282,-0.00164138943733052
0.0228587040695857,0.0903548372263889,-0.00550388652139585,-0.00178398892491707
0.0307983727533974,0.0802981198791459,-0.00806086912764194,-0.000338729560587183
0.0393344386579052,0.0545353946191164,-0.0123109920990171,0.000597384581453959
0.051353524960846,-0.00281783133927693,-0.00987011395385727,-0.000190647833871771
0.0586290747392529,-0.0487527201427182,0.000850535052381683,-0.00134933326423464
0.0517066090198354,-0.04876578449713,0.00435026801564941,-0.000775389883241006
0.033361218976599,-0.0282634462664994,-0.00251493659735287,0.000991010683002064
0.00884540589441455,-0.0197119780616794,-0.00733797659241052,0.00152642970800809
-0.0196299992329659,-0.0222953505118998,-0.00695153965663349,0.00018806342210623
-0.0484008528852465,-0.0286914607167115,-0.00238304743517934,-0.00133475247560208
-0.0644446102475484,-0.0488722675574935,0.00483918261222536,-0.00179001043879109
-0.0609879876430128,-0.0746775168158419,0.0115260232102518,-0.00134128859544342
-0.0499789455854203,-0.0709225397898191,0.0146534059841337,-0.000432138970315331
-0.034217569552621,-0.0451713226974326,0.0166384193197987,0.000689312777465719
-0.0089581345834668,-0.0311778148538564,0.020478986974579,0.00178623650028772
0.0139374590783201,-0.013991625793462,0.0203794008500889,0.00231360739774204
0.0149471528418187,0.0279164772133189,0.0162642574963282,0.00157804387518996
-0.00765317431220523,0.065118165847118,0.0147450139657489,-0.000446219198946925
-0.0239727206100157,0.0650051013459313,0.014528686542029,-0.00275786990285649
-0.0126325588443911,0.0275168840295293,0.0131342067816531,-0.00421272403792144
0.017068475440067,-0.0301041334163655,0.0137512512322583,-0.00395887732779828
0.0488837144040276,-0.0693978128250855,0.0153404321587336,-0.00159290932568731
0.057175560974187,-0.0665684263769435,0.0165393328058446,0.00192406087278339
0.0232617404504051,-0.0432174544838949,0.0167668630080572,0.00494497154605996
-0.0413832763058801,-0.0245747282375089,0.0145622435177241,0.0065749908697424
-0.0929434521841549,-0.0168683921943245,0.0144355921223674,0.00671780168952912
-0.0955956008235222,-0.0167088025631908,0.0176109850899569,0.00554987110524084
-0.0796735540671943,-0.013762319453734,0.0183872763298735,0.00352283034104236
-0.0809312944380665,-0.00602512786558798,0.0121221718775474,0.00146152772837113
-0.0725169792865564,-0.00368237095427133,0.00380955187684482,-0.000412676298114511
-0.0349234355308785,-0.00162510235136021,0.00291903534929658,-0.00265514258649176
-0.00111041838803629,0.00891041614697813,0.00810454642459024,-0.00483726668729667
0.000267591178599712,0.0142114632776818,0.0116640269087799,-0.00500717019468017
-0.0157255763248669,0.00781453202696859,0.0132744699830003,-0.00218932017027993
-0.0162565540142005,-0.00311887268013529,0.013731609288842,0.00185750301925463
-0.000548349524719208,-0.0187297053038396,0.00471782233519677,0.0044714789999707
0.0128047791921354,-0.0278074609451024,-0.00915452442738518,0.00429637223280769
0.016801252207719,-0.0187035543298672,-0.0025834143965864,0.00189570932961905
0.00426275297669858,-0.00329913837133141,0.0262325453436703,-0.000678781074807131
-0.0175624861068715,0.00143665531772929,0.0483865394838319,-0.00192477256763566
-0.035694046788227,-0.00672905883826251,0.0481356290536727,-0.00193225691768058
-0.0497547388516403,-0.0129301561717833,0.0335566822701238,-0.000992483096595196
-0.0478315924888862,-0.0082074200263891,0.0154966659862552,0.000469638382441686
-0.0260527955613916,-0.00494725817244992,0.00370114330511238,0.00148256257479699
0.00145957432384661,-0.0147029120915476,0.0038207745255828,0.00233753173631027
0.0266230561133883,-0.0236134797121191,0.00776383860192158,0.00494654308594397
0.0500243869602971,-0.012371076986557,0.00555976652615648,0.00875328567609524
0.0661364850577405,0.0117350334738738,-0.00130029718090439,0.00907958308695435
0.0618223739386363,0.0259789776514821,-0.00529025714691939,0.00322201845946796
0.041999335870595,0.0240891629971758,-0.00740961983056787,-0.00583720925717148
0.0152187352061502,0.0190166386077075,-0.0146774577213385,-0.0136128901810619
-0.0105368076149345,0.0191907902291165,-0.0255726857812321,-0.0169613138734366
-0.0206044274881626,0.0227174765849785,-0.0331980850597376,-0.0141279484549746
-0.0162864257715729,0.0205594246295001,-0.033098453286126,-0.00668715060241222
-0.00234302143209679,0.00696504053701416,-0.0245212315309201,0.00107498626016722
0.00880166942020888,-0.00633258373692981,-0.0163819161825089,0.0060370005552951
0.00562207798906658,-0.00848082303139056,-0.0175571682476531,0.00752614021350236
0.0156482759608944,-0.00822501835674332,-0.0194289226996248,0.00616018362484228
0.0387029922048722,-0.0125019474801671,-0.0145272349585667,0.00304263747853312
0.0342653031810004,-0.0138929286509418,-0.0136936743984269,-0.000119141805165273
0.0130496072658007,-0.0142328109113234,-0.0183694631397359,-0.00176099703835688
0.00513263364824746,-0.007735616690548,-0.020075638633145,-0.0012975832311392
6.25185985285021e-05,0.0128663836367667,-0.0210590096194588,0.000577858424967827
-0.0159501985854923,0.0232930158258323,-0.0165622547589406,0.00209441701512407
-0.034659582893473,0.0172626365263598,-0.006083904881886,0.00247122288949256
-0.0431179363558205,0.0174210363243332,-0.0060574586196579,0.00167612714121628
-0.0355305402248151,0.0228205741896992,-0.0169317408521372,-0.000679957734221887
-0.0154463887766793,0.0201782815291789,-0.0227122997457705,-0.00363519085035595
0.00806467224510637,0.00870534404370722,-0.0172491815253404,-0.00518355584704113
0.0196671267791007,-0.00552917565197793,-0.00905585861965311,-0.00462043719267634
0.0125459088608683,-0.0113912987074556,-0.00162196966216788,-0.00239389748587894
0.00555510630227572,-0.0136715626825938,0.00433873061184494,0.0012026513203355
0.0159017164428731,-0.0248378513287821,-0.00187240861417933,0.00471204952099908
0.0339021740842137,-0.0375823956841048,-0.0165035785213171,0.00535739182891318
0.0387891995873137,-0.0531661451516754,-0.0240418402205884,0.0025187769738034
0.0322565911337395,-0.0803209966807536,-0.0235210318557893,-0.00117510753230768
0.0312258995692028,-0.0893856131874938,-0.0244316946501227,-0.0026763580519135
0.038696190983294,-0.0606842140864643,-0.026857310506562,-0.00130365786338416
0.045405785674589,-0.0201823389067359,-0.0241302923595167,0.00146935507322779
0.0394742158914951,0.0121886566324618,-0.0190291204745802,0.00391032847821953
0.0203140186204812,0.0255665799685202,-0.0159505816499296,0.00525768177902996
-0.000389737389876063,0.0296927720599288,-0.010746744841033,0.00513524572277257
-0.011269230288757,0.0497096790077054,-0.00411441060420472,0.00147993458733305
-0.010514472300528,0.0713179709840693,-0.00510949953953586,-0.00632354490696321
-0.00296572855361439,0.0609760215435648,-0.00950305858564258,-0.0130029198493443
0.011141352572987,0.0277460192887461,-0.00649741710541039,-0.0124842589710344
0.0234179978704423,0.0133412449749886,0.000955307851207248,-0.00498150361521854
0.0160610451838701,0.0210609392792845,0.00363866896696285,0.00361579439240166
-0.0117267084650931,0.0236095061341589,-0.00137583892518053,0.00783548439090344
-0.0417934610013706,0.0202149688153867,-0.00725072373027381,0.00772707135737687
-0.0611484678197677,0.0066779575816442,-0.00918879432065241,0.00698003062573953
-0.0709008667909702,-0.0207854505877399,-0.0110313856443729,0.00699377529864265
-0.0663819947266713,-0.0319906803891177,-0.0133864597916167,0.00651071576636539
-0.0427785385962616,-0.0200903296630806,-0.00854019840032509,0.00665566694267897
-0.0119637633226996,-0.0107706031853018,0.00727863882602577,0.0122250831170166
0.0130295337872218,-0.0116203954840073,0.0262260723273711,0.0230759847162106
0.0210625274417647,-0.0135867378495943,0.038242644151248,0.0271232774767122
0.0153244827967791,-0.0113341439822269,0.0345975374802117,0.0128065103484091
0.0205220528760044,-0.0144616616907088,0.0195006812138935,-0.0153954271507563
0.046581137605166,-0.039545912335588,0.00975480642068042,-0.0411350915653605
0.0745224464342084,-0.0745771479603192,0.0104240402300578,-0.0502409210735904
0.073381447203037,-0.0906601750173242,0.0162055990227441,-0.0393043330915329
0.0297417104543691,-0.0802716275185162,0.0206694197510815,-0.0139291642881055
-0.0237720070147225,-0.0560324670099605,0.019108678978174,0.0166568696528741
-0.0383503363722396,-0.0411270416438832,0.0126306882811925,0.0380652179175281
-0.0124224423825666,-0.0379718625970815,0.00443198250100929,0.0355714380771117
0.0169738960748736,-0.0267936876164954,-0.000743844179138385,0.0112632257327202
0.0310480317487123,-0.00718639936001,0.00367867592312688,-0.01423304458329
0.0303598511746228,0.0086070378330929,0.00993250016147156,-0.0215277906172369
0.0151720052357793,0.0245587489141027,0.0016536033637719,-0.0103851649925859
-0.000251218067523137,0.0439662916667314,-0.0117040531857082,0.00321554150013286
-0.00581117215598944,0.0589839029452128,-0.0106438290156455,0.00801509326337469
-0.0142544843122017,0.0738415238192458,5.21277713973669e-05,0.00775962716410163
-0.018350018124601,0.0775124204598995,0.00823288930470314,0.00927326291795685
-0.00800149846310596,0.0508340585003924,0.0111565378677771,0.0114242284594653
-0.00798818578571442,0.0193831630100743,0.00911399649431711,0.0092007269176842
-0.0225666437333498,-0.00268546827726876,0.00758083136097883,0.0018952073036614
-0.0317314420722135,-0.0298276686960459,0.0103648292981652,-0.00563152051176644
-0.0391106540263552,-0.0446432522481974,0.0117107600972526,-0.00870811539456943
-0.0458413742002943,-0.0338279579961925,0.0117053207622572,-0.00784418047786703
-0.0409876286897762,-0.0191752634806344,0.011713407539065,-0.00630067980120786
-0.0352130107815752,-0.0352058997851912,0.00916860588786315,-0.00580835889781042
-0.0438854663222569,-0.083127726619785,0.0068723911399206,-0.00576928420059418
-0.0524732893681376,-0.11734055125218,0.00197118271793571,-0.00593580497130874
-0.0444524360980284,-0.11943309184929,-0.00410233968096708,-0.00891102492386092
-0.0174524921331353,-0.0984477949511647,-0.00140916115135999,-0.0151853925300419
0.0260900390381055,-0.0567830311537413,0.00717338871570543,-0.0199379059142208
0.0543858365060761,-0.0230803111908414,0.0106851424636429,-0.0195325748323961
0.0468294938426578,-0.033825844229596,0.00338736191982293,-0.014638475617974
0.0298681608669052,-0.0642509451959857,-0.00646305465306969,-0.00616440569205753
0.0216902690038668,-0.0467788176095971,-0.00756502074914403,0.00831907561968302
0.00793844260803131,0.0280174199900267,-0.00521402277257753,0.0315843340747081
-0.0159187020168996,0.115215552230251,-0.00788435658516997,0.0535612258137986
-0.0309258511417703,0.183933302596092,-0.010777933960969,0.0526803715203969
-0.0307283132442212,0.203260667099521,-0.00591790000437713,0.0247981017592684
-0.0218652954438265,0.149550065218683,-0.000739653165150685,-0.00894182376475803
-0.0152573774827464,0.062608942489952,-0.00498880306881111,-0.0293833968884282
-0.0197865876432451,0.0168177224464526,-0.00968410217414158,-0.0345484402673774
-0.0244466891019127,0.0189352611069599,-0.011059775184526,-0.0303754418061567
-0.0189449797478125,0.0295482258257627,-0.0153895467995987,-0.0216225661926909
-0.00590361193717893,0.0431247727808035,-0.0151380368276643,-0.0113937487714792
0.0214755528138413,0.052215671663886,-0.00216021003820346,-0.00164594556241162
0.0615457360430309,0.0237583217145834,0.0158554267760899,0.00652710974049895
0.0761207455183074,-0.0281238878356,0.0222888840250375,0.0111605302521907
0.0322421851654103,-0.0319517467008688,0.0129521869297422,0.0108896517870133
-0.053075193085174,0.0280199158291673,0.00140334530738127,0.00847619151228601
-0.124605828695483,0.0748685616290788,-0.00482741998915738,0.00750424238538558
-0.133577582071492,0.0422282738084969,-0.00462188005741499,0.00750910158989651
-0.0773902792423927,-0.0372187455888195,0.00225821025318709,0.0063225682095746
-0.00634785186163225,-0.0688336259652313,0.0050744582577459,0.00379186012740273
0.0246241644348597,-0.0297540078518006,-0.00287873495332324,0.000665570406928797
0.0284059853641672,-0.0024118894786558,-0.0127684106898529,-0.00321489740853322
0.0429184821007773,-0.0270363952335841,-0.0113946029593153,-0.00707742503018693
0.0539320816631319,-0.0277816805888947,0.00449998374490583,-0.00819002906909381
0.0432594627520606,0.0337832487817686,0.0202963922899371,-0.00460754754377927
0.0283240555774962,0.0815506213254112,0.0268661071122806,0.00230188100938773
0.0211441296975937,0.0643979271184962,0.029693368833552,0.00924471438794679
0.0119332439546737,0.0237192792177046,0.0296647880960048,0.0142514471480117
-0.00118532423879936,0.0266562694222872,0.0246308378328175,0.0165676115938676
-0.00486516477396658,0.0871819207148484,0.0147384501221804,0.0144728866517549
0.0138491496046731,0.142178022189914,0.00500833979255495,0.00705334210207215
0.0562846305071327,0.130845498330996,0.00294087174870564,-0.00232814554578084
0.100054550566562,0.0771589540806813,0.00537274818575756,-0.00875806414242252
0.11304082186903,0.0328902053886131,0.00396977338345829,-0.0109255786310957
0.0750831972947283,0.00770122852897351,-0.00195663439906484,-0.010180948688685
-0.00371931222779104,0.00470461025462512,-0.0119401162047623,-0.00752240261123028
-0.0683253935655898,0.0184922267908033,-0.0267742884075106,-0.00394554788995731
-0.0717360190201993,0.0192394013925233,-0.0337293507511774,-0.000955106570779131
-0.0390824455736479,0.00464465309261211,-0.0272782592983791,0.000971109873084252
-0.018984094495828,-0.00558127852014063,-0.0265440397677725,0.00230261613436166
-0.0122779455995671,-0.0321148190430657,-0.0354614021441507,0.00265519175522613
0.0040919142315231,-0.0929553232021475,-0.0354347251884038,0.00189779628970354
0.0266315320577033,-0.118895999503629,-0.0266945715455088,0.00112703862670481
0.0313752229874527,-0.0570063471376216,-0.0221082016893234,0.000326431942028054
0.0206037002351641,0.0268327412274438,-0.0132713811476338,-0.0012984172675388
0.0215501868379544,0.0626859491498067,0.0050422054138982,-0.00302196222439093
0.0392888919012101,0.0459775843625263,0.0195487813120781,-0.00361620280450014
0.0485587646871235,0.0131402199481486,0.0240720301741454,-0.00287333655690183
0.029395973757343,0.00624834497395828,0.0198644253405437,-0.0013859159258966
0.00125268565621503,0.0175469114605357,0.00892788901767919,8.2540845241951e-05
-0.00597299222352508,0.0216916549374635,-0.0031246231605153,0.000784970961904834
0.0073113795421871,0.0186486816268562,-0.00931103143041216,-1.34113022505079e-05
0.0263193398140555,0.00704763948009918,-0.00729040687280078,-0.00208186267170807
0.0365117099296778,-0.00721924162273493,-0.0027406660449338,-0.00365019195677828
0.0305037622948634,-0.00952072424991721,-0.00497213260160049,-0.00322660870115447
0.0142929773823372,-0.00849514629614328,-0.015598997876842,-0.00181110653707334
0.00594233879437425,-0.0151816045739433,-0.0282978932631665,-0.00147357945309062
0.018897954358162,-0.0239934064924017,-0.0363353646167603,-0.00240699687283171
0.0375003721545456,-0.0271633306478111,-0.0384118439728623,-0.00308303000773729
0.0409230684998809,-0.0202761379045826,-0.0409618758538393,-0.00281897111859602
0.0269286389751931,-0.00642146632613214,-0.0426707208677441,-0.0024859588619719
-0.005568115774422,0.00744009371325647,-0.0372486991921591,-0.00205546564769185
-0.037964325399181,0.0202391577891054,-0.0298030607056263,-0.00043739367135095
-0.0363602184753256,0.0222319836312975,-0.0222179819671193,0.00200073669293392
-0.00899009655388914,-0.000943863817632498,-0.0102671092197043,0.00387036917190878
0.013626723444825,-0.0343720329363416,-0.00131214261497841,0.00472993441066299
0.0192746022040938,-0.049304662291055,-0.0017288695655168,0.00432121498470514
0.00926232380666111,-0.0366142883247823,-0.0078942002773526,0.00247376552679327
-0.00680222720904223,-0.00327917358247143,-0.0196100695885534,9.75572667481599e-06
-0.0185305310409035,0.0285684588443857,-0.0329392601115749,-0.00256260172200472
-0.0253162923133562,0.0372285401843369,-0.0364526459600208,-0.00499533787758976
-0.0316221984897153,0.0287532066604985,-0.0271429330211861,-0.00632602853891066
-0.0313030909284404,0.017859989652785,-0.0149301855249279,-0.00606231740837701
-0.0184047414954174,0.0127109102667885,-0.00951992327969253,-0.00475306056869968
0.00263850796675127,0.00818842596000028,-0.00480167544167271,-0.00264369533785778
0.0263001387067661,-0.0182432161147237,0.00607291572244563,0.000718693665627108
0.0491689860460834,-0.0655074514544213,0.0141901309441026,0.00469809156964021
0.0596366068709326,-0.0925973707644323,0.0170103211952664,0.00710481857585464
0.0512044967936934,-0.0688574166721835,0.0217649048449491,0.00712101187296156
0.0409476533397618,-0.0262393166601829,0.0257212088261338,0.00633063461321654
0.0403844026634559,-0.0111599806713192,0.022391933358007,0.00572604795212572
0.0398413196786872,-0.0237843953716374,0.0157551416986856,0.00443640043507035
0.0324374615872012,-0.0404353456091466,0.0126397957077964,0.002282074369643
0.020319199863482,-0.0390949535552389,0.012688112853157,0.000548610545890016
0.00332672322847665,-0.0212491921403693,0.012109048799594,-0.000447808555188076
-0.018679326948187,-0.0054361857521021,0.00687891649712005,-0.00143521617995727
-0.0422705694422946,0.00491897485788398,-0.00363887662823154,-0.00240578928293051
-0.0615612338408563,0.007525826080554,-0.0137787194364078,-0.00277797997188782
-0.0738278918364212,-0.000551694889503803,-0.0175914821173257,-0.002176317309684
-0.0790548369739504,-0.00428142283780621,-0.011873294633313,-0.000306639616696297
-0.0706156326738577,0.00249680266113222,0.00105507294179615,0.00268622464598615
-0.0455856137683952,0.00616843731460018,0.00947546365130721,0.00546040461289433
-0.0130609766822898,0.000486766502260155,0.00966483298621912,0.00705540764006939
0.0150527916136532,-0.00292549472127064,0.00614105328884597,0.00869516370084739
0.0306008008806471,-0.00935659587329975,0.00297512236077005,0.0106462606721441
0.0372552569715424,-0.0340794617469827,0.0076753501395517,0.0113983822798458
0.0392904563021869,-0.0508981814128212,0.0126822350489417,0.0115498975757319
0.0318355369899249,-0.0356683488632762,0.00623878115748853,0.0102624457691895
0.0214050397932927,-0.0221423413656673,0.00257096658426627,0.0036490933423587
0.0234991869725289,-0.0315960055030569,0.012029692930301,-0.00647194244180643
0.0316721623851479,-0.0330720388171195,0.0224810418183985,-0.0142839841570638
0.0247863600265079,-0.0153583288022236,0.0245697011507929,-0.0188691382547303
0.000339875525957399,0.00220982525719157,0.0162202813700503,-0.0216302592250163
-0.0291783233691284,0.0135842244865509,0.00395723197245252,-0.023010236306361
-0.0552753408593337,0.0194423941628018,-0.00268062276258376,-0.0217956922171059
-0.0682333676610495,0.0162232409071969,-0.00464419154394588,-0.0139105911377556
-0.0594130806785358,0.00665959627115091,-0.00207349026566302,0.000826249041529024
-0.0374068985727795,-0.00255619502624261,0.00617219406910703,0.0151773787530792
-0.0186109746022381,-0.00322902487248904,0.0117432754456495,0.0226399326265779
-0.00805905393719593,0.000194847489599133,0.0108312293925121,0.0228898683582172
0.000633283420639275,-0.00630459218982405,0.00638238123268566,0.0187414227290047
0.00882871833172604,-0.0164290646949084,0.00318905342093329,0.0124344392008163
0.0126165587047352,-0.0151362296176796,0.00304102994986654,0.00555832022481766
0.0108464573531638,0.00126595559700346,0.000455187982022775,-0.000557052060837697
0.00681204585084763,0.0192384214008205,-0.00418775294205131,-0.00518945329146532
0.00831709002850986,0.0159907039937871,-0.00389440778388657,-0.00784766634969142
0.0107236122942062,-0.0149181898607317,0.00212076657197016,-0.00840996578406253
0.00100770729028642,-0.0540791336897114,0.00532213005798952,-0.00759639053538297
-0.0197844489400317,-0.0684943721556813,0.000197284624789846,-0.00646325483750295
-0.0452135433795067,-0.054763511673965,-0.00798487709315757,-0.00559272385700613
-0.0588927411427401,-0.0402541803144375,-0.00863094044723476,-0.00522951125604789
-0.0376983550744728,-0.0416331333828022,0.000712478899747867,-0.00497273893687469
0.00167731199547951,-0.0452061804932203,0.00798119933119748,-0.00346333099047914
0.0276235156938728,-0.0272071590018126,0.00749789293673275,-0.00131088635953038
0.0357796848537077,-0.00555826723094872,0.00730540753580441,-0.00141117857305229
0.0262405851470072,-0.00342712607561511,0.00895459189991544,-0.00415448606333917
0.0112995682116741,-0.00382122478665869,0.00672009286826292,-0.0069946764059771
0.00756468347438299,0.000471938899155352,0.00196580871823838,-0.00799541689258148
0.00627489091044748,-0.00269062559737529,0.00138182015158163,-0.00669877247226476
0.00326134142360808,-0.00860453664897652,0.00481720635566538,-0.00343524502751459
0.00800673080079361,-0.000537565559087034,0.0056145427906942,0.00081639469810202
0.0150805803472346,0.0222692554201347,0.00101288690776975,0.00471479002989833
0.0135460315634591,0.0351502880189898,-0.0024558487370908,0.00760497776749708
0.00215424017483591,0.0119761796094732,-0.00105266411745189,0.00962248137358543
-0.0128870979668102,-0.0334218785737011,0.00066913114801328,0.0104891546347703
-0.0200711904864804,-0.0609435852314184,-0.0001420062542686,0.00913054763516838
-0.0197832916644882,-0.0627106874672985,-0.00216623597654562,0.00464254499970798
-0.0226620871503603,-0.0542449214636495,-0.00200204548301574,-0.00358535219368932
-0.0234374358603201,-0.0450984504123548,0.00214274005575459,-0.0140236981142982
-0.0121864979705614,-0.0372613979668333,0.00595768254572608,-0.0202822075367801
-0.000771832483812514,-0.0212421665931207,0.0058700705164679,-0.0167602937886887
0.00145657518404532,0.00192648887731573,0.00212222321981698,-0.00559913684494126
0.00396663075233458,0.00852628438368248,-0.00262081664703216,0.00652167671770064
0.0135313905852727,0.00324260369102848,0.00297976305285234,0.0144000206855596
0.0216315329378561,0.0148619933963569,0.0172904700977033,0.0162163388396339
0.00990675551233136,0.0220600992195798,0.0251693065948018,0.0131355219023795
-0.0191657590915189,-0.00311481687279992,0.0275551155630573,0.0078535586514412
-0.0411775777801387,-0.0285611676698963,0.0314000762320062,0.00265499614072661
-0.0493724038216425,-0.0371108084777671,0.0399489411961823,-0.00151903001645043
-0.0512956224323178,-0.0530643779474008,0.0492036928196188,-0.00382887674285653
-0.0476895725085115,-0.0634051403741463,0.0434914915911447,-0.0028568642986233
-0.0416093355977458,-0.0419475947834262,0.0168046079543295,0.0012412100940286
-0.0388445393372339,-0.00507868311783378,-0.0132701655930016,0.00508928111595445
-0.042137778689976,0.0233701792641632,-0.023016496272134,0.00536669838558598
-0.0407251397724855,0.032711277859862,-0.0124643694058637,0.0031497484029515
-0.0142356311996345,0.0252378354955786,-0.00157000803650743,0.00156070586751082
0.0281779787654776,0.0254762047146386,-0.00124051650739459,0.00106615857483861
0.0515069617634823,0.0397805615778698,-0.0123909049633101,0.000518772065802255
0.0451065112878622,0.041867280822918,-0.03241412956162,-0.000842046383979095
0.0275569407518948,0.0238090785473511,-0.0476039009904145,-0.00429365538939816
0.0236990231072335,0.00492364957061955,-0.0452672345016017,-0.00954713159201564
0.0423165918073952,-0.00725310015574153,-0.0266033325544132,-0.0124075449700216
0.0588507824849002,-0.0240681464412633,-0.00235366389406087,-0.00921239965036561
0.0506008787941582,-0.0441617671679896,0.0141146049171613,-0.0016961523968317
0.0247027987891492,-0.0501684136642444,0.0227642997247556,0.00563489681071321
-0.000719613799887692,-0.03822718356498,0.029758222733718,0.0104377294901743
-0.0128108030816899,-0.0195981120346631,0.0312903560552096,0.012625691007576
-0.012081910700903,0.00306763197167851,0.0290149946021461,0.0119958274211394
-0.00640028791666831,0.0373923170614543,0.0291780670073671,0.00865410407735142
-0.000486046119959026,0.0760427298551655,0.0299615880689576,0.00452520343838256
0.00459222349345533,0.0805144699959232,0.028870212780096,0.00157556092182027
0.00850240985120064,0.0372478387485223,0.0258644151126788,0.000136234824686865
0.00603036547682745,-0.00400291463702622,0.0196942904034565,-0.000165137355701616
9.33873348617914e-06,-0.0133163472466845,0.00986556559394546,1.61796651092184e-06
0.00272465854888392,-0.0179831011478672,0.00148513316705185,0.000183233664848849
0.0147144673731679,-0.0293827721438438,-0.00385734567246014,0.00014274155858456
0.0299482821446481,-0.0292494932204728,-0.00672936770374068,-0.00115647946485809
0.0398254049061136,-0.0138524157458405,-0.00136867049713032,-0.00386701918822781
0.0367643521811858,0.00529916943794634,0.0127312772260952,-0.00576286385999264
0.0262476612176867,0.0300291004982903,0.0229385018841277,-0.00437967864664117
0.0202385835853582,0.0645941413059994,0.0179884120158752,0.000531745250806568
0.0286527183329529,0.0901809572663621,-0.00417411657084191,0.00554729590524045
0.0415125694854076,0.0950872143865549,-0.0491653022559274,0.00468584869378915
0.0378966430909645,0.0887504019092609,-0.105618178190905,-0.00402659853430056
0.0244341236084228,0.0604701531488442,-0.128434786809753,-0.0148896023938721
0.0217254559923199,0.00187607524963945,-0.0961422663448545,-0.0204826296904896
0.0329920618778898,-0.0359836482330503,-0.0465301049114541,-0.0182858387530064
0.044730391824056,-0.0207949419815536,-0.0174664806629787,-0.0103741652489966
0.0393348092662282,-0.00396135110339927,-0.00503608059126374,0.00214099306973774
0.0108571413145458,-0.021784050496722,0.00241141212600929,0.0192294623157075
-0.0242915514068314,-0.0430702681431515,0.00256654474953356,0.0330940575076585
-0.0389442465743537,-0.0410642877135226,-0.00423892207078416,0.0311508096774794
-0.0298415137975206,-0.0199582079590112,-0.0125750380060413,0.0128216739414795
-0.0173032046078751,0.0108514422836022,-0.0172085077850455,-0.00876140426215562
-0.00765867582661352,0.043025617230626,-0.0141602647962518,-0.0210934378295923
0.00380127235006471,0.0624380067737076,-0.00883591285742044,-0.0213931071598432
0.0137614102333675,0.0544077920829816,-0.00951451472494638,-0.0150535248732939
0.0203593640939359,0.0355017395707304,-0.00886805497376872,-0.00849716754925244
0.0202424484816654,0.0334577590500193,-0.000600879589474416,-0.00387621254096372
0.00420643704506363,0.0508051291534826,0.00172106776452197,-0.000343089816808185
-0.0231968895189525,0.0630666609963512,-0.0047812255899462,0.00269146457432614
-0.0414243976910758,0.0392035576514248,-0.0053226674283968,0.00749893133132636
-0.0439436469313999,-0.0043599453518535,7.81456477160205e-05,0.0170775461885712
-0.0472757559252954,-0.0225175299981971,-0.000245851043121364,0.0253625503257634
-0.051957927345053,-0.00352486345385399,-0.00883160615095155,0.0195911396354431
-0.0404304104948169,0.0127384554616823,-0.0181833947069345,-0.00184189720836396
-0.0180409662269974,-0.0178242942195953,-0.0204472849141372,-0.0247676784536335
-0.00331474886235578,-0.0589239690406761,-0.0208561781640974,-0.0338797444534245
-0.000599500632981137,-0.051802655557726,-0.0248385029478502,-0.0261160234348588
-0.00203066325841659,-0.0222110420320209,-0.0227263471676916,-0.0103250142081227
0.00527951855152525,-0.0292774404453802,-0.0146722522344906,0.00308724450871054
0.0209343918165483,-0.050511765745276,-0.0182722530766584,0.010133439681573
0.0246638295640522,-0.0177686281475119,-0.0437767390251246,0.0119130746537175
0.0077173797848218,0.0481460572607076,-0.0734811364762121,0.0103075746059604
-0.0127091619759102,0.0845715253292557,-0.0747547180157267,0.00673010206091679
-0.0190423754225851,0.0929066781824128,-0.0468756864454059,0.00343396772288702
-0.0137022089943798,0.0840157008091431,-0.01549521775405,0.00346976602521597
-0.0128726471216659,0.0492715701890893,0.00403267717841035,0.00738465853179393
-0.0224204708688756,0.0149308427593717,0.00546530847669214,0.0109192405442
-0.0302502780614587,0.0150450633414253,-0.00348410830823688,0.00832566587917032
-0.0350858106904144,0.0461641504504669,-0.00645626231169825,-0.000519633494924324
-0.0435042255911059,0.0661775605985082,-0.000692312505393158,-0.0094411370288251
-0.0426408111110678,0.0191029821272694,0.0105542905095033,-0.0127972441758545
-0.023855238511312,-0.0577788560354952,0.0223555685574266,-0.0100252069307928
-0.00557124794579522,-0.0645327200505726,0.0233140670031138,-0.00453828407059198
-0.00219756704484788,-0.0105470037400013,0.0131258870153256,-0.000367578757294617
-0.00358450968269106,0.0185211722220645,0.00725353797291,0.000536742449831717
-0.00948925860967235,-0.00500430178458781,0.0111170729049436,-0.000282164746563504
-0.0202848896590326,-0.0242134162450803,0.0147211055264124,3.57550138760675e-05
-0.0168247105331512,0.020050370107653,0.00821903242927379,0.00169704497754158
-0.0133722081801625,0.0826127451675267,-0.00394106215282856,0.00222828091159754
-0.0176954218824801,0.0842195995757405,-0.00853365627787242,0.000517499366266994
0.00936021648486099,0.0429147099471919,-0.0100100738572924,-0.00160974122752059
0.0555164388434214,0.0174704428231623,-0.0193261273603585,-0.00279440931977679
0.0681008505159542,0.0189150390053347,-0.0265125238657161,-0.0049215581555558
0.0474288692037901,0.0285984601863585,-0.0156449601807236,-0.0106071908814204
0.0302753420490026,0.0304502584042736,0.00652758768859651,-0.0166039876760031
0.0351674157317017,0.0154244497839359,0.019543666864181,-0.0156102525844725
0.0414240222459647,-0.00261284919956813,0.0189987340265471,-0.00756640959295564
0.0261469361625477,-0.0109713091833589,0.0141498210359619,0.00104416105448585
-0.000779733604245575,-0.0317196404585701,0.00787019712219397,0.00799539576650648
-0.0230417673031929,-0.0419391934745805,-0.00261713822283657,0.017010710469385
-0.0297101992566922,0.00608837470439563,-0.0161982872908985,0.031916690281965
-0.0205373612590204,0.0668516578797435,-0.0251126337738544,0.0452323187582165
-0.00264687736110959,0.0692847342092712,-0.0230360909874427,0.0390011776118658
0.0205739890560093,0.0296888478800402,-0.0134571570384553,0.010371480901949
0.0299507492447804,0.0012731177724672,-0.000760026653141368,-0.0208477184559675
0.0130343940157859,-0.0149430713133793,0.0135682613713319,-0.0363365910601242
-0.024926301428124,-0.0373497747580446,0.0281676271147982,-0.0341566473569098
-0.0713314630795067,-0.0424333588174342,0.0363375664840928,-0.0227741601908954
-0.0937022574280491,-0.0142190652696889,0.0251891562533054,-0.0115225248590861
-0.081847520787836,0.0185145469485221,0.00128384399758381,-0.00473393512278678
-0.0575753695823801,0.0308845474852753,-0.0114359129229905,-0.00166564542075265
-0.0359808916651931,0.0194811342691272,-0.00602188980032125,4.0531422999957e-05
-0.0200640558112219,-0.00229374835510792,0.00361059814738682,0.00253245624996999
0.00477887662712616,-0.0116014391458776,0.00773179904971589,0.00617314249979386
0.0391888888855945,-0.00269509103445425,0.00899608270538438,0.00903516509328406
0.0501413906013792,0.00323929959428145,0.0149736273965735,0.00960753270084946
0.0237653109572981,-0.0101836718274873,0.0298200973739943,0.00915975293839431
-0.00424067608346616,-0.0289662866917066,0.0423304399807185,0.00956525345856342
0.0163670226763896,-0.0401961304585913,0.0435647134156206,0.00966261352278549
0.0891769012901394,-0.0505330006083088,0.04420453146594,0.00719806576892911
0.160475278862639,-0.060240509315174,0.0483644975598512,0.00248139107371281
0.173244676620218,-0.0620217101637943,0.0468625258204034,-0.00253762520149377
0.126778856127649,-0.0611668671870439,0.0395030598704773,-0.00604753513466344
0.0677474389645399,-0.0571895859338262,0.0306558139692127,-0.0072561236079328
0.0250384551730142,-0.0379960995809322,0.023639989705805,-0.00735600668190244
-0.0130170132240994,-0.016718261971863,0.0206479963421155,-0.00764091540091918
-0.0608246641652397,-0.0193166266639762,0.0182693356559364,-0.00699199538495271
-0.107699639564933,-0.0377429340765283,0.0159295658946259,-0.00385200049296903
-0.132281564052982,-0.0467700944692261,0.014016181060898,0.00155572327573288
-0.125311635460388,-0.0404738881603111,0.00882890559139768,0.00763541933690635
-0.101309332269653,-0.020737701633899,0.00260161242927437,0.0116135232474523
-0.0762483657687242,0.00664562014525569,-0.00123414876414582,0.0115238856735189
-0.0478898331345692,0.0296906693430213,-0.00887123956540449,0.0082912374181126
-0.0263153874396163,0.0455985829478657,-0.0191276086673758,0.00378665666468023
-0.029033084541229,0.0498312423229822,-0.0162862273736235,-0.00021558037722931
-0.0327175601693474,0.0339192860182406,0.0032093237983343,-0.0014533176678035
-0.0053445968018366,-0.00444294722753844,0.0246340882595974,0.000759154105311947
0.0447531242740313,-0.054025742482091,0.034691224753612,0.0045511295290786
0.0845609378039181,-0.0871248905478736,0.0309895364239501,0.00766320747567373
0.0904470262965056,-0.0874902959467399,0.0206493463851997,0.00920970427046421
0.0778831448544249,-0.0705493563011824,0.0141537184914371,0.00817132087319638
0.0731978966359417,-0.0602299497292774,0.014352683411238,0.00131944259859126
0.0685245199086902,-0.0497235182038043,0.0135798115100257,-0.0124355110562667
0.0533687446632994,-0.022397040491087,0.00826200793627415,-0.0273001086589072
0.0383497578577882,0.0108385062711136,0.00379698060813911,-0.036297193188438
0.0241085655273228,0.0290075601983587,0.00601579713074504,-0.0380077859568918
0.00139484954034337,0.0271879453599912,0.0133478767905648,-0.0315822092956537
-0.0214247963772147,0.0195773908643855,0.0163145416131275,-0.0144328833615192
-0.0290746254232958,0.0264208104316379,0.0089582916703555,0.00894325324163669
-0.0297276356225125,0.0484493044656085,-0.00504927665592252,0.0273893866073733
-0.0382880382911765,0.0601715162576285,-0.0151080027678698,0.0341352730523304
-0.0471135507411288,0.0497005878153229,-0.0124110686544568,0.0308792998466328
-0.0456364226416157,0.018127824018569,-0.00332381042509834,0.0231786458087732
-0.0396182031844609,-0.0343427727115136,-0.000958944271185468,0.0151734668098884
-0.0351237415915077,-0.0750793977080234,-0.00635340946585746,0.0080421015088598
-0.0303042657899345,-0.0710799089313092,-0.0139393844905494,0.00143225316153309
-0.0253725826705576,-0.0399175763633251,-0.0184835335212006,-0.00483907986694704
-0.0248015208538917,-0.0160386785396993,-0.0174064909281472,-0.0101564765451785
-0.0257795923911574,-0.00697804642496666,-0.0126235192988788,-0.013486122055082
-0.0198035699160015,-0.000709584320016877,-0.00233072286667337,-0.014047493195606
-0.00622319476212416,0.00726548111852955,0.0118189218881401,-0.0117150595549697
0.00881161485116033,0.0234268666186328,0.0186973923485769,-0.0077805950732525
0.0183718513849766,0.0531861764755256,0.0124647615694414,-0.00479433071483228
0.0233852115865061,0.0666224017609579,0.00109832493172334,-0.00431126783859528
0.0339375588295848,0.0427084921570417,-0.00384958704211516,-0.00556357723196469
0.0499696442537436,0.00242958591239997,-0.000475503311258813,-0.00669174566578227
0.062182702017965,-0.0326395478799654,0.00848278457787874,-0.00617139035330994
0.0681913218528408,-0.0462990952668052,0.0188481281196268,-0.00359918704691362
0.0705263167692571,-0.0374366923618829,0.0291100181019151,-0.000110407769571045
0.0615697386164354,-0.032147115495512,0.041468518718665,0.00276494081491316
0.0318336236466695,-0.043720235986463,0.049168309233064,0.0043430723603406
-0.00117292721119946,-0.0492556669124841,0.0442079788691861,0.00457779172262761
-0.0158270666209412,-0.0355372132572477,0.0313299375789343,0.00407879274217987
-0.0178437596807583,-0.0177137006305408,0.0209574232935789,0.00368215409552158
-0.019048313898704,-0.005666070984024,0.0192117500833127,0.00315741172708391
-0.0201361711874831,-0.00955691708853604,0.0250328622666989,0.00176481713105813
-0.0229732977181992,-0.0186704395710721,0.0305566053089763,-0.00013451406964033
-0.0266946997224487,-0.0083603150888673,0.0247714180506666,-0.000918649443131565
-0.0220948913423529,0.00242251051315864,0.00386962132114067,0.000182483588268307
-0.0161059514031674,-0.00750446040783532,-0.01670320094205,0.00194049469911692
-0.0216213535060112,-0.0197996371086976,-0.0220015446831326,0.00367626460663233
-0.0346560558910094,-0.0151826841995803,-0.0283208198543187,0.00572224593259612
-0.0496708914261063,-0.0125307993232529,-0.0500726121766297,0.00649920605929442
-0.0682764541437528,-0.055654591009322,-0.0569099371100471,0.00421432633103354
-0.0892751516167256,-0.131074110212562,-0.0349709977627609,0.000974006585113373
-0.08924244820998,-0.155819721068828,-0.0208899530253551,-0.000566258783086508
-0.0551802351263543,-0.0981296682418661,-0.0272300014737219,-0.00185275522080087
-0.0187050073634204,-0.0157002097299679,-0.0315181001892468,-0.00483138183468811
-0.00358395386948619,0.0468521923799681,-0.0275344554720906,-0.00796561344085499
0.00444624735796473,0.0977287479381845,-0.0193857917079568,-0.00862815903906377
0.0319120701214492,0.137478055864035,-0.00132421285287915,-0.00567378829940629
0.0778338388119572,0.155669115428186,0.0222951111760554,0.00046624137172757
0.0973654712567888,0.160135875228159,0.0339890961941153,0.00740108446370122
0.0678796121621417,0.15440601265474,0.0293127482006324,0.0119144018292529
0.00327660687796762,0.135669485937444,0.0181147932144818,0.0132538002696399
-0.0831955022182086,0.0981219405495004,0.00701690497603773,0.0130746883802659
-0.129536054815119,0.0338577874999083,-0.00331291104990422,0.0115402855073378
-0.0872089601692881,-0.0360240836269326,-0.0142777338945161,0.00741661517780759
-0.016305737499854,-0.0900010227237499,-0.0242839975448648,0.00110975824964871
0.0275247754490857,-0.127117997447227,-0.0322866254772943,-0.00542516983974009
0.0576211123400606,-0.142771415619632,-0.0424505418943457,-0.0111532044567122
0.079594841317497,-0.144519609669848,-0.0485844105793614,-0.0164994498724389
0.0739130189434538,-0.121412409329483,-0.046276846288917,-0.0201863790748973
0.0360511366630501,-0.0552542281143287,-0.0454517047634116,-0.0191484708365436
-0.00819819515866396,0.0156771725736514,-0.0475787352596919,-0.0116187748357557
-0.0319098619189984,0.0564029463425668,-0.0437930324328998,0.00295532270048887
-0.0387129482427819,0.0785710713431297,-0.0324906556218581,0.02346700054751
-0.0448909578295109,0.0953040931178649,-0.0271247403396473,0.0410805831997376
-0.052808605896602,0.104023721350769,-0.0324384768507292,0.0416322789346459
-0.0539023702242293,0.103131289417851,-0.0342771438443144,0.0227734403225148
-0.0418018603465234,0.105369157864986,-0.0290977398274923,-0.00165521641182715
-0.0181357770531933,0.110120037277555,-0.0256099756808609,-0.0174074347699586
0.0129113142078336,0.0906567968236507,-0.0240252870644656,-0.021365593854042
0.0481867809621656,0.0508469136499129,-0.0202326882884008,-0.0183584640481018
0.0759708576178096,0.0227688884796453,-0.0162016494694062,-0.0130128080659641
0.0759039821809804,0.0137085209447648,-0.00996928930230784,-0.00719384459864037
0.0534349769122109,0.0105997957286228,0.0045566230030345,-0.00160995321080303
0.0442708040417586,0.00369144447260704,0.0198015541260883,0.00405525034788049
0.0589376343489259,0.00327789882477758,0.0203528086566036,0.00986290605663327
0.0660011630484822,0.0249601761867528,0.0066384752502529,0.012701100971502
0.0482926992143519,0.0501565222965792,-0.0057872884959777,0.00962442384134572
0.0330200893098684,0.0415594543470856,-0.00870256736171219,0.00308290894518473
0.0373104352494181,-0.0011928222493267,-0.00486493184000511,-0.00243812921792788
0.0376341637616177,-0.0392001925878995,0.0036354770683924,-0.00519979102788236
0.0206340029403241,-0.0514146379946016,0.0170281461784625,-0.00558503900696344
0.00559943642498821,-0.0581956787826167,0.0326211960633806,-0.00457135361973626
0.00474304344183133,-0.0727031984871901,0.0427929275674667,-0.00307895882626204
0.00545284061341532,-0.0754438278394503,0.0438713221434136,-0.0013539822443891
-0.00566949706366402,-0.0569974082373341,0.0392643482099665,0.000830338546481249
-0.0233418762208879,-0.0331935559805551,0.0275334961449491,0.00292500371043679
-0.0337313632706933,-0.0220080865835373,0.00948548143744924,0.0035051164580476
-0.0298682488188714,-0.0165773043950772,-0.00267912182438741,0.0024199100495143
-0.0128258539893853,0.00694938129914991,-0.0061499959941352,0.000945933057129188
0.00688365725197428,0.0324904074964991,-0.00431027135318205,-0.00142231992436927
0.0195184939256519,0.0472911168993372,0.000503747545379649,-0.00543263426148038
0.0271394967442756,0.0642022015989725,0.00140917615407837,-0.00882340719789004
0.0336956883150819,0.0410440152497144,-0.000937126423919866,-0.00949991429354919
0.0360557704456373,-0.0333867329022752,-0.00390006102661639,-0.00835464139259088
0.0330866956229879,-0.0833068686976937,-0.0086710655691729,-0.00683205817787302
0.0244921508965011,-0.0744602259843541,-0.0183265381431096,-0.00461893240199335
0.0044551035914493,-0.028032825209704,-0.033876153228773,-0.00173826639100146
-0.0211849592926741,0.0396160404425538,-0.045577193638554,6.40216497966289e-05
-0.0404267528955107,0.106931688741525,-0.0488825622224923,0.000294217618934949
-0.0561703965180672,0.153983637050447,-0.0446384770110661,0.000898006944255558
-0.0662578057321028,0.169741661891787,-0.0189332147620672,0.003997126431007
-0.054794963683366,0.123236000712928,0.0274567831194202,0.0102249266936464
-0.0230667308749194,-0.00863039488120265,0.0576792976350062,0.0170001579103693
0.0089433477852453,-0.164757333084291,0.0508070080181192,0.0182006570029817
0.0231824967446262,-0.209589469032294,0.0237098298406154,0.01001226853546
0.00801842407450542,-0.11095954754058,-0.000236808949319468,-0.00316731197252272
-0.0261771344942345,-0.0138166309048705,-0.00244089503361675,-0.012657891804705
-0.0579716108544627,0.00466894210416779,0.0117567201001711,-0.0141981357422046
-0.0812925822646941,0.0266489938402182,0.0111949600627985,-0.0121085664994393
-0.0855254721939923,0.073045074714298,-0.0105629031330933,-0.014351645403764
-0.0633531831406973,0.0867243163027043,-0.0282322188357015,-0.0204933551206815
-0.030680065061125,0.0799984668739036,-0.0283001112048254,-0.0209063672280027
0.000735320676372553,0.0920532200944127,-0.0190105383668954,-0.0109195022690138
0.0251992461532415,0.107558666595709,-0.0132903971948007,0.00356732684437367
0.0325850492113769,0.0979906050644596,-0.0149824475764285,0.0142083467533949
0.0298490915527433,0.0690011898664021,-0.0181346812690306,0.0172412329790529
0.0294587587883682,0.0415540987810252,-0.0179113786795392,0.0141002916791991
0.0307617742250427,0.0232838857774241,-0.0152279256981584,0.00850163262898116
0.0291253642197839,0.0126005975600967,-0.0124826351912637,0.00359128482245218
0.0221690986443468,0.00527378224256136,-0.00821284419291776,0.000978381584250362
0.0200742051213504,0.000472571677436451,-0.00157545381535112,0.000749853463006235
0.0254784850532038,0.00444372286974111,0.0031985245206385,0.0017425052382422
0.0252648303545468,0.0150359713394891,0.00323053652604809,0.00212632005003197
0.0156237542246442,0.0199316244376988,0.00157116064172111,0.00091194718459935
0.00254409493367413,0.0202440111564387,0.00500462673995889,-0.000775287662151709
-0.00434120091826342,0.0254813979787832,0.0137435589484319,-0.00102595367627662
-0.00453451021595988,0.0277285345107127,0.0199431738728937,0.000346415818148226
-0.0013491718659314,0.0199353807587759,0.019567231443667,0.00152216043526526
0.00870048173148216,0.0109474064451709,0.0154835381946144,0.000977845879003617
0.020041026721909,0.00282804904999407,0.0113040146358314,-0.0010688441204772
0.0296588276342298,-0.00506672292933227,0.00626001590665893,-0.00336969689256276
0.0347962323145958,-0.00245306751736157,-0.000270347534896541,-0.00489767918793205
0.0156025615788424,0.00906808737122929,-0.00531012361682764,-0.00523305970135074
-0.0331925384375721,0.0118004914103764,-0.00632316223622182,-0.00419495371311665
-0.0859543462854038,0.00448496179093422,-0.00280165567411141,-0.00213550272276846
-0.128026351299715,0.00162107774492451,0.00417965623797609,0.000107896789067613
-0.149890303501291,0.00316135124294261,0.00990442416886826,0.00250336250837144
-0.121885276163489,-0.00918168884483789,0.0111252918055373,0.00611139214632876
-0.04793195386633,-0.0398121230306068,0.0104892586105293,0.010648602043628
0.0278670586329675,-0.0624907348009401,0.0126502740607741,0.0128374606474226
0.0679485395225247,-0.0534918774321223,0.0167321214701134,0.00999746997274807
0.0682262686238667,-0.0246431090089909,0.0173337656924373,0.00460911093220906
0.0590892433492061,-0.0108377437928216,0.0193907620608863,0.00242297140741082
0.0620550650732246,-0.0199745619417453,0.0218530368696324,0.00470973732602408
0.0677970065536542,-0.0234564962083806,0.00953049059247263,0.00458741617070655
0.051121063969593,-0.0102210825084816,-0.0113994323337788,-0.00439749284933113
0.0161411279714289,0.00365508801943303,-0.0164551651794098,-0.0183175152238434
-0.00285472599721651,0.0141858337993724,0.000845107924730627,-0.0278908114953405
-0.010505258903606,0.0165249681265955,0.0222194459768603,-0.0282417910414455
-0.0270595622048225,-0.00134161801926269,0.0231799128731355,-0.018426378485116
-0.0564908334931121,-0.0299741025908755,0.00414337240466139,-0.000958032549094205
-0.0930727324467985,-0.0559003292833583,-0.0138959229249187,0.0176157872222566
-0.0987792973494382,-0.0677045900172723,-0.0217709487652615,0.0280233371361017
-0.069649529867938,-0.0561999498809859,-0.0189571109727699,0.0203318513802935
-0.0429483601798217,-0.0275338216151527,-0.00830735766551184,-0.0026995816505315
-0.0177054724498848,0.00270463857217357,0.00793651034073116,-0.0214043415610154
0.0103919871701244,0.00991396683430032,0.0266030789677609,-0.0205735068951064
0.0312496592035798,-0.0111762634270655,0.0326127995063667,-0.00458413461793545
0.0460248197117751,-0.0327330330849381,0.0243331884370449,0.0122581745371961
0.051641170184513,-0.0328475675405228,0.0140644262264127,0.0224394835953268
0.0447669692343224,-0.0187529668973904,0.00609844477262324,0.0282124600256281
0.0297336334716894,-0.00786016293745191,0.000496910280964588,0.0291947342427311
0.0088683846874627,-0.000962699994205334,-0.00399840248737146,0.0181502312747574
-0.0298840866994439,0.00605521481547685,-0.00623058216438245,-0.00555471962436541
-0.0786793795268323,0.00840844051000919,-0.00487633754850777,-0.0301347430327295
-0.0894595485384483,0.00550013354156467,-0.00251198847844844,-0.0419157654650577
-0.0543363298625112,0.00203580255981535,-0.00152340949429671,-0.0366167655791918
-0.0203148228299183,0.000706347624348193,-0.000729775590472512,-0.0211616783366216
-0.00412354535092924,-0.00181826330608969,0.00171569377796094,-0.00570976460045943
0.0140758207895616,-0.0068049611392881,0.00517143728682788,0.00448072412835814
0.036663564312539,-0.00936728512704409,0.00994259932101192,0.00951727112629102
0.0477033570686173,-0.0143147325271945,0.0162578032358765,0.0112060159587157
0.0456894811784937,-0.0253880907905701,0.0195876858827475,0.0109793481698501
0.0462929062993387,-0.0301056251228829,0.0165878742408774,0.00951581197864091
0.0574927352127765,-0.0274797013993137,0.012755422181783,0.0069950104275431
0.067733924389849,-0.0276743581641727,0.0142440714097661,0.00406667204228134
0.0554946030182621,-0.025429859217502,0.0166401494191506,0.00190778395684717
0.020166499191632,-0.0197178948624838,0.0150018828646112,0.00115909417060264
-0.0122068757865009,-0.0207187800859505,0.0136492117008258,0.00166218533894065
-0.0247510807048336,-0.0304269453075181,0.0145963137610064,0.00276220800107664
-0.0165844110068136,-0.0411367514084687,0.0145431906017189,0.00394676335477293
-8.26184799027317e-05,-0.0437693301053125,0.0134643233876582,0.00479672565160594
0.0104399150133639,-0.0457412931952126,0.0142390751067276,0.00446712793082769
0.0151649960285781,-0.064037461508171,0.0169931348263063,0.00274552167410085
0.0163804253120213,-0.0896814566433711,0.0160020365991571,0.000194673518608884
0.0136357586790168,-0.0948269474992418,0.00704651596537948,-0.00305192914857184
0.00859901344126304,-0.0860063400902449,-0.00427873636704735,-0.00898753403062853
0.0067715998731863,-0.0976073746339753,-0.0085837496705314,-0.0201332233842211
0.00518120348570048,-0.114746325513783,-0.00438809220511908,-0.0312017864418221
-0.00534088377334368,-0.0914100803348239,-0.00170719006207382,-0.0306177664465087
-0.0171263117454605,-0.0334937883561764,-0.00518830222347937,-0.0156053781982204
-0.0150997044725854,0.0226396734739172,-0.00537255801319595,0.00531254294433094
0.00328434666731955,0.0499194318208472,0.00164096784823947,0.0237740549691232
0.0244717325104705,0.050743915244202,0.00682400429810025,0.0353861331875174
0.0294883576484994,0.0630758960109649,0.00474458373145437,0.0369449896389879
0.0210901483294573,0.0951488372893786,0.00260060935204467,0.0282744950493494
0.00696748438926343,0.116899516646702,0.00704155129915341,0.0144339764402741
-0.0188229705022615,0.0993076156105807,0.0141534717389929,0.00200045442596014
-0.0360467589483045,0.0278395443882106,0.0170532567302837,-0.00569975756576051
-0.0152818008698338,-0.0646399864367566,0.0145206810428967,-0.00897253413889301
0.0208239508653691,-0.121266981139096,0.0129086564706103,-0.00971906104130773
0.0344920077239715,-0.124486335274575,0.0188042439806058,-0.00935970446070475
0.0322180557952052,-0.114095270504676,0.0311952095551721,-0.00783368470651426
0.0299566522028147,-0.137674099891382,0.046159160782837,-0.00406304938381731
0.0252646310596349,-0.172899383356875,0.0523902351541402,0.00189751513783171
0.0175697393975488,-0.16525439063514,0.0375858359887405,0.00614292652347277
0.0150551304569813,-0.09478893412493,0.00920543354971161,0.00378995633715745
0.0220410296956519,0.020467787765434,-0.013104274043766,-0.00494989642514975
0.0305221917463009,0.108897362956102,-0.0133730158578806,-0.0146169706150812
0.036771792521653,0.106443025049648,0.00816245504182228,-0.0184579272332605
0.0374579532011398,0.0557482120287036,0.0310572795835873,-0.0124320330002965
0.021426091965439,0.0408969636126401,0.0361558394319094,0.000527480219625388
-0.00617539254632303,0.0654584510027045,0.0277239074496215,0.0117724842156928
-0.0231875872647973,0.0694140210097272,0.0217681065373035,0.0154489327721968
-0.0187835429727529,0.0332907750219474,0.0221760743487141,0.0129492912188792
-0.00431234157699876,-0.005126768944529,0.0201844069360215,0.00860035018278368
0.0116101593311464,-0.0263435374921205,0.0159784318678704,0.00535971798181125
0.0301383792534412,-0.0287363342165756,0.0214214562340617,0.00449268896432934
0.0446764694234267,-0.00351486173835295,0.0260804956468181,0.00559909167898685
0.0417184999836387,0.0469696368379729,0.00726285682058568,0.00665837652372536
0.0209551813381087,0.0957338992799864,-0.0240778372329607,0.00533172781209832
0.00591777552605221,0.108531939832474,-0.0385653899786368,0.000615392251842967
0.0122884139988561,0.090943297732193,-0.0251826526228755,-0.0060860677151914
0.0243496222349399,0.0748522660925611,-0.00304555741044153,-0.0111515714897682
0.0285915127868074,0.0638066825691494,0.00600661713399361,-0.0113923833159301
0.0287210770061621,0.0426010674661043,0.0102327030859361,-0.00705107643453667
0.0206478662254709,0.0171918188892408,0.0162998925611014,-0.00124123066527715
0.000635602426625957,0.00188851756706535,0.0170935801426775,0.00336732292394421
-0.0190912962081325,0.000648585399104028,0.0121017837293894,0.00645705696172747
-0.0243710934474255,0.0173661274924584,0.0024626607233165,0.00812411338802752
-0.0157425808189993,0.0441394036925116,-0.00341594423629169,0.00740103363093461
-0.00231478036523418,0.0543563916057258,0.00228603744002527,0.00400448713356757
0.00963155017101361,0.0381162421673727,0.0121105701454525,-0.000397141730648332
0.0173020837701795,0.0191812422689134,0.0174269580537711,-0.00352489635459068
0.0260007684212416,0.0142815762278922,0.0155321814762361,-0.00455683258085706
0.0411956327332582,0.0146983663093457,0.00996387109554958,-0.00428719965877961
0.047919687671271,0.0143008410029974,0.0094922124803021,-0.00361484063941796
0.0273427069701433,0.0195550892134412,0.0149572175027743,-0.00279499303516158
-0.00160927100116037,0.0264808248524026,0.0204081491908283,-0.00232861098150222
-0.00575590501538886,0.0244627823084424,0.0232339720339004,-0.00288064334760443
0.00492385142156923,0.0186680960576841,0.0222516265239225,-0.00405240538688052
-0.0002101265254238,0.015508174950818,0.0175571941727794,-0.00432069409072217
