0.0329676774739281,0.00170845287954921,-0.0155473043855308,-0.00268658222592011
0.024837032557789,0.00157866462165798,-0.0116888892449569,-0.00150237729981577
0.0205839850395238,0.00420730707549437,-0.00757619635878523,0.000979934487042383
0.0154084612344767,0.0129120749401569,-0.00314043283206449,0.00276999603053515
0.0076444707447378,0.0226113298624522,0.00185057623188789,0.00297775945142959
-1.4684743350063e-05,0.0249005098657301,0.00489669953326901,0.00225758901415254
-0.00268457149518337,0.0225900130136129,0.00430979409216736,0.00143867784193946
-0.00436386173041931,0.0208931283710906,0.0021918299139703,0.000810364523715864
-0.00956516846855083,0.0158366563210425,-0.000504092905559992,0.000399807633293214
-0.0128561537477703,0.00630920616927771,-0.00424541281336362,0.000132179409208997
-0.00521620328005866,-0.000241087314882156,-0.00888568477944935,6.14229301180158e-05
0.0144908844200192,-0.00260433077043869,-0.0125439931936139,0.000329432366731573
0.0348483123065463,-0.007559451362334,-0.0125324440406741,0.000459623419915523
0.0429189691827978,-0.0111621196163483,-0.00840416230948545,-0.000208432193521374
0.0357085998349227,-0.00799141872997981,-0.00425079390035302,-0.00163177435578329
0.0208161013024099,-0.0032280119883406,-0.00350133894630334,-0.00291118002468051
0.00335824293239885,-0.000254688488308828,-0.0034820908303921,-0.00315639608057871
-0.0133277276819436,0.00182970192056071,-0.00317759980722721,-0.00226983536795812
-0.0167102760195622,0.00363019445253643,-0.00530692952857373,-0.000525406267220301
-0.00435929984427713,0.00502700863465857,-0.00938450366008893,0.00171357730565089
0.0131253019572128,0.00595879823723541,-0.0120983974611215,0.0034717220870238
0.0263014290017292,0.0064940942747647,-0.0105912889076026,0.00339214610657795
0.0271084991950676,0.0066950733694412,-0.00667507599676806,0.00120391897470411
0.0153517129341013,0.00660359330256916,-0.00491019247016484,-0.00166416681715816
-0.00647193772330229,0.00626304842884897,-0.00648422605658065,-0.00302301585806954
-0.0344921131467964,0.00571946495008375,-0.0084894612110082,-0.00207640230589373
-0.0575030949783707,0.00501666113865513,-0.00844969698708127,-6.08037217632771e-05
-0.0660179744757019,0.00419517070239291,-0.00677040547774524,0.00159263278514453
-0.0599381161574457,0.00329237766996955,-0.00346897073607643,0.00218371928214312
-0.0420122007110355,0.00234218733797266,0.000805005327825119,0.00177697382344022
-0.0191396474033793,0.00137465628856342,0.00358146066208056,0.00083819982218175
-0.00485568007138143,0.000415852532008949,0.00456510143795182,-0.000517908014431408
-0.00386500383480595,-0.000512144133211168,0.00705333931894735,-0.00202241316508984
-0.011887735819233,-0.00139116591299301,0.0114548396379409,-0.00291650249011336
-0.0252970049488616,-0.00220680746692891,0.0152146918282412,-0.002684558845565
-0.036323967005696,-0.00294820952169015,0.0171868711114942,-0.0014030102446406
-0.0367185823401615,-0.00360779204349009,0.0170856548484256,0.000308739721926619
-0.0299528849765065,-0.00418095167625245,0.0149175357434793,0.0016951358965385
-0.025384595143357,-0.00466573523847146,0.0104039852114777,0.00239057752466282
-0.0235272184017788,-0.00506249998682425,0.00448475139730365,0.00246531516995564
-0.0194774358020106,-0.0053735703767537,-0.000640186433024506,0.00210151648818757
-0.0121551197549156,-0.00560289970507373,-0.00394557563854931,0.00138936158070178
-0.00439605465432121,-0.00575574364453617,-0.00543088488793534,0.000628974084723604
0.00249784075518086,-0.00583835139409723,-0.00449908129743292,-2.47398974047015e-06
0.00929096247226742,-0.00585767894392675,-0.00208964055535697,-0.000726698562713931
0.0112533357560612,-0.00582112779595998,0.000730756699219057,-0.00114557759184918
0.00655552048772505,-0.00573631141347597,0.00454198300445768,-0.000620965770059204
-0.00101997105675354,-0.00561085071004792,0.00774568709619738,0.000293001330152722
-0.00972829508838187,-0.00545219903524219,0.00638544768752521,0.000343130283827264
-0.0170631019777331,-0.00526749637441557,0.00367537193327908,-0.000836137611605512
-0.0228451028850542,-0.00506345185375684,0.00570159532468666,-0.00226508812121701
-0.0263151891059384,-0.00484625312719941,0.00912434273776645,-0.00291677400306216
-0.0241652072532808,-0.00462150081442517,0.0116407232294504,-0.00273285625611153
-0.0210625328027664,-0.00439416585271472,0.0132775502853893,-0.00211428512948717
-0.0225235376363865,-0.0041685674121982,0.0130067566594754,-0.0013417699692168
-0.0262267330831245,-0.00394836889546351,0.0118659504570676,-0.000488886045972657
-0.0275922042418602,-0.00373658948917218,0.0115691923088597,0.000377078323399676
-0.0264699793065857,-0.00353562874756156,0.0132292603549055,0.00117673523403158
-0.0255105930013912,-0.0033473017557524,0.0119799794328959,0.0018495754519364
-0.0232024751604576,-0.00317288253492363,0.00686003050973877,0.00227176958521708
-0.0193019218785753,-0.00301315350239783,0.00397293484100138,0.00234318618182851
-0.0188493123749639,-0.00286845897870288,0.00304164854936202,0.00183212069395963
-0.0184243434962221,-0.00273876093258047,0.00182609235988351,0.00062841803894124
-0.00993982617321918,-0.00262369536625848,-0.000621602970120766,-0.000679004049232375
0.00325800580434726,-0.00252262796049873,-0.00359755471108828,-0.00137024185410189
0.0131349128724137,-0.00243470781610697,-0.00388419649543749,-0.00145828952411463
0.0153963170288518,-0.00235891834086314,-0.00282573277932918,-0.00132573756468094
0.0129593894878488,-0.00229412453398595,-0.00223912406850279,-0.00118935997044415
0.0119553337600209,-0.00223911611103135,-0.00351542197060394,-0.00100349757840265
0.0141619160444526,-0.00219264608794162,-0.00768654474399746,-0.000666012161421492
0.0154091317084443,-0.00215346460198008,-0.0123500079959573,-0.000294443786285241
0.012448159060971,-0.00212034788831205,-0.0182315431514975,-7.93078986722811e-05
0.00901969681526835,-0.0020921224533947,-0.0247851851789649,-0.000143902185208598
0.0100737090560519,-0.00206768459008609,-0.0291348229267873,-0.000328571173221664
0.0150860046359213,-0.00204601546470533,-0.031310869364141,-0.000424193764104364
0.0196012945635654,-0.00202619207402183,-0.0321803062611409,-0.000465934169143702
0.0237338408949314,-0.0020073944212187,-0.0304187944446963,-0.000415000351362056
0.0289336911172244,-0.00198890929560054,-0.0240400227126691,-0.000203714128967596
0.0346188489411319,-0.00197013106252775,-0.0183694015444379,0.000294362038470278
0.0413179580579195,-0.00195055987937797,-0.0168308767987698,0.00117891714919256
0.0444715628443624,-0.00192979775178942,-0.015396417346805,0.00178447906208178
0.0358624691531476,-0.00190754283364474,-0.0127412608650277,0.00131324216053762
0.0109048878381186,-0.00188358235583936,-0.0103175211421337,0.000132287199160698
-0.0179030127955986,-0.00185778454432589,-0.0100374917393376,-0.000754353507745001
-0.026971624996251,-0.00183008985869714,-0.0132898763611583,-0.000770837046116617
-0.020416427635694,-0.00180050185002954,-0.0170883732510911,-0.000216076010939164
-0.0189188805571884,-0.00176907790206931,-0.0116027166873237,4.73070702759723e-05
-0.0234490887714001,-0.00173592008417608,0.00490661605844449,-0.000730571145466461
-0.02528165881495,-0.00170116630876548,0.0162356020228696,-0.00216743128204652
-0.0242587886816955,-0.00166498195105571,0.0153309476650209,-0.00262826115997991
-0.0255553442665556,-0.00162755205548393,0.0111796187700537,-0.00133502307393576
-0.0278945129368214,-0.00158907422170643,0.0060835022189327,0.000657197100102546
-0.0237763349043888,-0.00154975223409715,-0.000523310456519196,0.00199631087223882
-0.0145113862386441,-0.00150979047241254,-0.00555054339596496,0.00234440992912979
-0.0118449483033839,-0.00146938911797734,-0.009071889348514,0.00224526159542325
-0.0167562444413109,-0.00142874014950158,-0.00975834987707239,0.00210378552282399
-0.0135823024540073,-0.00138802410545043,-0.00666352867095987,0.00162641846147445
0.00517294708964489,-0.00134740757574508,-0.00378003010572321,0.000740967068778624
0.0217427407640965,-0.00130704137430185,-0.00213708277351617,-1.3595705642646e-05
0.0185573107031413,-0.00126705933541846,-0.000965153049900209,-0.000547709792299091
0.00286983806610665,-0.00122757767101747,-0.00117455344229546,-0.00122069703320298
-0.00530564800604554,-0.00118869482211021,-0.00217386613044424,-0.00169984500212121
0.00425358439059552,-0.00115049173620537,-0.00345953387064058,-0.00114425314599631
0.0188739581488315,-0.00111303250258095,-0.00501849272039192,0.000462708240914061
0.0205567944658788,-0.00107636527902469,-0.00422878816698844,0.00197225471874181
0.00466342715670063,-0.00104052344664212,0.00271641618667833,0.00213684172761562
-0.0228723067330399,-0.001005526933311,0.0151018931683988,0.000448194669424914
-0.048599690113574,-0.000971383651130502,0.0263327405647003,-0.00248123795706937
-0.0638240251984646,-0.000938090998539792,0.0307958412138948,-0.00500438557340627
-0.0696090082282765,-0.000905637383463489,0.0285791011737655,-0.00568691384704226
-0.0643208991352307,-0.00087400372968562,0.0230159013992641,-0.0041929765972485
-0.0456704778824314,-0.000843164934525247,0.0184682296632796,-0.0014071394311809
-0.0222271676360254,-0.000813091251628857,0.0177719905329158,0.0010149804954037
-0.00735790996118936,-0.000783749578204881,0.0195722414315673,0.00214531201952523
-0.000940302954119899,-0.000755104631200377,0.021890706558887,0.00219729370667021
0.00587320505304684,-0.000727120001719141,0.0217555818005355,0.00128004847651526
0.0117609615131592,-0.000699759081290132,0.0171745399407784,-0.000270200686731666
0.0129114358738256,-0.000672985857476141,0.0111498904010996,-0.000931093288911691
0.0121618246382736,-0.000646765579630679,0.00733175790484965,0.000112295037226441
0.00972550307233936,-0.000621065298489733,0.00696916701303907,0.00168375946469952
0.0052343986152173,-0.000595854285598155,0.0054011496089362,0.00238839842474866
0.00373867577541978,-0.00057110434047302,-0.00202576291767259,0.00195854761660671
0.00608326188660158,-0.000546789994803332,-0.0118254156399232,0.000819549183755242
0.00564344242814662,-0.000522888623995275,-0.0185948927547074,-0.000498756644681496
0.000908758976722586,-0.000499380476991839,-0.0207570208981232,-0.00150449426406574
-0.00213897632578639,-0.000476248635572614,-0.0207301556762628,-0.00206848963495631
-0.00068005184497845,-0.000453478914326904,-0.0210282711106299,-0.00226118011382234
0.00606021654516606,0.00801275410955192,-0.0203225354568904,-0.00209775060536568
0.0177107893553326,0.0307389990662428,-0.0188065133973198,-0.00172731267709773
0.0246643431950854,0.0481928342054056,-0.017546124858947,-0.00128311612777763
0.0242061249008767,0.0438500989066616,-0.0148138073189078,-0.000852854065511091
0.0234197214024528,0.0271116318371282,-0.0114538129171987,-0.000425192631791558
0.0194666203334282,0.0104758342219732,-0.00966336600187419,8.87511427990008e-05
0.0138012732563361,-0.00693760979358143,-0.00839903057501228,0.000586385094606583
0.0130773761369759,-0.0214834688014222,-0.00651064003625458,0.00097045412045765
0.0101332779051277,-0.0208837014600596,-0.00457824544264983,0.00102830775686397
0.00158161711446202,-0.0118737699987173,-0.00319820415256326,0.000668417407729677
0.000136919851338655,-0.00621180913492136,-0.00226019208985778,0.000329958702975061
0.0152935325054923,-0.00276316596525171,0.000573101737890036,0.000364384401325667
0.0430338133834024,0.000488764677019016,0.00510658525482305,0.000729490864944498
0.0642392472844519,0.00336706003658443,0.00817695072717633,0.00122803791879744
0.0594263335379231,0.00555816832066602,0.00875280189980675,0.00158948572421837
0.0284127460681737,0.00713649252416858,0.00731556165777103,0.00161723639856814
-0.00904791618499461,0.00820891959724506,0.00472698482738593,0.00141283075472991
-0.030272540963332,0.00882232799094812,0.00138057184450745,0.00105668157309622
-0.0322566052898909,0.00902224176274183,-0.00192378758582717,0.000323983321326575
-0.0249156056817539,0.00886662271671912,-0.00555927533740158,-0.000973453379614758
-0.014685671051427,0.00841399233329899,-0.00978903027786784,-0.00261721837547159
-0.00269238868965871,0.00771950393870759,-0.0119858591275536,-0.003855423345312
0.00753319886368861,0.00683567221398275,-0.0122181233754381,-0.00372108627849506
0.0104698232265499,0.00581198702750445,-0.0124601480339648,-0.00192065517083899
0.00577011597315881,0.00469396457399902,-0.0139987300509135,0.000582494150939275
-0.00162881424216335,0.00352261045590073,-0.0152224069327021,0.00258409660621551
-0.00775890778813591,0.00233418163803647,-0.0122443129433746,0.00354084849135192
-0.0101383665117735,0.00116005991703013,-0.00680726146636941,0.00340569604633443
-0.00726457957593222,2.67348597661737e-05,-0.00293823107273561,0.00239567465984932
-0.00209921350060919,-0.0010440936544403,-0.00141102083196549,0.000707727753053715
0.00511980050382687,-0.00203531491101757,0.000947052185688808,-0.000964649693495637
0.012478331983777,-0.00293413204692025,0.00586231479126912,-0.00172199363803492
0.0154050635851403,-0.00373172875477754,0.0102825233188016,-0.00164861521150237
0.0172223273542651,-0.0044228932747379,0.010939361776263,-0.0016947830362149
0.0191942407988896,-0.00500561451474305,0.00762486363000293,-0.00218454767060437
0.0132207388882862,-0.00548066369578829,0.00522962359572858,-0.00200835307104603
0.00191695392436636,-0.00585117316667056,0.00642826948716459,-0.000731606464640149
-0.00260536385750691,-0.0061222223954589,0.00873493401800876,0.000623861114009454
-0.0025321286319937,-0.00630043955296717,0.0108183751980957,0.00145658807654412
-0.00387766451466078,-0.00639362552858317,0.011656429249751,0.00183516166955008
-0.00456475704906825,-0.00641040571003057,0.00955086116180514,0.00202443753899262
-0.00337886047602438,-0.00635991345068297,0.00571052971502186,0.00223278963548982
0.000700468605034121,-0.00625150785581181,0.00375788044468155,0.00219031789869925
0.005907964338873,-0.00609452735370501,0.00232980214606217,0.001428882824034
0.00897352207029285,-0.00589807948757506,-0.000735910610578767,-0.000202190874799838
0.0114031149609441,-0.00567086647371965,-0.00255764148119854,-0.00213336111342334
0.0123158263837559,-0.00542104532058568,-0.00219920124878545,-0.00336202019578415
0.0130464898305507,-0.00515612068898289,-0.00288561498545464,-0.00367039506420228
0.0163906272600145,-0.00488286819001533,-0.00615521891851501,-0.00346641253783773
0.0180120475902615,-0.00460728545637276,-0.00924372413190381,-0.00266096166110588
0.0135949766559872,-0.00433456807492909,-0.0102128189249645,-0.0010800997097021
0.0046168903780217,-0.00406910732332727,-0.00905225696687472,0.000857121338128129
-0.0082401095990494,-0.0038145065988763,-0.00537103595207169,0.00254256840087742
-0.0240001009344296,-0.0035736134526605,-0.00127471256376024,0.0034086753354112
-0.0312302376909973,-0.00334856423327709,0.000518792461968979,0.00303384863427025
-0.0260994352031687,-0.00314083849127303,0.00103994059054008,0.00149243646483456
-0.0198280637143504,-0.00295132048578747,-0.000398980784019357,-0.00058656294585282
-0.0147478530111766,-0.00278036535841274,-0.00321321465629925,-0.00185243878346147
-0.00261132537495997,-0.00262786778599788,-0.00386682057582172,-0.00144588875460866
0.0154784918501066,-0.00249333118497703,-0.00585077021836997,0.000136017177097581
0.0276327174885268,-0.00237593580687159,-0.0122854093377398,0.00186589094691586
0.0294670890701186,-0.00227460433080789,-0.0177963292100143,0.00276925124429669
0.0266516611746469,-0.00218806381834461,-0.0180500727271659,0.00271744282454743
0.0177648244341871,-0.00211490314359623,-0.0139417160881233,0.00220215563460699
0.00118300751585829,-0.00205362524366567,-0.00916039165521598,0.00168241134541503
-0.0111902279130891,-0.00200269374772154,-0.00428875182436665,0.00143778116547381
-0.0141441055517052,-0.00196057373549495,0.00176994151063843,0.00128106467702064
-0.0129520457427425,-0.00192576654621487,0.00484816037790507,0.000989514277598121
-0.00935028860627496,-0.00189683870631239,0.00408871310604709,0.000611424598307516
-0.00330916217253872,-0.00187244516863698,0.0022908640366919,-0.000131369216228961
0.00368251612025039,-0.00185134715785343,-0.00102862726660076,-0.00110348930353671
0.00908556511522854,-0.00183242499712344,-0.00622158528730813,-0.00107464105783168
0.00844788466175419,-0.00181468635136859,-0.0113032169612792,0.000422961388373667
0.00634069750785147,-0.00179727036391544,-0.0132486201919648,0.00227402999671783
0.0172419804244472,-0.0017794481879398,-0.0117473794369767,0.00290808148001743
0.0361556477288957,-0.00176062042370333,-0.0086743681073232,0.00177040742602742
0.0452983270274002,-0.00174031196910274,-0.0058716898530623,-0.000175629162560722
0.0475667859282371,-0.00171816477648069,-0.00384533066543643,-0.00176384228294706
0.0519408606139868,-0.00169392898496106,-0.00295553963032538,-0.00235237642809426
0.0567432585568431,-0.00166745286656067,-0.00341936623524318,-0.00188383230351578
0.061094586896296,0.00582139653429891,-0.00410530525610107,-0.000831568609239456
0.0607514138229195,0.0258502068625168,-0.00588025525585637,0.000327118864833683
0.0467485432104921,0.0422077190406534,-0.00772200241475985,0.00136858914454529
0.0203023029862221,0.0398907457204247,-0.00928697426440325,0.00220764629262948
-0.00555113285286096,0.0217552042183314,-0.0116565263645592,0.00274916073951291
-0.0230093259279965,-0.00420846131693108,-0.0132714933267293,0.00290188934150173
-0.0328396904520981,-0.0222007659906849,-0.0142405111195381,0.00268028346406821
-0.0329817698397609,-0.0209877969100642,-0.01516302502123,0.00218333395873714
-0.0232643521190215,-0.0124499472656385,-0.0135125346581035,0.00147920943574139
-0.0109431530867316,-0.00777610737173281,-0.00627470951690035,0.000527316547671691
-0.00123396553062761,-0.0049551061390553,0.00617384842288345,-0.000787716759189106
0.00289694234999902,-0.00207693963394259,0.0169066149088951,-0.00197487345538033
-0.00251412944067689,0.000519690868265667,0.0180550052521379,-0.00220524663295439
-0.0145730396279653,0.00252620118642721,0.0119380366498429,-0.00163093841892212
-0.0210758347695699,0.00403014015346222,0.00530089995585455,-0.000946034931351576
-0.0145428170623289,0.00512217888421504,0.00232376095131208,-0.00042130639890859
-0.00270843937586711,0.0058312745638559,0.00351231022167061,-0.000183665255861016
0.00174860608163638,0.00619016444214698,0.0040168686316366,-0.000389643496032309
-0.00387411814523766,0.00624475619342157,0.00167812641741914,-0.000775196768425779
-0.015935666145852,0.00604135849741608,-0.000232920881689518,-0.000782968638040635
-0.02892843593889,0.0056237324457643,-0.000885148292254355,-0.000508219328033987
-0.0328535223678607,0.00503414409325152,-0.000721474304976672,-0.000580723768596082
-0.0256093183167702,0.00431293034173255,-0.000296352626757906,-0.0010196456951682
-0.0163581587208798,0.00349756902259565,0.00158291470403427,-0.00125446765310192
-0.0130238835802561,0.00262218382598768,0.00650522406881186,-0.00122466092248735
-0.0149500859981649,0.00171730105103704,0.0100129871188674,-0.00130924552605848
-0.0196750885999614,0.000809683569261009,0.0115664899116587,-0.00134370897566909
-0.0291368068244491,-7.77429019064805e-05,0.0143373505398003,-0.000953273391583435
-0.0409974321315482,-0.000925858292851774,0.0155113624798501,-0.000153605121413287
-0.0455744897187173,-0.00171923129024448,0.0117127473679684,0.000756516767794403
-0.0395077688742505,-0.0024459363424815,0.00573633350695568,0.00109466449028099
-0.02945791457078,-0.00309731766983803,0.00180329536415618,0.0007537073058944
-0.0173846332229127,-0.00366771263319673,-0.000743678365202619,0.000622979473628681
-7.98481457203459e-05,-0.00415414678893992,-0.00287944718097072,0.00103784690908046
0.0165973306914399,-0.0045560118263629,0.00167919933236196,0.00104396683279252
0.0225435784672584,-0.00487473620670057,0.0127471006433579,-0.000740914950724655
0.0153453516487751,-0.00511345706311163,0.0179755484764104,-0.00378296192076334
-0.00470694950258072,-0.00527670067494863,0.016550789249575,-0.00549072328688394
-0.0311408834497654,-0.00537007757308522,0.0164811389200229,-0.00473819960283843
-0.0528122002044767,-0.00539999711596364,0.0177592414111088,-0.00293070848784692
-0.0669570134132114,-0.00537340522915593,0.0162776969951109,-0.00139421779721155
-0.0710930053120176,-0.00529754793717192,0.0136220845167981,-9.17878227558065e-05
-0.0655224495888241,-0.00517976234586445,0.0128105399524288,0.00103992325493777
-0.0579220980850206,-0.00502729586616221,0.0117321847269912,0.00170030771940823
-0.0485235514898672,-0.00484715371016342,0.00874641158965424,0.00188501501289953
-0.036922662459558,-0.00464597404050989,0.00344441221833904,0.0015737719779431
-0.0274472112640787,-0.00442992961224207,-0.00101280020917074,0.000874050435974649
-0.0199383686116604,-0.00420465430974496,0.000953118118795694,0.000370768694292894
-0.00745080864280254,-0.00397519264462542,0.0063330725926264,0.000283145336452778
0.0153579612686498,-0.00374597003660201,0.00719176461243798,0.000132904134050074
0.0409984170157013,-0.00352078154087651,0.00266384521681051,-0.000516704918019871
0.0617324282517061,-0.00330279660317049,-0.00317538430726601,-0.00142626953890505
0.0748097103380557,-0.00309457740853281,-0.0073399211063763,-0.00198201907003497
0.0698481429359417,-0.00289810843269253,-0.00833871439889205,-0.00210688020033196
0.0459914006005984,-0.00271483489584912,-0.00725021402736604,-0.00205699892034316
0.0221414909276526,-0.00254570794917973,-0.0055502550755278,-0.00189175660052901
0.0107224117440903,-0.00239123458540607,-0.00603973323408406,-0.00152474072110448
0.00520802060730112,-0.00225153044828112,-0.00980340169809045,-0.000828363442688703
-0.00434751472109994,-0.00212637391447274,-0.0113243699733126,0.000281450303834636
-0.00880074518388581,-0.00201526002824831,-0.00826768613842632,0.00145759181161185
0.0106231342800225,-0.00191745307868079,-0.00421927171432476,0.00217199189535527
0.0466521479181351,-0.00183203681568815,-0.000302113846337144,0.00230616438461692
0.0704325472161356,-0.00175796150077989,0.00547726303419826,0.00188815992754176
0.068401117025852,-0.00169408717731434,0.011117805389231,0.000970269256430915
0.0508905008818307,-0.00163922272067575,0.0126648868455381,-9.79288739277793e-05
0.0319922111292892,-0.00159216038892405,0.00992940450936287,-0.000622376935749224
0.0190795874326346,-0.00155170573777538,0.00356920467303655,-0.00040848766278489
0.0131263561184646,-0.00151670288938644,-0.00312369785985127,-2.25129640444651e-05
0.00882730050414313,-0.0014860552520393,-0.00370893376417642,-0.000364560359762786
0.00456301667304452,-0.00145874187763443,0.00111232624429662,-0.00197873237277952
0.00418102761462197,-0.00143382971640064,0.00345854380211214,-0.00401660605726997
0.0057966185958393,-0.00141048208427238,0.00123388158017014,-0.00474375781039632
0.00447484489501887,-0.00138796369913043,-0.00253215219830547,-0.00294289605308853
0.00123599404388585,-0.0013656426687599,-0.00715315866907111,0.00107288494688487
-0.00125937459259944,-0.00134298982745968,-0.0105156358103931,0.00536195299029696
-0.000280398931183633,-0.00131957582118653,-0.00916951009779018,0.00764099294029525
0.00605783702278903,-0.00129506633451985,-0.00585154003930729,0.00663700678175606
0.0121153817312774,-0.00126921583810608,-0.00453950978612046,0.00297312591674352
0.0116381872265541,0.000397715285286163,-0.00406234681477088,-0.000802939819267661
0.0055985224907505,0.00425422842010915,-0.00240914715364051,-0.00253327768505319
-0.000720059575918896,0.0057251277707876,0.00157799763961096,-0.00225422161285164
-0.00232476108808426,0.0016347395861898,0.00680882991797027,-0.00124323128641036
-0.000740988254213787,-0.00340043355925568,0.0109182737639874,-0.000420727565381204
-0.00103217781626004,-0.00416727042885953,0.0104203462981986,-1.29319903254572e-05
-0.00143609791592815,-0.00266065016775277,0.00423519444866565,-0.000149250394144649
-0.00227790465967668,-0.00193855876431402,-0.00146224890864693,-0.000618456400217125
-0.00771305121918595,-0.00166362128954905,-0.00397045909213194,-0.00100772866957645
-0.013676742817348,-0.00131416108285251,-0.00472455680841333,-0.00111010471150786
-0.0157017437361922,-0.000949049019911159,-0.00148114916775051,-0.000794819089017966
-0.0144778834469361,-0.000657239690065959,0.00416068367646473,-0.000339859790331671
-0.010033986114677,-0.000426832775005262,0.00889009027049007,-0.000133400787319805
-0.00237045246534259,-0.000239705800932725,0.0135931049535504,-0.000185247578046328
0.00597477903560675,-9.41896195587202e-05,0.0143717048575702,-0.000392930110008711
0.0102023157190881,1.09541076564382e-05,0.00696143574134543,-0.000395672676129845
0.00866227546455759,8.0230281058992e-05,-0.00228560510615732,0.000499006140802195
0.00456359333619374,0.000118488665767907,-0.00527990570778755,0.00233039912035734
-0.00120653871230716,0.000130134986918806,-0.00322856916685267,0.00375493962829124
-0.00969008880989352,0.00011949700110892,-0.00247716538300558,0.00358550239977586
-0.0175402773168241,9.08448124797333e-05,-0.00286373931469265,0.00213980014685062
-0.0189100647551875,4.82328499761416e-05,-0.000877345656963472,0.000189245869375137
-0.016656404261389,-4.57980827607118e-06,0.00104910350153519,-0.00152111107717012
-0.0201150646595429,-6.41604993372354e-05,0.00137579295824853,-0.00238064834199774
-0.0284700842473428,-0.000127430737163628,0.00162957534164533,-0.00239676226395977
-0.033800192990646,-0.000191687054619778,0.00243027320973312,-0.00182589280845376
-0.0337093498334718,-0.000254608771308232,0.00299428346093376,-0.000796550508371558
-0.029113449966952,-0.00031425500051117,0.00179734619384679,0.000298907217208561
-0.0224507404816116,-0.000369053670970919,-7.72226640987049e-05,0.000956876905145573
-0.016238715595632,-0.000417783870949186,-0.000677619355695057,0.00121978500191343
-0.00850204961395663,-0.00045955269010354,-0.000426275637272198,0.0014027186010027
-0.000106619317349416,-0.00049376790388833,-0.00043641615313868,0.00152748683260987
0.00591877568065812,-0.000520107761155856,-0.000469593655720651,0.00140153539955904
0.0105488831431258,-0.000538488982332619,-0.00126498513343291,0.00115203206964202
0.0141259739405711,-0.000549033952798617,-0.00405206319472888,0.000920967923500634
0.0178393265651388,-0.000552037978054169,-0.00756805921803557,0.000448471236985856
0.0212271411413652,-0.000547937340502527,-0.00836708178630709,-0.000489906634858056
0.0200782070093644,-0.000537278770982868,-0.00684804755534205,-0.00152673397553715
0.0138478517419917,-0.000520690826866856,-0.0072879094848386,-0.00170160521339788
0.00651157180917964,-0.000498857553747217,-0.00752907478611835,-0.000640417101788834
0.00381191187279727,-0.000472494701003071,-0.00599416555849884,0.000706329095451091
0.00688080917502472,-0.000442328663872188,-0.00595411917684449,0.00137379102082536
0.0121194744801645,-0.000409078237397194,-0.00566674907553281,0.00135125296608175
0.0164841026128448,-0.000373439190996774,-0.00280252014523835,0.00090912800007621
0.0164940784347802,-0.000336071606732716,-3.10865789008245e-05,0.0002208292193013
0.010733810645172,-0.000297589869482991,0.0011014231843588,-0.000452950455102869
0.00326433379299172,-0.000258555152900909,0.00289923744632829,-0.000805382515290266
-0.00116128107169479,-0.000219470210671255,0.00505020900080511,-0.00060265171399576
-0.000657923591436047,-0.000180776257590998,0.00447605106928038,0.000333222494161345
0.00657152844739151,-0.000142851708515211,0.00154504616210707,0.0018264745582225
0.017280833159412,-0.000106012534452167,-0.000650369777578721,0.00332582413186553
0.0282339752856916,-7.05139930698286e-05,-0.00184032999168264,0.0041038794474695
0.0397011726474112,-3.65534947172145e-05,-0.00400679374374207,0.00362923927075365
0.0447385037661807,-4.27437378734288e-06,-0.0057094791011106,0.0022471465509011
0.0406081071162314,2.62296520374085e-05,-0.00586868085554484,0.000479974630995877
0.0340730684681897,5.49095362614419e-05,-0.00789472779310362,-0.00153864462392689
0.0272209017849204,8.17556552529377e-05,-0.0116676709584252,-0.0034156300054037
0.0202203136894474,0.000106792420879998,-0.0146341839003532,-0.00436927469767993
0.017069425553927,0.000130072897285912,-0.0156775444350139,-0.00372206448028827
0.0133046716551658,0.000151673544125912,-0.0158588767278129,-0.00173066617158385
0.00205171320075081,0.000171689187936726,-0.0204087536195965,0.00031922179390191
-0.0130763963390801,0.000190228303359583,-0.028600105528615,0.00125425642768584
-0.0236395680192674,0.000207408667003558,-0.0332701582767367,0.000860874726676344
-0.0206406199786382,0.00587988890195462,-0.0327796457433062,0.000132777402543596
-0.00787692256858496,0.0331591702268432,-0.0301024262094155,0.000426751180667861
0.00138154380848488,0.0825921697708539,-0.0258333025754195,0.00177204112495036
0.0095132399235968,0.109402862881513,-0.0201235901493629,0.00287323002720715
0.0284890515262245,0.0706833026923519,-0.0143851719040406,0.00243200944593198
0.051867346478706,-0.00311153280053539,-0.00777512622265734,0.000251899422769867
0.0643604649602263,-0.0451408668600598,0.000419696584726632,-0.00256233146055395
0.0612985170184077,-0.0410356005162922,0.00737035732115645,-0.00442524895880404
0.0454950956088208,-0.0245899468966536,0.0112479783089952,-0.00440437948049867
0.0178731691481403,-0.0151372820850638,0.0129573075750185,-0.00299232631002187
-0.0206501912711609,-0.00900427398927122,0.0136840817276193,-0.00135755251631824
-0.0531504098528531,-0.00290199365129075,0.0154937430633573,-0.000173607170614172
-0.0653247592882696,0.00254480380939092,0.0165172559030652,0.000624687815368938
-0.0647888174001073,0.00680448889965976,0.0128798880231286,0.00153800951636758
-0.061629368615771,0.0100391406658963,0.00614127247744671,0.00271775240860042
-0.0570903493875503,0.0124128591216945,-0.000132797469017808,0.00339841800612457
-0.0502510574742184,0.0139844892770473,-0.00390614719410582,0.00266367990376334
-0.0389208000860648,0.0148222762319578,-0.00604363361754232,0.000807361574440882
-0.0266450880413955,0.0150186472028135,-0.0076405463691812,-0.00064811831185356
-0.0223030466159934,0.014667317060511,-0.00945414158283011,-0.000618872850817389
-0.0287012193827429,0.0138579246458751,-0.0105268661871702,0.000507806245033762
-0.0454635434511521,0.0126775393610185,-0.00363971051191426,0.00137055662536617
-0.063034154455099,0.0112095659669985,0.00898082863629914,0.000480887050710795
-0.0685059278460489,0.00953186315710294,0.0142029578676429,-0.00182991435147714
-0.0657652362472694,0.00771568054979925,0.0124219819583761,-0.00325877538549277
-0.0613837019111253,0.00582507729414774,0.0124789297828015,-0.0026522273896659
-0.0483212955296058,0.00391651742545453,0.0143114290948612,-0.00096075315357189
-0.0261701903623199,0.00203866712933956,0.0142687201491302,0.000495231559871945
-0.011687466852525,0.000232411827039305,0.0144294584787494,0.00127233604602805
-0.0186545624762687,-0.00146894632921477,0.0169775090415996,0.00166988724156326
-0.0389966175156855,-0.00303934853807242,0.0176880422114076,0.00174727775399831
-0.0435188652703935,-0.00445952421224438,0.0145192363439134,0.0012783320315823
-0.0152717439300626,-0.00571644648151731,0.0120561006873463,0.000354418296682683
0.0205763495325909,-0.00680272394497936,0.0129659879288795,-0.000491397916550153
0.0291539214619842,-0.00771595202737925,0.0173249112106369,-0.000782670397190028
0.00729389716994431,-0.00845804457778076,0.0244954905725616,-0.000777142992340067
-0.0252899329200223,-0.00903456380471696,0.0308868435867466,-0.000861398434959086
-0.0460617728116482,-0.0094540640978554,0.0335699235269461,-0.00075433378305818
-0.0473923871022061,-0.00972746271302184,0.0321360752437019,-0.000191800830106304
-0.040992731154418,-0.0098674477939325,0.0282291346996063,0.000534023374415585
-0.0347403570699769,-0.00988793183163922,0.0254279868214855,0.00109450042516839
-0.0238022513197281,-0.00980355645104665,0.023838380854824,0.0014706978912893
-0.0109777793752297,-0.00962925238717264,0.0203783104345313,0.00174697536194782
-0.00499761152494467,-0.00937985669284782,0.0149341710581189,0.00187110314808298
-0.00139524266338798,-0.00906978761630673,0.00942445792821654,0.00170284686039135
0.00834210949172177,-0.00871277620655447,0.00476973456779614,0.00131192605340905
0.0192084927486994,-0.00832165254557041,0.000228307358258184,0.00101966485585303
0.022925182875225,-0.00790818356370506,-0.00217727361088066,0.00106158078347354
0.0203285433720178,-0.00748295865821353,-0.000843273982707478,0.00117803909215471
0.0155294633980917,-0.00705531879160855,0.0013347529383444,0.000911322981655534
0.0161085088991826,-0.00663332438083203,0.00269481093686105,0.000121421779288273
0.0257293983598657,-0.00622375708266718,0.00209571826923264,-0.0010221165052817
0.0335183713632359,-0.00583215051687382,0.000601085535700718,-0.00201195924656649
0.0279140672924137,-0.00546284502706815,0.000624364990087068,-0.00256011796741135
0.0194715179671909,-0.00511906174135986,-1.36166460247451e-05,-0.00273978500069375
0.0192330228356237,-0.0048029914414016,-0.00166543288326909,-0.00251072185722418
0.016453200406671,-0.00451589406196811,-0.00201441879535294,-0.001951821680203
0.0078411388333941,-0.0042582050065673,-0.00216291242974411,-0.0011467334345933
0.00219070586540069,-0.00402964486234554,-0.00298298854144934,-0.000308541571476928
0.000858177959031769,-0.00382932951565015,-0.00377483485511259,0.000226918505156922
0.000285047794433543,-0.00365587809551651,-0.00486071113416504,0.000617614546231675
0.000996324983888609,-0.00350751659522651,-0.00585023366265199,0.00102595987245097
0.0120440368525483,-0.00338217543267804,-0.00576945201573357,0.00126919641397946
0.0377087125145839,-0.00327757960109463,-0.00580461861418969,0.00111003038419939
0.0623532962295933,-0.00319133042643296,-0.00574428056678945,0.000570885978257034
0.0722830994079665,-0.00312097828226374,-0.00432983316685184,-0.000232346186206339
0.0654782499441929,-0.00306408591357925,-0.00251955638748189,-0.00148765551564031
0.0441563333124835,-0.0030182822860213,-0.00154156744174264,-0.00296110601838647
0.0246669076966428,-0.00298130710550482,-0.00559626470316967,-0.0036748893980235
0.0165179261398912,-0.00295104634524738,-0.0142588313123324,-0.00288545249106764
0.0113246128940237,-0.00292555927366819,-0.0200799104757027,-0.000930711975662813
0.00668370563041891,-0.00290309759913736,-0.0212323323962662,0.000935752236530956
0.00589565258240606,-0.00288211743819594,-0.0208817700632264,0.00159110695687329
0.00950563997908482,-0.0028612848752398,-0.0207727474717167,0.00109217748532511
0.0149911493364626,-0.00283947591660058,-0.0204174187641667,0.000407007431792592
0.0206212176344363,-0.00281577165345695,-0.0190737329702493,0.000174595745960048
0.0271886206032528,-0.00278944943926831,-0.0155540373747258,0.000359111261737802
0.0316921514176977,-0.0027599708615549,-0.00974071467172107,0.000712013401278919
0.0308433962447495,-0.0027269672478901,-0.00604936542321066,0.000876882934422788
0.0266302505588031,-0.00269022339496451,-0.006109740124568,0.000430106676643927
0.0194411213125534,-0.00264966015018819,-0.00606014086809087,-0.000791999167290366
0.00572581599889854,-0.00260531641019505,-0.00465873156594153,-0.00224971047549962
-0.0132064246657939,-0.00255733103203746,0.000289581909000882,-0.00279115249962323
-0.029187963266452,-0.00250592508292131,0.00776427487895287,-0.00223270228923512
-0.034665421198126,-0.00245138478481267,0.00869345716046259,-0.00144795321876185
-0.033411076130514,-0.00239404544268351,0.0027406271300447,-0.000787853695264123
-0.0340919418942641,-0.00233427658079798,-0.000917181918726881,-0.000285715911561457
-0.0341244537456263,-0.00227246845129748,0.00158645309981411,-0.000195702325712439
-0.0279555442712206,-0.00220902002416562,0.00699947580396781,-0.000689984001097872
-0.017141546423964,-0.00214432851800468,0.0100516026863027,-0.00138001051018676
-0.00632750304356766,-0.00207878048723557,0.00786971149324854,-0.00145680176979436
0.00131123443846558,-0.00201274444353104,0.00169762930588871,-0.000584220836695885
0.00753443776274289,-0.00194656495745823,-0.00466148292616146,0.000696196696671051
0.0167076221144938,-0.00188055816036449,-0.00819017826526755,0.00158239227745281
0.0282542723552582,-0.00181500854613752,-0.00917337895380819,0.00146823203549076
0.0380643087461371,-0.00175016695735997,-0.00900037269864851,0.000486369125046269
0.0426841270102059,-0.00168624963009015,-0.00755119199535137,-0.000523232666162357
0.0386135311064817,-0.0016234381655563,-0.00454052699999023,-0.00162614985485231
0.0275823813983067,-0.00156188029499722,-0.00142970643608224,-0.00341531642352136
0.0184617944874204,-0.00150169130518554,0.00184551219297683,-0.00527442360867083
0.0149774283062652,-0.00144295599628452,0.00539349883116786,-0.00570086834124144
0.0113121903732916,-0.00138573105016296,0.0069653958201393,-0.00372016907001533
0.00666125513284559,-0.00133004769559715,0.00534599430188674,0.000323432603159713
0.00555160893603772,-0.00127591456648206,0.0022306499030142,0.00455395764629226
0.00653254005193368,-0.00122332065985095,0.000892600367027242,0.00655030878669662
0.00616831524824664,-0.00117223831171528,0.00154562008763954,0.00564690477254927
0.00427666060555092,-0.00112262612026126,0.00257024762268082,0.00325228740737446
-0.00392979630444617,-0.00107443175733334,0.00288551427793039,0.000969851429180611
-0.022272366286838,-0.00102759462026465,0.0028889493149395,-0.00036769417667028
-0.0393280888243984,-0.000982048286729852,0.00402209195691891,-0.000803679052683685
-0.0460729693920518,-0.000937722745182218,0.00604309288098981,-0.000870193332615535
-0.047240245079183,-0.000894546382562972,0.00602788962851205,-0.000726777561868959
-0.0433139361280248,-0.000852447719158436,0.00302645660127256,-0.00026118708930645
-0.031727683256261,-0.000811356887727826,0.00180566479763462,0.000323468994783411
-0.0201225607750668,-0.000771206860279413,0.00321968675824193,0.000651002378252348
-0.0156856487554496,-0.000731934431149682,0.000550015638771106,0.000540715781283163
-0.0127698624351028,-0.000693480969332427,-0.00922039038968295,-0.000122436334753115
-0.00369482716519774,-0.000655792956419547,-0.0179072813467077,-0.00113015111976709
0.00835950885538563,-0.000618822329015194,-0.0193906295537607,-0.00182534907597893
0.0151066796353541,-0.000582526646229095,-0.017150976337941,-0.00179798818422065
0.0182995540869273,-0.000546869103842623,-0.0119390969142778,-0.001120826900305
0.0272222921917801,-0.000511818417120334,-0.00553135762135726,-0.000242933768872984
0.0379253101039612,-0.000477348594053867,-0.00296065341071738,0.000532761297574192
0.0352345177213839,-0.000443438620149064,-0.000906676924506883,0.00126881130661381
0.0183759656521166,-0.000410072074841504,0.00485344541758396,0.00184481222171936
0.00441786885292105,-0.000377236698260592,0.00976631615095613,0.00194614813765541
0.00274464352870269,-0.000344923925480984,0.0079183777568324,0.00142553900143147
0.0062042161087699,-0.000313128403664947,-0.000282587061399527,0.000773176695475254
0.00396362265884406,-0.00028184750563795,-0.00715857638765486,0.00111663828142881
-0.0065287392514722,-0.000251080851568654,-0.00789219702445465,0.00271684856495992
-0.0133843861342674,-0.000220829848538681,-0.00442457709505973,0.00411102333816601
-0.0127499349678989,-0.000191097255963345,0.000154243629253284,0.0037073214092043
-0.0156618003041099,-0.000161886783071767,0.00420077147703931,0.00170118697040662
-0.02203542732522,-0.00013320272302431,0.00865071310733007,-0.000202405471050573
-0.0201124707484813,-0.000105049626751811,0.0109361534095855,-0.00109136529491935
-0.00457080588034411,-7.7432018227634e-05,0.00672431415824384,-0.00137749412914214
0.0124210646964025,-5.03541517014339e-05,0.000602795824737382,-0.00115862870027701
0.0122424401146401,-2.3819810389315e-05,-0.00217103034541531,-0.000400507841748243
-0.00601732946341608,2.16785476726217e-06,-0.00528509803566797,0.000554567435370922
-0.0253182576141973,2.76064483726917e-05,-0.0103682010002333,0.00140275092550508
-0.0325795305434096,5.24944185391346e-05,-0.0136485009925497,0.00187550712866103
-0.0306550539589419,7.68311126224426e-05,-0.0131562040917822,0.00175573542776632
-0.0253851676274333,0.000100616804104737,-0.00954592244322495,0.000785998629354946
-0.0174903746774312,0.00012385269416826,-0.00358487813422094,-0.000838544568389711
-0.00655195474539103,0.000146540891559716,0.000137725865781488,-0.00228772978841155
0.0141544048429797,0.000168684374338222,-0.00256408774796246,-0.00269782759616072
0.0402807139255949,0.000190286936970211,-0.00661668436797623,-0.00187824787957955
0.0539040969574435,0.000211353126087099,-0.0082098421635219,-0.000768890378551065
0.0508182493131056,0.000231888167983661,-0.00744120542530621,-0.000226878396441716
0.025465799635954,0.000251897890694166,-0.00374881859732472,-3.77710493764327e-05
-0.0197421395069575,0.000271388643183093,0.00177181370707259,7.54934987101886e-05
-0.051904535256419,0.00029036721388577,0.00721081543974126,2.32595880444943e-05
-0.0488386850272255,0.000308840750540137,0.0102863414845069,-0.000284413346281683
-0.0209279898164322,0.000326816682922372,0.0106909874995587,-0.000702657666542284
0.00489147670069327,0.00034430264980925,0.0100367016446726,-0.000780092343501833
0.0138347104879629,0.000361306431200634,0.0125294807277947,-0.00058845314285017
0.0212131886856058,0.000377835886569325,0.0209597101259342,-0.000654692385543368
0.0412588507239619,0.00039389889964734,0.0293071809283106,-0.00109530387107289
0.0617198937804236,0.000409503330041696,0.0299093820033198,-0.00143513834895918
0.0656198596693035,0.00042465697178137,0.0241490758782232,-0.00100583860255375
0.0515234242641485,0.000439367518711618,0.0170932311555021,0.000323148649293236
0.0260659585874241,0.000453642536514698,0.00785583789005533,0.00220455207812725
0.00167152136898777,0.000467489441020638,-0.00393639516060947,0.00401510890489963
-0.0120711008555313,0.000480915482370826,-0.0125131532913399,0.00474495657750722
-0.0208420752971967,0.00049392773453081,-0.00997917955745121,0.00320555199018979
-0.0287832330001685,0.000506533089600143,0.00391027943377238,-0.000932358004851355
-0.0332343999068531,0.00051873825633817,0.0145385709234956,-0.00559056154685814
-0.03320924199311,0.000530549762313241,0.0126949586931106,-0.0073561623634607
-0.0264391267903484,0.000541973959084892,0.00654687667703178,-0.0050321004722793
-0.0124009498783466,0.000553017029848775,0.00511255510145653,-0.000872935353204701
0.00147488056972216,0.000563684998996138,0.011296362765,0.00171734947612009
0.00352388680573512,0.000573983743082543,0.0192549006407458,0.00144931251108012
-0.00555982301359517,0.000583919002733911,0.0213783494413749,-0.000102570797448958
-0.0140470083058047,0.000593496395078636,0.0184069759397378,-0.0010648139712673
-0.0163027387016244,0.000602721426321368,0.0132434117359342,-0.000903751296058892
-0.0152802486098765,0.000611599504151566,0.00979553945049787,7.04605389086003e-05
-0.0164161356308916,0.000620135949710704,0.00984980988020776,0.00128199350099621
-0.0229946153410416,0.000628336008902414,0.00929378317270921,0.00221754192237817
-0.0259054973632054,0.000636204862866781,0.00747882098403209,0.00258910710385738
-0.00560919261919757,0.000643747637498509,0.00686914273279417,0.00224839119900082
0.0355448655788325,0.000650969411921878,0.00879294464152619,0.00137857767453879
0.0706627724583682,0.000657875225862478,0.0124474779160392,0.000445255032465495
0.0813018007564464,0.000664470085914538,0.0141786432239752,-0.000299718891858028
0.065373507906761,0.000670758970695747,0.0136576352833833,-0.00062141473389063
0.0345882304917232,0.000676746834944439,0.0126145873569987,-0.000386106654541559
0.00482158857362666,0.000682438612596207,0.012038643701187,0.00010084145923348
-0.0154331881983997,0.000687839218923186,0.012009363459247,0.000348425405908045
-0.022384849689103,0.000692953551810892,0.00980890326473438,0.000183133391087178
-0.0184022246363453,0.000697786492263286,0.00519107506504318,-8.83182450451413e-05
-0.0109659908089848,0.000702342904238102,0.000646665893476126,-8.62955508100014e-05
-0.00582064692288585,0.000706627633895677,-0.00201308535220319,0.000264020783119961
-0.0025636122768044,0.000710645508370734,-0.000434305196396426,0.000511609187158861
-0.000209320186153526,0.000714401334155536,0.00271601662955997,0.000240287075280633
0.0011667826855554,0.000717899895185798,0.00318881317099191,-0.000316143161657397
0.00228014598241632,0.0007211459507064,0.000135290186009529,-0.000709565845925358
0.00386490830284246,0.000724144233004479,-0.00629758015961442,-0.000748720012538015
0.00498683158893458,0.000726899445068458,-0.0120164788428662,-0.000318738219235097
0.00252811704488949,0.000729416258243115,-0.0145791249748203,0.000788989207319256
-0.000701726231415394,0.000731699309922977,-0.01477367170141,0.00242929190785165
-0.000834132414014067,0.000733753201339264,-0.012034143883963,0.00364518301892205
0.00251575340377445,0.000735582495471017,-0.00753513228669296,0.00320659740671121
0.00749849573746889,0.000737191715104068,-0.00491558431389496,0.00130206057305455
0.0106711785504339,0.000738585341068024,-0.00543417489131314,-0.000441296631441285
0.0126516064405878,0.000739767810661857,-0.00614016088607001,-0.00104163172146902
0.0131416564983894,0.000740743516273077,-0.00404526448434646,-0.000758119362063973
0.0107279254005251,0.000741516804195544,-0.000453356260893999,-0.000239671672574703
0.00806573169369271,0.000742091973647518,0.00108550792602237,7.31836868174888e-05
0.00921060434257978,0.000742473275978889,0.000565782902061365,0.00013336671608222
0.0136893620265371,0.000742664914057269,-0.000685579837618903,0.000213274620582905
0.0148950745454155,0.00074267104183177,-0.0020690543647939,0.000485898445858593
0.0106197622719226,0.000742495764045057,-0.00217295021702976,0.000714538863535143
0.00470050170285532,0.000742143136093248,0.000747036322928933,0.000465652807288862
-0.00136359860457088,0.000741617164007154,0.00412415166074307,-0.000392451431211331
-0.00303163785525325,0.000740921804544437,0.00456477140686354,-0.00135546436770781
0.00303690761132787,0.000740060965376508,0.00394182220574908,-0.00179809086235252
0.0115280163171281,0.000739038505349471,0.00255066948880838,-0.0014711563056995
0.0171279384855557,0.000737858234811414,-0.000346538920014888,-0.00061440153370597
0.0160190683812424,0.000736523915985014,-0.00418261655240238,0.000126586912842116
0.00882244630338663,0.000735039263378129,-0.00743742630002265,0.000374037201632857
0.00426332185823902,0.000733407944213927,-0.00751591559236055,0.000220433087523418
0.0093875889133406,0.000731633578880926,-0.00573955059972055,-0.000281914612006043
0.017269649742336,0.000729719741381663,-0.00485256086129329,-0.00091205822742361
0.0155438533080347,0.000727669959781699,-0.00434299089178146,-0.00107171625959228
0.00538202918581727,0.000725487716647432,-0.00285074082166977,-0.000539332009981798
-0.00535212960916559,0.000723176449471494,0.000521985781438385,0.000470190782465378
-0.0136391025149521,0.000720739551078587,0.00382456150587322,0.00149831501705504
-0.017519460844382,0.000718180370009496,0.005150862934152,0.00182431564472721
-0.0200368813572037,0.000715502210885279,0.00625694397234309,0.0013088825010145
-0.0271099366322178,0.000712708334745751,0.00743970253359499,0.000634768864620043
-0.0337977087494703,0.000709801959367784,0.00740115363067503,0.000374796632951839
-0.036080341777154,0.000706786259560583,0.00674662865526981,0.000458232178964973
-0.0393796171194431,0.000703664367436139,0.00756875236945067,0.000495616638857777
-0.0436342437553223,0.000700439372663829,0.00928308305206629,9.09837365474079e-05
-0.0420584202570764,0.000697114322709155,0.00933648441177699,-0.000948145414340821
-0.0318424927698802,0.00069369222305219,0.00699614802928867,-0.00219787875671975
-0.023032257092201,0.000690176037397239,0.00398518653238326,-0.00308564962191961
-0.0233340558142051,0.000686568687870781,0.0027375396159384,-0.00348488186070761
-0.0253742650713462,0.000682873055208821,0.00431017236573006,-0.00341436901114205
-0.0259606856564062,0.000679091978944778,0.00810328206987061,-0.00307889170542757
-0.0245425938418262,0.000675228257587904,0.0120693684340565,-0.00279327798634371
-0.0193277276898371,0.000671284648805248,0.012310657238227,-0.0024593354679688
-0.0141884178875673,0.000667263869600308,0.00536832761966835,-0.00155900774505042
-0.00830328130259889,0.000663168596495759,-0.00436873069405268,0.000198204714598362
-4.13396168085466e-05,0.000659001465720008,-0.00861923367961778,0.00208168015784985
0.0071911972634379,0.000654765073400656,-0.00650233087198658,0.00285644912148644
0.0117329805233016,0.000650461975760877,-0.00424938957276312,0.00240471388218593
0.0134561527439578,0.000646094689326757,-0.00447683476876129,0.0019715236377911
0.00936792373023364,0.000641665691137573,-0.00636639058392897,0.00252351599365801
-0.00200695370516003,0.000637177418968501,-0.0118075212180737,0.00340678657543179
-0.0154327610977059,0.000632632271560578,-0.0178945240606287,0.0031866130849115
-0.0269211076730333,0.000628032608859961,-0.0193160732551268,0.00140991808577585
-0.03423361443235,0.000623380752261487,-0.0175135051314589,-0.00100104965253085
-0.0345210883537165,0.000618678984863691,-0.0169052744189224,-0.00291709450967778
-0.0279012848730685,0.000613929551734635,-0.0147623626391055,-0.00354594583102672
-0.0130380906801619,0.000609134660181307,-0.00784240378035391,-0.00262606895356262
0.00676699004188305,0.000604296480026148,-0.00158232311582407,-0.00123241640126125
0.0161597017690093,0.000599417143893628,0.00302513022537991,-0.00060530331054424
0.00773030467826867,0.00059449874749773,0.00673966676479724,-0.000735744248904939
-0.00470554142329824,0.000589543349942208,0.00502164053202448,-0.00089860622825083
-0.010052030105535,0.000584552974018926,0.000307447749532616,-0.000584787925058105
-0.0136663412308019,0.000579529606514751,-0.00168855203757402,-6.65373380804863e-05
-0.017032199793832,0.000574475198522658,-0.002030499461026,3.59665473909693e-05
-0.0144827328969565,0.000569391665751669,-0.00257927818844143,-9.9825232032802e-05
-0.00715164317014356,0.000564280888847404,-0.00332326295688823,0.000480807482132854
-0.0034863623233536,0.000559144713708618,-0.00360219831597707,0.00196412513086184
-0.00705389286252059,0.000635963726774797,-0.00289574019343986,0.00354904921780842
-0.0113236459892307,0.00192887369313122,-0.00433212316960301,0.00467615373599795
-0.00913947390295616,0.00446862100248469,-0.0113419017506032,0.00513079338726649
0.00137742033814767,0.00637911799842991,-0.0216760683069935,0.00455695377047995
0.0115072168158241,0.0114233877941167,-0.0271084162487102,0.00278194513345812
0.0127399512873204,0.0281583595103872,-0.0250489390153741,0.000347925505027961
0.0110174346932751,0.048477609044183,-0.0238867267048868,-0.00166281962657727
0.0123638523338189,0.0516105672212635,-0.0274418845955198,-0.00255549089965513
0.0174532711153135,0.0315118680585394,-0.0296308811963403,-0.0024418875842538
0.0279887880722848,-0.00237097403049201,-0.027072378701138,-0.00179678198624659
0.0403361852756418,-0.0256773199065774,-0.0237842236941165,-0.000983029919714775
0.0509720439881595,-0.0235380999221067,-0.0214255802143254,-0.000237756407152909
0.0568015078539744,-0.0128069038678335,-0.0169088324762107,7.39649451451448e-05
0.0503678313178936,-0.00716735041006353,-0.0107937813274768,-0.000114426589899276
0.0301751332058451,-0.00375896704048647,-0.00559735484790332,-0.000334993323857874
-0.000345663948799146,-0.000243289887327176,-5.8747036715559e-05,-7.26430940092761e-05
-0.0308438278783415,0.00289952908125,0.00677089720221816,0.000521391095605746
-0.0467130988516413,0.00529460132991669,0.0135035512614154,0.000808950313198316
-0.0473552526279455,0.00706328770876661,0.0184620771224851,0.000441783840493308
-0.0452997876610468,0.00831899753559408,0.0216406289366613,-0.000534186573326275
-0.0484217909516748,0.00909754714059953,0.0229886153572344,-0.00120921809651013
-0.0482092409420773,0.00944124642304525,0.0201120979648367,-0.000145089836036625
-0.0344050176061134,0.00940868733750229,0.0138152327148065,0.00231347428254892
-0.0130055788724695,0.00905841281990186,0.00688345023506823,0.00379645411141949
0.0037595219294637,0.00844558064985241,0.00031094980486196,0.00284396478555311
0.0116227053692906,0.00762336082030002,-0.00539599826852108,0.000324286148302259
0.0176193849429232,0.00664235349026148,-0.00963526946253405,-0.00189496564369779
0.0298771850598702,0.00554943455372517,-0.0119802253076831,-0.00286422977580138
0.0475192514701381,0.00438716624408275,-0.012643368604209,-0.00265152658490128
0.0626045281411313,0.00319351448156031,-0.0106803437776491,-0.00154409703227191
0.0671930192613668,0.00200165861090284,-0.00523621110544537,-0.000456857399449827
0.0554826399338708,0.000839917015822676,0.001812991529923,-0.000440417356628083
0.0301229670436123,-0.000268196267274717,0.00634379213027207,-0.0015143623338563
0.000230602246076267,-0.00130380981709084,0.00610478796983624,-0.00274193202037522
-0.0330220530801238,-0.00225245210706144,0.00409269954960333,-0.00308004045617688
-0.0598706425926829,-0.00310374413289032,0.00260480629593827,-0.00231753618826107
-0.0620207989693287,-0.00385104289841397,0.00246738296078166,-0.00122789492190526
-0.042820172388522,-0.00449105119554452,0.00521426762284629,-0.000753125806190035
-0.0154893458016237,-0.00502340763262756,0.0075516361450402,-0.00110345358849399
0.0127957573501358,-0.00545026911141346,0.00568845122114637,-0.00182642769729712
0.0317604677326937,-0.00577589635711135,0.00168394393243428,-0.00239628872270879
0.038423758468406,-0.00600625152878601,-0.00239399993247802,-0.00223720611714468
0.0379365884641943,-0.0061486153513776,-0.00473286113208106,-0.00114192252601196
0.033863552518844,-0.00621122967982017,-0.00421183669382765,0.000300619467175894
0.0285467689296911,-0.00620296996754715,-0.00400954461777869,0.001320315288761
0.018074908737763,-0.00613305078073233,-0.0049796851282355,0.00165601870235213
0.00197305232942557,-0.00601076628916296,-0.00629237567836033,0.00138859032279863
-0.0109118904185405,-0.0058452665856442,-0.00852986878997666,0.000687250121271424
-0.0164459022715662,-0.00564536974392494,-0.0100481701597685,-2.95214011246476e-05
-0.0164418664578478,-0.00541940872213054,-0.0118648969814367,-0.000431839464844426
-0.0128102041052967,-0.00517511155244646,-0.0172287732563715,-0.000377238882520875
-0.0065166953571693,-0.00491951272386545,-0.021375167903174,0.00017127762199356
0.00136753197957078,-0.00465889325614706,-0.0159732713252776,0.000691423501075788
-0.000311558947062728,-0.00439874667089986,-0.00043137736313735,2.32220067060127e-05
-0.0221017180440065,-0.00414376787966282,0.0140351572767033,-0.00196806886988205
-0.0470101623036157,-0.00389786191787959,0.0182303901757178,-0.00355065708204825
-0.057563751113142,-0.00366416944601507,0.0183651618957998,-0.00342815636322868
-0.0628615658736726,-0.00344510600283365,0.017515099559188,-0.00174434881543276
-0.0680017081397146,-0.00324241211922927,0.0120371828911474,0.000746353476645516
-0.0626243905184758,-0.00305721157250978,0.00450578581701924,0.00297056322105638
-0.0417943219010957,-0.00289007526978051,-0.00237216550324188,0.00431222078388702
-0.0160841980236418,-0.00274108848487875,-0.0081536602027994,0.00491608768607344
0.00279655315044193,-0.00260991942688259,-0.0145744677603336,0.00469847560217512
0.0209209086737696,-0.00249588738116019,-0.0189635938943916,0.00323511712207364
0.0480807926282166,-0.00239802892891324,-0.0145157620388365,0.000617969927990378
0.0715698717621937,-0.00231516101179037,-0.00474836639631898,-0.00219916427673244
0.071661576742451,-0.00224593985917892,0.000361712096317506,-0.00384948365930818
0.0489652575839009,-0.00218891503276754,-0.00626318247752944,-0.00360019506267764
0.0272650482428926,-0.00214257806264833,-0.0225972678182566,-0.00201346457581742
0.0259152765245171,-0.00210540534901472,-0.0365303724584574,-0.000230732202514967
0.0353509993568446,-0.00207589518174122,-0.0389677451387301,0.00116283436257529
0.0387551815178094,-0.00205259888591177,-0.0338553645910483,0.00212827773892495
0.0298382919336714,-0.00203414623432708,-0.0289552265397551,0.00274110585221498
0.0054183902285409,-0.00201926537849265,-0.0265681139413958,0.00323944440374808
-0.027229104894628,-0.00200679763826468,-0.0248075953109685,0.00397228113020491
-0.0440513129997293,-0.00199570755841633,-0.0190319949567893,0.0046306785698792
-0.0363486697227912,-0.0019850886892082,-0.00912134569504861,0.00452474119149285
-0.0178861163149782,-0.00197416557941375,0.00116222649809954,0.00359501051993588
-0.00213500210820354,-0.00196229248585711,0.0103493139620548,0.0021134745029158
0.00399387386423888,-0.00194894930538057,0.014487212985613,0.000462922725888961
0.00501180124403258,-0.00193373522518613,0.0116875611827054,-0.000687050809823804
0.00657583503529421,-0.0019163605676546,0.00859533269280429,-0.000728925585220225
0.0044238149515843,-0.00189663727788813,0.00988267173597667,-0.000123852607135227
-0.00681283052577055,-0.00187446846819383,0.0152606279907813,7.56606767832231e-05
-0.0195145520208798,-0.00184983739515946,0.0244856743941756,-2.30202487755552e-05
-0.0208163386771552,-0.00182279620342972,0.0335047512615451,0.000112947061775129
-0.00866196600187559,-0.00179345472714736,0.0361023708316603,0.000103616960525563
0.00793448088219464,-0.00176196959648293,0.0313997656053991,-0.000443649687699321
0.0146049883829058,-0.00131863997897815,0.0225368050877098,-0.000648881917448967
0.0109426978497543,0.00217376964642424,0.0133601171730785,0.000480489913032902
0.00769146685893854,0.00420613004443332,0.00482863216770053,0.00225326235012942
-1.06421549421615e-05,-0.000846502332924978,-0.0053820181035472,0.00323087478583786
-0.017680457500619,-0.00446713166751248,-0.0148592474371691,0.00272518716218504
-0.0313802352032914,-0.00316989847392618,-0.0163551531298937,0.00088943230173137
-0.0274316652905357,-0.00214670577542086,-0.00954431284223214,-0.00166040547760644
-0.0061401142245753,-0.00199944832782751,-0.00181598665612947,-0.00429225332775316
0.0237967445363646,-0.00184046653181491,0.00335631386287898,-0.00665186158290258
0.0474619296084483,-0.00156809256870078,0.00644731408507991,-0.00814559020229524
0.0500587203069777,-0.00133506131093773,0.00707697502148026,-0.00743815117322802
0.0338173728429128,-0.00115839672601287,0.00599879779053899,-0.00355556991034534
0.0148724957303074,-0.00101072112357235,0.00528861607513547,0.00244844888143224
0.00330528900449336,-0.000887298441865878,0.00599808439978928,0.00759702228039536
-0.00118542170037434,-0.000790508001560597,0.00694590711350252,0.00925464953305316
-0.00422020976830684,-0.000718471933338267,0.00783334320680579,0.00732722308997527
-0.0106699017906449,-0.000667833606077585,0.00909267515390649,0.00382844842778242
-0.01894981202897,-0.000635812818473987,0.00965822309342414,0.000819069162527068
-0.0238858250897298,-0.000619822402402707,0.0101691252748882,-0.00108567745467086
-0.0259444362939184,-0.000617196734565814,0.0095243919417972,-0.00243387898072828
-0.0277791987975199,-0.000625326248695331,0.00712368328795163,-0.0034232790903832
-0.0289384442700233,-0.000641760741419239,0.00603089194297777,-0.00380041187992194
-0.0315627516442202,-0.000664231482299941,0.00727355484589244,-0.00365173490365962
-0.0368643223672614,0.00160473794374983,0.0100332066204022,-0.0032903059861668
-0.0405399919117758,0.00890226520709702,0.0111915981951182,-0.00284698614781335
-0.0393038466927249,0.0100065717376555,0.00926897553142851,-0.00239052073968742
-0.0336635417723079,-0.000798780334574024,0.00649749510279848,-0.00200035599602109
-0.0227904220281406,-0.00660657026522856,0.00390033767029387,-0.00158482609934279
-0.0118403993565926,-0.00395211182934933,0.00190251079117043,-0.00106246292318666
-0.0105652378213423,-0.00221593573561123,0.000755742439255323,-0.000390986206480496
-0.014595980876751,-0.00199934443773489,0.0018903994931259,0.000465844242105215
-0.00950083819180233,-0.00169811028144284,0.00750274560353324,0.00105321707443916
0.00452663443273353,-0.00121132986398369,0.0139765442028984,0.000666661921494135
0.0103903690479433,-0.000814321924934247,0.0134685134977626,-0.000703599670556356
0.00382158687050314,-0.000522849748316468,0.00449518988929502,-0.00218941979048124
-0.00596886374380194,-0.000286705751876811,-0.00522098221294237,-0.00267638660747533
-0.0153039488428731,-9.90255671357763e-05,-0.00986893999443511,-0.00188170167897834
-0.0201337375415866,3.66468290852475e-05,-0.0114948769914754,-0.000541791466995712
-0.0197865405186044,0.000124859365782812,-0.0133647164800322,0.000839984620215456
-0.0207837111536975,0.000172377301611632,-0.0156439187691033,0.00242406441460723
-0.0248315557074495,0.000184807136147971,-0.0163280479817712,0.00416690368225077
-0.0295132709742253,0.000167425062553012,-0.0155857892523722,0.00528333406417118
-0.0327140266544404,0.000125601766905363,-0.0149141198533184,0.00482781279770159
-0.0327550595142061,6.45309045433358e-05,-0.0118025845077221,0.0026375323921931
-0.0316930911272665,-1.09490783766822e-05,-0.00506734691173479,-0.000470280113412012
-0.0276918859524391,-9.63906795092702e-05,0.000807917043871627,-0.0031882886309931
-0.0128646367792161,-0.000187767519962356,0.00168553306189203,-0.0045177393511837
0.00535024875346196,-0.00028150913092031,-0.00106962293276575,-0.00431893403677678
0.00815851866378615,-0.000374518812457585,-0.00393881865820049,-0.0031253135129774
0.00122315966113243,-0.000464174889980966,-0.00563095268404118,-0.00134958048307028
0.00518431630766679,-0.000548321190760939,-0.00540331741627195,0.000612301394317898
0.017230958089698,-0.000625248817520568,-0.00301998264531527,0.00185550560755232
0.0245998093128648,-0.000693670307719088,-0.000856489775718329,0.0019691597942463
0.0346248998331634,-0.000752687822701799,-0.00181270548898721,0.00161769323809574
0.0540211448959964,-0.000801757060698219,-0.00335473338479274,0.00130046175827497
0.0675522801235315,-0.000840648346871401,-0.0019830626058614,0.000770467607546451
0.0611393689467397,-0.000869406181303988,0.00083948041733821,-5.45564204899743e-06
0.0402603205151786,-0.000888308390967905,0.00151770896057558,-0.000450658246600768
0.017990760546589,-0.000897825878985615,-0.00350789569756747,-0.000361900560942978
-0.0024635902379669,-0.000898583804063909,-0.0123743499721553,-0.000249286544095379
-0.0186951976059721,-0.000891324868626026,-0.0163950387213917,-0.000409588696718932
-0.0257865294295138,-0.000876875248105184,-0.0122143127442566,-0.00072767560465815
-0.0271776824344164,-0.000856113556383115,-0.00607296069691472,-0.00129340973362068
-0.027571154611631,-0.000829943115660639,-0.00169916336647733,-0.00208044564077553
-0.0256517264192176,-0.000799267684608047,0.00181737846013049,-0.00254418560888704
-0.0180081329049857,-0.000764970697383701,0.00344170290964082,-0.0021675764974022
-0.00739728501147794,-0.00072789797828953,0.00335815736094885,-0.0006924886465851
0.000934416511968415,-0.000688843822569822,0.00458134904835772,0.00184024054576417
0.00916106532642147,-0.000648540272877318,0.00814033337523371,0.00436463788735378
0.0171701426158709,-0.000607649372680911,0.0109638756420871,0.0052236582182306
0.0207439510591276,-0.000566758141636635,0.0116550916395319,0.00420574576160778
0.0214869769605071,-0.000526375992775319,0.0117832703794465,0.00233930848735497
0.0235296139807413,-0.000486934296251146,0.00803806922470322,0.000118739453030882
0.029712274839052,-0.000448787788191616,-0.00092430984874183,-0.00241880935881654
0.0348209910413685,-0.000412217524812819,-0.00937415206567095,-0.00518836598615353
0.0344824287537894,0.00257380080871568,-0.0145200671162812,-0.0077373949883731
0.0321305714650975,0.0133492612636354,-0.0177829456244651,-0.00888971263223475
0.0318995933611774,0.0334850346218816,-0.0208556453862973,-0.00765913448806269
0.0399010090790602,0.0564492100542398,-0.0245268991830557,-0.00394193586104835
0.0580057931151775,0.0648091623191548,-0.0274947937355443,0.00160899203827056
0.0808802850846485,0.0507688335895657,-0.0287890940636138,0.00710564077956396
0.0992036177449538,0.0294440629674021,-0.0267941534184308,0.0100519544032089
0.103687045747228,0.0133441462238199,-0.0198944096623273,0.00886415773424834
0.0907047799951305,0.00396305185612082,-0.0138348453827805,0.00395485852503813
0.07049864858342,0.000755077269156725,-0.0153097720420855,-0.00162360136026051
0.0559808953481128,-0.00486984259511117,-0.0205322962204454,-0.00456516140412042
0.041238108467734,-0.016137543526929,-0.0193477735761085,-0.00423458650395719
0.0182885761513847,-0.0203690866593759,-0.00996249967340366,-0.00229983201832085
-0.00511387179462916,-0.0127110946996242,-0.00173970025432651,-0.000699388467709824
-0.0143780433520784,-0.00302143516951039,0.00270488578722157,6.42511761838507e-05
-0.00369203789616361,0.00317358579442362,0.00703187560633172,0.000653754244678907
0.0144021208440352,0.00760827658902088,0.0094263556407169,0.00118894104285976
0.0147577446878687,0.0112999756344216,0.00814014100848985,0.00101315388688747
-0.00781362312826192,0.0140413739032103,0.00412809234456101,-9.92989890067132e-05
-0.0323972111168005,0.0157636277627243,0.00101928174375906,-0.00146885699814413
-0.0444543317224816,0.0166187629518701,0.00231805337931393,-0.00201254979848505
-0.0375747305767881,0.0167416676574088,0.00462149664860801,-0.00130832003706465
-0.0144186216565358,0.0162321899548074,0.00318756784853776,8.3680157497501e-05
0.00753655966695625,0.015192667791078,-0.0005231315415394,0.0012863027752416
0.0158851592490376,0.0137281984946058,-0.0011318457007552,0.00172743831725605
0.0118544362827808,0.0119378822170854,0.00243026795012571,0.00149680443895972
0.00225818815814946,0.00991291938005302,0.00563684988469909,0.000973663850379173
-0.00193151268675454,0.00773669503217984,0.00716046339408438,0.000378729509716483
0.00427455246199376,0.00548409537550133,0.00656016999869902,-7.45636754001734e-05
0.012181408318489,0.00322085508371658,0.00311139768698522,-0.000357247354145984
0.0121730635473745,0.00100336851810472,0.000497863876233892,-0.000615861021663929
0.00603237488040033,-0.00112121333440424,0.00108391289226098,-0.000538461225765023
0.00144071178459772,-0.00311471635667327,0.00377589109796887,0.000245704343285053
-0.00045536815336969,-0.00494751816491024,0.00611574068006199,0.00123379275126273
-0.00909474375509739,-0.00659798463312864,0.00656235937186903,0.00182537651628655
-0.025783772295222,-0.00805180440566653,0.00720160182127003,0.0022363427734669
-0.0357326823566766,-0.00930125352825163,0.00894146828654002,0.0025175364717612
-0.0340717698162437,-0.0103444165493321,0.0120375741897166,0.00226328340177046
-0.029172972059846,-0.0111843878295318,0.0152062603595224,0.00148708663232817
-0.0262623362440715,-0.01182847427033,0.0162404121881195,0.00068724370079763
-0.0268210516187015,-0.0122874175263036,0.0195535765061775,0.000135287115910264
-0.0305697945925011,-0.0125746506196024,0.025922796894015,-0.000356896775390718
-0.0355509747064883,-0.012705600931535,0.0286299819365393,-0.000760868035187768
-0.036711679520921,-0.0126970487633483,0.0256306405925958,-0.000820786231225431
-0.0288415886777469,-0.0125665480544553,0.0212669280987422,-0.000603503718738561
-0.0197597069125043,-0.0123319134687276,0.0181576408863332,-0.000370214587646145
-0.0188680737690282,-0.0120107759330288,0.0177012783552389,-0.000455144049883196
-0.021172156072317,-0.0116202068470045,0.02238722889767,-0.00118358017500311
-0.0191387150435553,-0.0111764095830159,0.0277134780350532,-0.00215109798576215
-0.0137005117591262,-0.0106944755587594,0.0266855692157415,-0.00243983645173923
-0.0108215720022822,-0.0101882010847021,0.0196288694394906,-0.00181254177194635
-0.0126921427735799,-0.00966996035158276,0.0115745495304142,-0.000746673927552501
-0.0159968528807072,-0.0091506293135978,0.00722355883393712,0.000450811572128795
-0.0185500897344458,-0.0086395548214477,0.00434030737820323,0.00164315345139471
-0.0214096338929117,-0.0081445631451972,-0.000187858778999911,0.00254175288791943
-0.0235901126301851,-0.00767200197754771,-0.00118727658262594,0.00305507619371079
-0.0229904389894457,-0.00722681010091184,0.00512760109785803,0.00330592972414546
-0.0232109910634646,-0.00681260911381866,0.0163171543633107,0.0033750863632037
-0.0271710288354807,-0.00643181192153782,0.0239764550666977,0.0032161502442867
-0.0340280271673171,-0.00608574308122125,0.0211051179777958,0.0023852042583418
-0.0448356147869724,-0.0057747665334542,0.0113553759482874,0.000285024996874468
-0.0496676485766067,-0.0054984167316959,0.000738796003795998,-0.00269601893704791
-0.0349750698252145,-0.00525552968215202,-0.00639088425984,-0.0049717628242573
-0.00830162699954932,-0.00504437091467183,-0.00858681239373982,-0.00505343505859197
0.0157999602614558,-0.00486275790759718,-0.0109624487951836,-0.00274622561913892
0.0274377370259441,-0.00470817497554532,-0.01489668557905,0.000602216698282219
0.0210323916885463,-0.004577879090093,-0.0155569362252367,0.00290159848868885
0.00565424450547843,-0.00446899553238698,-0.0144262770188445,0.00325005970880002
-0.00498754912895526,-0.00437860266864498,-0.0138643364400316,0.00271114103820329
-0.00862419472433243,-0.00430380549078024,-0.0104718738254907,0.00228028326322695
-0.00829850969677788,-0.00424179787287353,-0.00261418225826084,0.00141231397842426
-0.0049949890269687,-0.00418991375904109,0.0041743101710977,-0.000367296614567368
0.000162753473442717,-0.00414566771975688,0.00320704455810908,-0.0020736500223028
0.00532873270566997,-0.00410678549307612,-0.0013591037689074,-0.00264113547204637
0.00862908345204093,-0.00407122526647022,-0.00330963816213121,-0.00224416231025229
0.00860199275148415,-0.00403719055679878,-0.00298693770375959,-0.0013210127567543
0.00582994751230505,-0.00400313561340517,-0.00140296956149349,0.000107698343184086
0.00505623992731613,-0.00396776430586752,-9.78727962307369e-05,0.00142118630065483
0.00509049429547412,-0.0039300234672202,0.000917255424589995,0.00147314080931858
-0.00120960029309936,-0.00388909164922345,0.00290510546271854,-9.68184983446137e-06
-0.0113874063668576,-0.00384436421225764,0.00408245133492747,-0.00216009576176171
-0.0185071370400008,-0.003795435622264,0.00283140455411305,-0.00388101094819156
-0.0210526577980553,-0.00374207976435224,-0.000230098417282422,-0.00461422457055708
-0.01987089580422,-0.0036842290105353,-0.00284287118812162,-0.00429244739746719
-0.0161177161919799,-0.00362195270049753,-0.00371327862491503,-0.00313055123924052
-0.0141852958995364,-0.00355543561211512,-0.00428581938593537,-0.00164985052018035
-0.015288767831172,-0.00348495691499496,-0.00419761991025516,-7.12693710058117e-05
-0.0128859119495287,-0.00341087001770966,-0.00296443911033626,0.0017319632500645
-0.00473021727125129,-0.00333358363941159,-0.00143760143545164,0.00359090148647631
0.00450821351557175,-0.0032535443605607,-0.000766980167473568,0.0052379793305248
0.00895623585112646,-0.00317122083677188,-0.00242996228111517,0.00650607473032342
0.0077316474967642,-0.00308708979509888,-0.00585812459166875,0.00687584232330522
0.00874012910265298,-0.00300162387406348,-0.00999732385372504,0.00533699629968854
0.0119934681438058,-0.00291528131773105,-0.0140389265891333,0.00103295513195951
0.0108544254277285,-0.00282849749029061,-0.0154529770584237,-0.00534340674061421
0.0100174544894485,-0.00274167814090502,-0.0136880635483158,-0.0107647838646469
0.0147841101996133,-0.00265519431879519,-0.0117263021010702,-0.0117391391825202
0.0197001384808624,-0.0025693788153596,-0.0101466041623235,-0.00776544218246361
0.0192415550234646,-0.00248452399312352,-0.00776576845331575,-0.00172278221455731
0.0168979478972131,-0.00240088084999515,-0.00686261928391319,0.00333542137632344
0.0163242241240224,-0.00231865916105616,-0.0081339141443711,0.00601619546970953
0.0161390513396893,-0.00223802853841346,-0.00601261660716793,0.00610922924123952
0.0161172109088898,-0.00215912025180611,-0.00146304867855838,0.00424136845036996
0.0170672872181322,-0.00208202965809781,-0.00387677313974485,0.00160001280544282
0.015971666130846,-0.0020068190959295,-0.0127324904430208,-0.000717374060298506
0.0120216931260448,-0.0019335211120235,-0.0172602301832759,-0.00199929353056975
0.00910405933314187,-0.00186214189742691,-0.0132816157411859,-0.00192692996818585
0.00843296774856963,-0.00179266482485535,-0.00590566991968058,-0.0008640446310132
0.010878643967164,-0.0017250539917604,-0.000538825239826114,0.000190494073781944
0.0154551490231343,-0.00165925768746669,0.000456738411901985,0.00083926641512325
0.016691610791786,-0.00159521171629735,-0.000488883181297679,0.00144657905849743
0.0171325305084392,-0.00153284252177009,-0.000963748769081025,0.00191674307530701
0.0232356863891654,-0.00147207006946237,-0.00167487276148589,0.00188930644005225
0.0269636594690866,-0.00141281045779257,-0.00229789397226976,0.00138031324760755
0.0235889374488153,-0.00135497823665489,-0.00505371910949435,0.000698313979557969
0.018540970792149,-0.00129848842341863,-0.00966601058644274,0.000783599440761424
0.0118360287041556,-0.00124325821422614,-0.0118019215616548,0.00236826534015182
0.0061345410275326,-0.00118920839580386,-0.0109384226553886,0.00455150640723212
0.00351190204568393,-0.00113626446905252,-0.0092496900151423,0.00585584396412326
0.00145494571749351,-0.00108435750065735,-0.00770468635359479,0.00556038927042602
-0.000481828778312747,0.00142593852626891,-0.00494849358076954,0.00393257859426153
-0.00612854383395274,0.0143494490347761,-0.0019654002711963,0.00209408328347233
-0.0192122332141457,0.0368570316565239,-0.000356425297500521,0.000828828846241131
-0.0334842127336527,0.0428430488688094,0.00112300381974939,5.63515504578469e-05
-0.0393185146070826,0.0143261431661085,0.00356623192401142,-0.000189385016206407
-0.0370475300891424,-0.0174816865310941,0.00646065244310024,-8.74314283822533e-05
-0.0315003711468161,-0.0208328501555605,0.00707661240360991,-0.000381741692798395
-0.019281515438508,-0.0112084072202541,0.0065830086951187,-0.001084949625027
0.00202518559424618,-0.00684353017933152,0.00848354073353137,-0.00177852585248132
0.0276453632276828,-0.00511266637906878,0.0107627296723953,-0.0023011482632752
0.0508053465054351,-0.00290435094615553,0.0117959741995107,-0.00234782237073716
0.0609840714012143,-0.000672750262020482,0.0118973053146852,-0.00187921486349731
0.0500809292896898,0.00105496139579882,0.00976308869622407,-0.00113762010483239
0.0249650258403547,0.00237179465407349,0.0057394766303764,-4.00965277889409e-05
-0.000204502062750495,0.00339035682301233,0.00324599799113901,0.00128805490012221
-0.0180568878777761,0.00412243609874874,0.00356391829336108,0.00204347895308716
-0.0288229586075759,0.00458056460207137,0.00409513174777952,0.0018424023460351
-0.0373633549560748,0.00479734688503478,0.00424530921533323,0.00122897791059767
-0.0444273822083064,0.00480684754476619,0.00635952469543308,0.00102199407903815
-0.0440028356269433,0.00464021905980378,0.00966634243371232,0.00159369182003226
-0.0343989262254627,0.00432797777268824,0.0123030474400446,0.00253678175168059
-0.0197203419631423,0.00389997939802275,0.0139335345107864,0.00299271991744947
-0.00585387302279325,0.00338439321563609,0.0126154352721611,0.0020437145970073
-0.00386654541043307,0.00280720400225205,0.0095650621794145,-0.000574257503865031
-0.0133442758625594,0.00219201103989339,0.00699008897326625,-0.00414587967335533
-0.0176110086275023,0.00155985238975862,0.00468583729526039,-0.00742919965263578
-0.0136820786586149,0.000929083156688035,0.00399259470665366,-0.00939653997030303
-0.0108283878975332,0.0003153427016606,0.0039966415324074,-0.00964308047762455
-0.0122952572017978,-0.000268406220906842,0.00383795033363739,-0.0080871941460457
-0.0206548626874595,-0.000647827042107183,0.00355947155582679,-0.00491696058801797
-0.0334953290316247,-0.00100608222948202,0.00166015781700091,-0.000899695284392613
-0.0426138299596691,-0.000295104885672707,-0.00168105172228965,0.00247559689058833
-0.0471482779594995,0.00052980918159605,-0.00539403705214759,0.0040039569982608
-0.0469047379304742,-0.00158294495503933,-0.00653989428409661,0.00390730568284105
-0.0389964243457948,-0.00386273036205495,-0.000782031872166173,0.00278629368718103
-0.0277305067779028,-0.00385966852332433,0.0112087737925223,0.000609049686141384
-0.0213224626167658,-0.00348255796552126,0.0192994941206023,-0.00206725901230609
-0.0114874667070218,-0.00345129102192451,0.0174469185129241,-0.00370877214721782
0.0197825612357925,-0.00344436281082938,0.0121297400551421,-0.0037197607679716
0.0712852278359816,-0.00334424612703265,0.00622838057201752,-0.00302618245501839
0.122755053970687,-0.0032119463832816,-0.00147447934955084,-0.00245316059842568
0.148595320772041,-0.00307329589535809,-0.00903886676514625,-0.00203682711679051
0.137677324639698,-0.00292321567549722,-0.012941959539786,-0.00163405318293411
0.0977730709688167,-0.00276228534189938,-0.0108664679234756,-0.00123666122524285
0.0448794941764896,-0.00259595190341997,-0.00795473864934699,-0.000621015543286866
0.000217730314236442,-0.00242821637336577,-0.00741742384810494,0.000583091858897256
-0.0226413974831664,-0.0022617447028636,-0.00702774822762392,0.00174660711021031
-0.0311026896913625,-0.00209894077970835,-0.00355130759331477,0.00100391226410359
-0.0402696875937373,-0.00194193071853732,0.00380607991556844,-0.00295558182173482
-0.0462317784473197,-0.00179239324630553,0.00736299526606163,-0.00853637956959868
-0.0377419296617104,-0.00165158595222146,0.00400707649654182,-0.0116713012250923
-0.0207890406110336,-0.00152040521801669,0.000215832794094711,-0.0100195124387575
-0.00513608065364455,-0.00139941808202195,-0.000398777135038275,-0.00522914727903356
0.0114289987091092,-0.0012888922195532,-0.000489105639756888,-0.000220987412247658
0.0292357603773062,-0.00118883314512158,-0.00270840855084871,0.00360590967763779
0.0431530276849979,-0.001099022822386,-0.00691108746175398,0.00594231390012189
0.0552164467510186,-0.00101905696380347,-0.00995700662766792,0.00670022443104646
0.0651742825435545,-0.000948381030076008,-0.0106282793528412,0.00633108292606865
0.0689323269671814,-0.000886324575839963,-0.0110647993826443,0.00576623333503681
0.0692921673232274,-0.000832133282089033,-0.0101975851853289,0.00561448104335976
0.0697149460128493,-0.000784998231421808,-0.00799084527565845,0.00563250347954213
0.0740192701986764,-0.000744082177448418,-0.00670659748148951,0.00490670218422226
0.0840716829385452,-0.000708542652802892,-0.0049626241579475,0.00329361015115591
0.0871934235076434,-0.000677551843392885,-0.00202252568760752,0.00185745779066166
0.0726586513889183,-0.000650313242818814,-0.00249479752446367,0.000799295694472404
0.0474354994003701,-0.000626075174438813,-0.00694235833781237,-0.000662814462741948
0.0180067225491893,-0.000604141327002373,-0.00992889174303364,-0.00249834014457773
-0.0148994535116419,-0.000583878496505785,-0.00887762852102359,-0.00387213137147672
-0.0403153845057233,-0.000564721762813776,-0.00577406338222928,-0.00421448941496479
-0.0446365999419252,-0.000546177355065239,-0.00382422456358966,-0.00369018239541976
-0.034878612960354,-0.000527823475816611,-0.000966992546820297,-0.00291309691173036
-0.0255044877689887,-0.000509309361300942,0.00405851860095411,-0.00220591735958559
-0.0168119614871206,-0.000490352855221354,0.00707954884864413,-0.00101738282661967
-0.00407746745425398,-0.000470736767201783,0.00594161242522036,0.00124665374970773
0.00903279713647105,-0.000450304275425863,0.000744311644196759,0.0035521825066964
0.0161477828227002,-0.000428953617180641,-0.00701158681535802,0.00428356676791214
0.016380900006175,-0.000406632291910145,-0.0129666439880831,0.00367705142370902
0.0104627361445269,-0.000383330979930359,-0.0141615870096106,0.00313279032109932
0.00412311140806988,-0.000359077356988381,-0.0127065600959969,0.00330487365067176
0.0075793217377358,-0.000333929961067953,-0.0120695819343524,0.00387765038113118
0.0249671336403711,-0.000307972243964333,-0.0135464635000369,0.00426714835937724
0.0473509828053456,-0.000281306916712005,-0.0150581857986723,0.00438227943931291
0.0587399096060821,0.000811673399203101,-0.0144924227453768,0.00436885925415524
0.0464438287986233,0.00705734394554237,-0.0100613960751913,0.00411877464758766
0.011985624413443,0.0170941191661735,-0.0017346525575381,0.0030950063657848
-0.0211716719047112,0.0228565301605604,0.00354861884842532,0.000560886436917251
-0.0294644932866954,0.0219044847516999,0.00387837535711734,-0.0029583337848114
-0.0163582500816833,0.014483818114916,0.00240567034781802,-0.00591603311413833
-0.00472021393678231,0.000236951881060866,-0.000204317221395851,-0.00706481698759503
-0.00896398606839375,-0.0119508189354303,0.000299120062240097,-0.00597650667298839
-0.0258007498360353,-0.0122359012064423,0.00525077279753778,-0.0036887251791721
-0.0434650158590721,-0.00682434691334378,0.0109432524104445,-0.00161901046542812
-0.0539246592583392,-0.00380481714557288,0.0149957282428918,3.32371364215609e-05
-0.0588344301720603,-0.00212851203593277,0.0163445738623749,0.00177988216192308
-0.0609079777634484,-0.000413161008063022,0.0148134521351761,0.00380737793287189
-0.060132835174905,0.00116561386116529,0.0105128308054812,0.00542695120822741
-0.0528621548734814,0.00238274989370142,0.0039810968368061,0.00586923136780439
-0.0383429538090038,0.00328671351793939,-0.000787913416220903,0.00562996249362986
-0.0251656572464156,0.00393946088103352,-0.00171530345214489,0.00565385331251774
-0.0148955543702676,0.00435978825296975,-0.000739229689009257,0.00563404347891259
-0.00793157419832767,0.00456676547835338,0.00120729803711091,0.00432135266087573
-0.00665036812971164,0.00458839784980436,0.00314429086422366,0.00135174696969647
-0.00206541048762742,0.00445324161172176,0.00503498978885247,-0.0021832900328597
0.00420549958708052,0.00418810487920859,0.00467126319529503,-0.005008014119345
-0.00103292030532509,0.00381879497020694,-1.79698401471876e-06,-0.00647632704429458
-0.0235785735500315,0.00336994298966312,-0.0032743669824121,-0.00645533444832651
-0.0554774352955966,0.00286442232302492,-0.000108828279502695,-0.00575844385445433
-0.0728174407292077,0.00232303521806373,0.00814939161878037,-0.00565715158299425
-0.0666912599980016,0.00176437075708724,0.0173808822476047,-0.00648152444226701
-0.0514788553852728,0.00120470935709825,0.0216793410127762,-0.0070933917749132
-0.0395952275895797,0.000657980368771651,0.0195359363824996,-0.00584950806161489
-0.035891607438367,0.000135783744082906,0.0160502705863492,-0.00252404311843898
-0.03550489572446,-0.000352535928333222,0.0138395643729495,0.00164390586533644
-0.0320674575428888,-0.000799775345277651,0.010552980696286,0.00533553398673994
-0.0279048878975166,-0.00120072645570748,0.00532435888643805,0.00746604652855122
-0.0245023036533517,-0.00155200592267724,-0.000159699380950981,0.00744361129458017
-0.0217571254242522,-0.00185186758662004,-0.00387349598259159,0.00585279341484566
-0.0189783630002524,-0.00210000476842026,-0.0050489981748902,0.0041195405258088
-0.0180112209615563,-0.00229734839160584,-0.00644534435594423,0.0032489205909636
-0.0245006880001958,-0.00244586612528677,-0.00947598928176562,0.00309416970273684
-0.0315866314161951,-0.00254836698843825,-0.0108861066696788,0.00306734636873314
-0.0308073942549994,-0.00260831508812416,-0.00786903092269703,0.00243326626070879
-0.0273692561155485,-0.00262965541985525,-0.0019591402462387,0.000655678138626115
-0.0285745342406368,-0.0026166539578988,0.00121345007546808,-0.00152681139019043
-0.0360526045370237,-0.00257375361418634,-0.00170453404231439,-0.00261620243083862
-0.044119761679087,-0.00250544705312851,-0.00839450947397444,-0.00182171012980206
-0.0481020667006898,-0.00241616682136421,-0.0135335203952857,-3.73349687924789e-05
-0.0494610573584514,-0.00231019278942395,-0.0131534703459435,0.000754068855143405
-0.0469150006998812,-0.0021915765074006,-0.00757005728708509,-0.000670116757165477
-0.0390077048914403,-0.00206408174819135,-0.00155919283146113,-0.00363988255224441
-0.0307996876486649,-0.00193114024757491,-0.000108586093242789,-0.0059508818590828
-0.0246996766330971,-0.00179582144709171,-0.00075974504443054,-0.00573414348799508
-0.0183531746662496,-0.00166081489914195,0.00315802885127169,-0.0031981752679021
-0.0132927262027228,-0.00152842389905023,0.0106740895854404,-0.000248464768243496
-0.0107141215856179,-0.00140056886068689,0.0118351325205016,0.00134054015495609
-0.00338025773835088,-0.00127879894495395,0.00226454011399792,0.00129743535621644
0.0144934422609813,-0.00116431047822872,-0.00961562395202242,0.000585731113549006
0.0357581820670846,-0.0010579707550691,-0.014764210030034,-2.76280799766135e-05
0.0504325740499904,-0.000960345900448555,-0.016686878985584,-0.000350510231105897
0.0558305054931124,-0.000871731566290873,-0.0204995252645021,-0.000297863224499061
0.0523454360625628,-0.000792185350115789,-0.0213087615251667,-0.000131414846181489
0.0403552617750784,-0.000721559945623207,-0.0173859476075507,-0.00013722994577327
0.0249668591489203,-0.00065953616201278,-0.0115020212988979,-0.00016672341881953
0.0143260706914602,-0.000605655077046941,-0.00548670858481791,-0.000245959930892422
0.00704206577303273,-0.000559348715304436,-0.00218367125918286,-0.000707087666523665
-0.00599912902101538,-0.000519968765033957,-0.000588478672488074,-0.00163598240002394
-0.0217963397775302,-0.000486812962405372,0.00152543539176699,-0.00264067287972692
-0.0291664509038004,-0.00045914887908978,0.00298564024751332,-0.00318221381898534
-0.0259964133555688,-0.000436234946702251,0.00315513134637521,-0.00289292037088965
-0.0151814771852913,-0.00041733863890585,0.00391153389699051,-0.0018324182182393
0.0028217808997733,-0.000401751808366848,0.0088946728099908,-0.000692352821027112
0.0246032584528824,-0.00038880324113461,0.0194160228727567,-0.000804113164358231
0.0436020224444315,-0.00037786854548961,0.0287616513187104,-0.00291833605206807
0.0588092505812215,-0.000368377536193964,0.028861854002876,-0.00515234580704001
0.0661874434147961,-0.000359819308926562,0.0210758006525993,-0.00493475510685581
0.0577606559347731,-0.000351745224167027,0.0127950636277954,-0.00244333019963595
0.0451181717951547,-0.000343770035728466,0.00993043759778363,0.000276133316948293
0.0475981861907167,-0.000335571407389835,0.0113867435636817,0.00167243700225165
0.0566304887169421,-0.000326888062549885,0.0101956716762531,0.00135871744717975
0.0546263547606488,-0.000317516807531617,0.00369023551969644,-2.34855979119489e-05
0.0432171682330559,-0.000307308659953272,-0.00170568057235243,-0.00119044227000105
0.0291716959059375,-0.000296164300458431,-0.00111279869483383,-0.00123969963109686
0.0165478132632747,-0.000284029049873616,0.0020445118425949,-0.000290402069158064
0.00841126073586087,-0.00027088755538005,0.00456598414053992,0.000680539373058227
0.00253337145439236,-0.00025675834930005,0.00531332696560327,0.000842236816969134
-0.00392699803292787,-0.00024168842326266,0.00627325713746363,0.000390334522807197
-0.00952732442639555,-0.000225747939459734,0.0106534199986771,-0.000345520400098265
-0.0135862373786358,-0.000209025179902279,0.0160452205413919,-0.00140923145789916
-0.0185964374238496,-0.000191621814518716,0.0193701978769001,-0.00254246270832845
-0.0229635010333298,-0.000173648549922511,0.020760679378719,-0.00315286439556494
-0.0208326405042071,-0.000155221203009146,0.0202077497679817,-0.00288526355234845
-0.0140280597640157,0.0067497598699279,0.0184901388982187,-0.00184130587983699
-0.0118936571308568,0.0276812504622375,0.0181758908561502,-0.000412451467873219
-0.0161292000086764,0.0460329598711751,0.0179170839065125,0.00122592087307595
-0.0189090430996902,0.040954395558931,0.0179034136262861,0.0034759457003389
-0.0184185740453061,0.020299639338047,0.0193063651633715,0.00616137054322162
-0.0216837568129067,0.000535647987907652,0.0172259245874665,0.00773751443405042
-0.0290656861913988,-0.013398822484656,0.0112592017795501,0.00693138131739623
-0.0325780355629706,-0.01834246913086,0.00396501572778889,0.00407699547984846
-0.0290340380421372,-0.0141621671983167,-0.00234596182450518,0.000518609660285228
-0.0251394020347418,-0.00809812546562238,-0.00273968583597227,-0.00253948896999577
-0.0285726895826169,-0.00422410558719577,0.00143489154946727,-0.00461496690463426
-0.032702017346969,-0.00131069979417753,0.00466950689214875,-0.00566088991821732
-0.0249682854336513,0.00134478722122344,0.00593324409333192,-0.00572368536976318
-0.00391718630439844,0.00354942914326135,0.00267132937397023,-0.00437833384054119
0.023195367065158,0.00521207867826756,-0.0052250421720525,-0.000274041037515011
0.0450470274599549,0.00640430356071934,-0.00812812431167988,0.00641062608101311
0.052597435859037,0.00718713111772477,-0.00517174527280079,0.0120070161308754
0.0457038180553893,0.0075985576552345,-0.00551440768623599,0.0132906527909891
0.0310451082369881,0.00768140625872092,-0.0090925719230928,0.0108239476627865
0.0119434038554766,0.00748381375091236,-0.0108744908780126,0.00667892768568058
-0.0144759001169979,0.00705300691524837,-0.0107728541298508,0.00252077768892655
-0.0397441244131735,0.0064339845126348,-0.00949008067800168,-0.00038193808158675
-0.0502164817965264,0.00566955936748153,-0.00895479928609058,-0.0017137481514761
-0.0490600867818963,0.00479976135855849,-0.0112917494087017,-0.00210848758349281
-0.0428726745118938,0.00386119885749743,-0.0131973320113896,-0.00255317098745992
-0.0319513698462517,0.00288670807584717,-0.0131338370374359,-0.00364242491286199
-0.0190999177974398,0.00190517231890807,-0.0125736918505575,-0.00489634462254349
-0.00567262143245916,0.000941437655268954,-0.0108929934313149,-0.00489239781502187
0.00953867133899461,1.63273860180023e-05,-0.00938640280256647,-0.00253394595536612
0.0246121717156536,-0.000853250267454692,-0.0106706318684332,0.00152269636094717
0.03708782607179,-0.00165411971875623,-0.0135718730980088,0.00552010712710875
0.0433267964407451,-0.0023765973855759,-0.0145446367866567,0.00794575770657744
0.0404799963656855,-0.00301420638505444,-0.0126828902746448,0.00808931212488475
0.030894776287059,-0.0035633592853879,-0.00890235262839487,0.00603616167311012
0.0212507104501506,-0.00402302086625531,-0.00352882745929408,0.00218030052294915
0.0197227974847902,-0.00439436153598683,0.000513140385758922,-0.00220170389101008
0.0267843864567244,-0.00468041066354564,0.00129997860579986,-0.00496269604624923
0.0354647753478745,-0.00488571774681484,0.000650724583323105,-0.00489950440107725
0.0399675701204766,-0.00501602802036247,0.000577171426629757,-0.00252043561942183
0.0384611120819681,-0.0050779778173444,0.00339879970563615,0.000614186477138585
0.0333715393727683,-0.0050788137762074,0.00891026329114551,0.00264442366416727
0.0277757036219458,-0.00502613884501258,0.0117437970740387,0.00296049473255696
0.0208521994629872,-0.00492768699603992,0.00828285928271691,0.00247148238623068
0.0136892946781471,-0.00479112763021454,0.000911571970456486,0.00186280832057331
0.0148914653397051,-0.00462389983063068,-0.00731357375662313,0.00138307967362971
0.025250445445407,-0.00443307591973472,-0.0125893881881279,0.00125147893924466
0.032630207788552,-0.00422525318462588,-0.0116433837917805,0.00137674896282613
0.0328699452440731,-0.00400647215642807,-0.00659515320495172,0.00151553407323421
0.0334305300054591,-0.0037821594574313,-0.00294771649831501,0.00142952228785929
0.0389776096599436,-0.00355709295682634,-0.00274744908930252,0.00103072105103046
0.0463925189390896,-0.00333538679418427,-0.00337105588826079,0.000579553386796345
0.0515708937341202,-0.00312049373023126,-0.00306817653171535,0.000273229714383717
0.0548742924477104,-0.00291522225734793,-0.00366874905493995,0.000135234338195422
0.0555093373681085,-0.00272176593767695,-0.0055641260189127,0.00018675669431813
0.0488359498150542,-0.00254174252485592,-0.00499568637026574,0.00022234972881266
0.0335673955692657,-0.00237624055654266,-0.00124063526955192,6.96261313298256e-05
0.0150468509982658,-0.00222587126985502,0.00314390522850328,-0.000295252643680584
-0.00119052038793546,-0.00209082388191749,0.00431835725410146,-0.000810469968180019
-0.0184951084380743,-0.00197092248489488,0.00242898559911898,-0.00128207689290151
-0.0363945992033837,-0.00186568302202637,0.00455030031318709,-0.00180977639596412
-0.0434467162160836,-0.00177436903180546,0.0110216712210955,-0.0026668804924167
-0.0398385276127661,-0.00169604506605962,0.0152913314754545,-0.00362840338819964
-0.0343130322618896,-0.00162962689955924,0.0162349440047246,-0.00390234072226598
-0.028407047346951,-0.00157392785009129,0.0149373937017608,-0.00315406736945639
-0.0199428085179502,-0.00152770071555115,0.0102706306274543,-0.0020290563113029
-0.00854755042932209,-0.00148967500631053,0.00251665194163163,-0.00133587711540804
-0.00126010326577122,-0.00145858930522423,-0.00282233337358719,-0.00117584761829471
-0.00241617718541997,-0.00143321872324836,-0.00162564365491191,-0.000843940914685941
-0.00431229905481379,-0.00141239753526919,0.00190140951755216,-9.18643543804725e-05
-0.00353296982438066,-0.00139503717856104,0.00612912584411893,0.000172040870504645
-0.00488719482929266,-0.00138013987570257,0.0120020056612325,-0.000665644473165586
-0.0042282335466579,-0.00136680820574283,0.0126246921347651,-0.0019380205920833
0.00757715588239771,-0.0013542509929371,0.00383791494666542,-0.00270275795708715
0.0223355313772692,-0.00134178591289632,-0.00739742201925048,-0.00254190523221643
0.0211216695427168,-0.00132883923294875,-0.0156414753077997,-0.00158555862368039
0.00148442986111295,-0.00131494310848013,-0.0202298276151327,-0.000453831695619974
-0.0178296484765929,-0.00129973085163618,-0.0187815184322488,0.000501906009649314
-0.0101375276340145,-0.00128293057467582,-0.0103984341019607,0.00132595316543976
0.0267097431146076,-0.00126435758900642,-0.00162573730152394,0.00162087842260255
0.0579810371803397,-0.00124390591406558,0.000552972038996158,0.000918462571531428
0.0623808355114023,-0.00122153921915932,-0.000785927455360267,-0.000440130868023175
0.0507989049928933,-0.00119728148743975,-0.00164528539889881,-0.00149279411009895
0.033676843444305,-0.00117120765558864,-0.00324432172690805,-0.00173156554050539
0.0151145805096926,-0.00114343444654045,-0.00545397943513244,-0.00175726335290456
-0.00472977000949529,-0.00111411157663329,-0.00681755189766318,-0.00210807422946199
-0.0274193733238038,-0.00108341348371985,-0.0068174209510201,-0.0025693180018616
-0.0389008121420679,-0.00105153168959903,-0.00763944073474872,-0.00328715633089312
-0.0272043826465309,-0.00101866787919902,-0.0105834128387007,-0.0041735155898406
-0.0108271156820956,-0.000985027750618283,-0.0114525629863722,-0.00395593140355072
-0.00668213537082641,-0.000950815664673013,-0.00725310405860479,-0.00226946650928485
-0.00643919155017166,-0.000916230100184021,-0.00205646217045028,-0.000493738390546289
-0.00451495666348238,-0.000881459901928563,0.00116037654335733,0.000177622301160005
-0.00402866031160177,-0.000846681291983448,0.00417143340519787,-0.000137395928851894
-0.0031609194349792,-0.000812055601983866,0.00553243595159983,-0.000344709983023198
0.00201515587811456,-0.000777727673546994,0.00250271687252785,0.000443169988288715
0.0131296180832605,-0.000743824866468903,2.93419088151234e-05,0.00205831336015077
0.0281247817051501,-0.000710456609214345,0.004961094070589,0.00338285579674354
0.0421747942736739,-0.000677714423326097,0.0142208378558381,0.00331659360014369
0.0501099618298837,-0.000645672352459018,0.018546682863826,0.00201679555289113
0.0493000030224163,-0.000614387727587749,0.0141165943174362,0.000630391895188664
0.0358534430741975,-0.000583902202164217,0.00653401754218829,-7.13808690917907e-05
0.00800337819239458,-0.000554242994458583,0.00160646549987255,4.86415537222765e-05
-0.0205909982649963,-0.000525424278683529,-0.000303253584541443,0.000722896856070499
-0.0383440443545585,-0.00049744867158464,-0.000345704181432583,0.00148538935846903
-0.0509735841164574,-0.000470308766724663,0.000362920202332036,0.00201379482945655
-0.0631092259925132,-0.000443988674538902,0.0018638306482125,0.00208338276953746
-0.0704474266246115,-0.000418465532185789,0.00453861382502088,0.00190782296662162
-0.0686316133171424,-0.000393710953123828,0.00673293203887,0.00190534645661655
-0.0586353429279473,-0.000369692392087859,0.0073374338859662,0.00186447794668386
-0.0445794068365461,-0.000346374406600221,0.00617974643861828,0.00140342882979555
-0.026596488940529,-0.00032371980124016,0.00217043567108318,0.000709299904252909
-0.0044736134496369,-0.000301690645588551,-0.002124165627465,0.000136100686043488
0.0140438891608232,-0.000280249160950746,-0.00318125599330719,-0.000355873538007424
0.0197696322882412,-0.000259358474676893,-0.00228006404832203,-0.00100041553989858
0.0139736617565093,-0.000238983244088588,-0.000571222291678156,-0.00177373908756406
0.00654411908478906,-0.000219090154713059,0.000888405684568275,-0.00237825185318861
0.00127748630319488,-0.000199648299700875,0.00115608533854668,-0.00276996623014035
-0.00657555809034222,-0.00018062944903641,0.000866136771979548,-0.00304430070573931
-0.0174522245525574,0.0037729729800957,0.000404512852768412,-0.00283754051674983
-0.0253989086400563,0.0147808997270372,-0.000470088284024804,-0.00198812163927774
-0.0260286676174944,0.0233840511869169,-0.00250098458088505,-0.000846209182610703
-0.0198629181858875,0.0231377350774828,-0.0038281505918872,0.000323722827620063
-0.0120460018890196,0.0197028057375702,-0.00427843610007193,0.00130761858152779
-0.0102859986707929,0.014536909855777,-0.00470332320461079,0.00201052339046545
-0.0197352640769445,0.00556361726472219,-0.0027837472119476,0.00227646504273922
-0.0371665878255679,-0.00422873019110619,-0.000751213046617311,0.00196638470147255
-0.0554918378078891,-0.00993114101620475,-0.00138512395662143,0.00130909787803717
-0.065672208304827,-0.0105149853314904,-0.000453594618538592,0.000498491968410466
-0.0585721741314615,-0.00754310999988667,0.00295614672233599,-0.00060956933998221
-0.0390913669745024,-0.00378396276341135,0.0033271151712248,-0.00197435956677168
-0.0217252463179484,-0.00113714547548306,-0.0022510854444927,-0.00285749281615767
-0.0132953629286875,0.000874511201308829,-0.0106923982046434,-0.00267569341689363
-0.0121733338885416,0.00259023578367196,-0.0149630292059886,-0.00147799369329333
-0.0130297137723821,0.00395079464201163,-0.0107360592981566,0.000124037346976322
-0.0116707114464056,0.00492791979825214,-0.00510863730959597,0.0010574644175825
-0.011995830659495,0.00556724462593268,-0.00816962194581222,0.000856998727273989
-0.0154070337529618,0.00591303944518229,-0.0155039263280329,0.000136820883937407
-0.015075302849887,0.00599937491586234,-0.0177924729473077,-0.000417185174651202
-0.0127477578107613,0.00586171393149309,-0.0169386179463474,-0.000652515429068985
-0.0106696682709928,0.00553727564454232,-0.0201070057226902,-0.000556887300420171
0.00017720494664239,0.00506206291665458,-0.0258044760710415,-5.10230314910108e-05
0.0228929434447092,0.00446998051656501,-0.026756361999869,0.000785052164064791
0.0438194204714505,0.00379268545974305,-0.0217173586016837,0.00113446153433709
0.0467517055753191,0.00305923056380606,-0.0129089665818724,9.57467655989691e-05
0.0308989663173948,0.00229572379276306,-0.00840247875705218,-0.00164210935970151
0.00543599946187028,0.00152515227315476,-0.0147598111553563,-0.0026489627093536
-0.0110406374048838,0.000767319479352324,-0.0206244950069115,-0.00264028657209985
0.000494343807469618,3.88560111898727e-05,-0.0145806763640601,-0.00226918811009463
0.0286425754875827,-0.00064670153506388,-0.00402310352897566,-0.00200999657080503
0.0465574251983091,-0.00127877106547355,0.0016785469814109,-0.0016143404164533
0.0438753682234952,-0.0018495377697503,0.00362021110728822,-0.000968121419546069
0.0223809763655225,-0.0023537311071772,0.00362307980144066,-0.000330726597885645
-0.00690871417956961,-0.00278837612401051,0.00145073416312014,0.000592173812271346
-0.0268747575373503,-0.00315252838179501,-0.00373463813005352,0.00227458825580566
-0.0315253896251199,-0.00344700095525166,-0.00913868190418818,0.00445507849292738
-0.0295459049660454,-0.00367409090625173,-0.00725451407542354,0.00598105470932694
-0.0300337561768126,-0.00383731155183508,0.00345881596767575,0.00535625172809386
-0.0325297387462613,-0.00394113579620121,0.014367879353654,0.002402399346792
-0.0320068501542798,-0.00399075478392708,0.0157304574907839,-0.000475190187387095
-0.0256675678668816,-0.00399185516380946,0.0141004659239311,-0.000884553079011215
-0.0151808387139738,-0.00395041734977039,0.0176933062900975,0.000672367088618136
-0.00505247600956221,-0.00387253633952294,0.0123142365195724,0.00222786131328353
-0.000785724381794677,-0.00376426591023916,-0.00689756696722284,0.00265020385734516
-0.00623402641369452,-0.00363148635774515,-0.0213873284687228,0.00183843103835843
-0.0130489468703767,-0.00347979538388748,-0.0219291291844561,-4.8251889070585e-05
-0.0121692603267787,-0.00159286699113635,-0.0145313230793515,-0.00269447692608089
-0.0102436031686804,0.00911764941635841,-0.0074420506688624,-0.00514634097816885
-0.0108875282118146,0.0270604224382557,-0.00552704213845519,-0.00558265510815783
-0.00950754893563469,0.0338100234402156,-0.0063734160728373,-0.00236679476241698
-0.00529852175383721,0.0230345712752688,-0.00657669178591245,0.00379910641274918
0.00169146439728765,0.00914880247735148,-0.00538333884792473,0.00936200511747935
0.0117154845549612,0.0030336017692687,-0.00289108268118267,0.0109087523904153
0.0220224737379453,-0.00375554165687442,-0.000947260729822211,0.00800800772269073
0.0299788295999178,-0.0151638609918634,0.00117668586360559,0.0026875378520012
0.0324648487139397,-0.0170092510695183,0.00235979416149708,-0.00254508895409215
0.0268114830419389,-0.0102526010199785,-0.00231034529533861,-0.0062667061390773
0.0225315840203173,-0.00553139331957279,-0.00964925920759363,-0.00810615516480927
0.0269122595924019,-0.00288929123341605,-0.0122116618756971,-0.0077406512575305
0.0274370692099909,-0.000498765254899975,-0.0126654283755774,-0.00510256259917357
0.0167105333676882,0.00166411587510779,-0.0145544622058153,-0.000880690236141937
0.00305175679845912,0.00331331566286706,-0.0157005860170887,0.00332379190038226
-0.0100288937149565,0.00448084198640128,-0.0162661477454664,0.00500445218169371
-0.0230535434689229,0.00525849883602332,-0.0147991255662536,0.00283760336171547
-0.02897474231938,0.00568824310270737,-0.0108025457013894,-0.00144288888643294
-0.0227066270383536,0.00580470876882872,-0.00879083411450732,-0.0042232457032285
-0.0109393924573024,0.00565243456058798,-0.00902364881472843,-0.00290094150846983
0.00168030037820001,0.00527719266806582,-0.00904486984504722,0.0015258666732822
0.0146435088863632,0.00472185631808286,-0.00665257941742357,0.0056693288735135
0.0247805451397175,0.00402690731886749,-0.00193261187358853,0.00742019194731375
0.0317056171062306,0.00323035710660715,0.000274435210960131,0.00662068141324492
0.0336491202736139,0.00236705409582941,0.000374967438298613,0.00409493205849874
0.029606482633261,0.00146826108721533,0.0006875169417837,0.00124402014042629
0.0232750256881041,0.000561492768885432,-0.000317218347894371,-0.000685663734961952
0.0149565240433005,-0.000329554294386457,-0.00188058852112333,-0.00119678908164578
0.00542215422069215,-0.00118499435976601,-0.00270353341921366,-0.000800462629941541
-0.00398662561332011,-0.00198865636755433,-0.00354364339680578,-0.000575668855080452
-0.011944373697642,-0.00272791347421586,-0.00516704960736517,-0.00118554426012362
-0.0145479938057223,-0.00339345686315949,-0.00685290184281983,-0.0025813278303554
-0.0118851865077532,-0.00397902718213244,-0.00701753838916816,-0.00435585613114992
-0.00378614801879229,-0.00448111521450969,-0.00492756605688177,-0.00594995869488906
0.00702877250279028,-0.0048986430671706,-0.00344352061901132,-0.00655727774982139
0.0131147524143735,-0.0052326360981421,-0.0027384909859275,-0.00546819229884475
0.0106867317534045,-0.00548589442277086,0.00147687425263354,-0.0029737548884648
-0.000671898632469716,-0.00566267154167854,0.00771432913596623,-0.000388492950585294
-0.0139078326855023,-0.00576836639603303,0.0124058818245055,0.00102113229605449
-0.0214772434084242,-0.00580923393806736,0.0132817905468205,0.0011306870032091
-0.0264144606355364,-0.00579211814046815,0.00745853960006783,0.000941100438848744
-0.0308222539803938,-0.00572421028582956,-0.0011987101769591,0.00121576971994566
-0.0334742122633737,-0.0056128343884539,-0.00636271742622722,0.001995298706946
-0.0318680656128273,-0.00546526071248611,-0.00804527547853841,0.00291840043787405
-0.0213913640846847,-0.00528854756880483,-0.00755990169773347,0.00337941950376742
-0.00876300083694202,-0.00508941090077722,-0.00544393370925375,0.00327293617913845
-0.00432765999243444,-0.00487412060546707,0.000202597694838727,0.00264867514900435
-0.00238481235754098,-0.00464842207917709,0.00940002444809018,0.00123501162029192
0.0115386610823375,-0.00441748111937838,0.0158814349781533,-0.00064561551149663
0.0397977033814682,-0.00418585005270292,0.0174293832190546,-0.00201888904014681
0.0678150026216177,-0.00395745278303278,0.0181511673711079,-0.00241904093178354
0.0776338324746551,-0.00373558635616942,0.0211547347381996,-0.00232374772796258
0.0597493843603494,-0.00352293660912934,0.0254947392236643,-0.00224133751656389
0.0245038246918328,-0.00332160550327387,0.0270188620296534,-0.00220412812798053
-0.000762082761382052,-0.00313314782199487,0.0228159351218246,-0.00197556111376138
-0.00632393434599238,-0.00295861503630069,0.0160592302098618,-0.00118020221018775
-0.00734750634180048,-0.00279860429666739,0.012097900403115,4.00897070040871e-05
-0.00829146676036848,-0.002653310688664,0.0125413551880143,0.000800111454536774
-0.0061729886267235,-0.00252258108552471,0.0148968158540539,0.000688645044435759
-0.00898520693348461,-0.00240596813624176,0.0173251497128685,0.000235483375051035
-0.01696758121525,-0.00230278313664884,0.0187924841816681,0.000156006263856329
-0.0180723721245682,-0.00221214673823379,0.0169298653060411,0.000814876882606854
-0.00553619576356125,-0.00213303665042361,0.01345450354677,0.00173081825929449
0.0115952023724829,-0.00206433168325042,0.00940129561568163,0.00196895170337631
0.0189538575143446,-0.00200485165563405,0.00539865483088762,0.00137819223098813
0.0145624585075654,-0.00195339285780153,0.00341436870962701,0.000581610138680828
0.00551726538956803,-0.001908758903108,0.000435813348796079,-9.38303419424765e-06
-0.00151074369318494,-0.00186978693368927,-0.0035311262340973,-0.000510514616304444
-0.00321034261627722,-0.00183536925566756,-0.00466899957640725,-0.00124877643460618
-0.00197017194392211,-0.00180447057299704,-0.00319730401119923,-0.0020932453545525
-0.00292964303380508,-0.00177614106503192,-0.0011178769772297,-0.00224235103898301
-0.00915394387016243,-0.00174952561224956,0.00154137062396317,-0.00142770964453095
-0.0204268154877845,-0.00172386951836421,0.00597097844589655,-0.000201914969152112
-0.0347946149181,-0.00169852110654749,0.0109203209362302,0.000879815388511337
-0.0476571015900957,-0.00167293158405402,0.0136733455273038,0.00140938076513002
-0.0515533168839496,-0.00164665257473034,0.0147421783114138,0.00139538853768362
-0.0466777972029702,-0.00161933171418455,0.0173965222832272,0.00100379611505963
-0.0374893426772723,-0.00159070668934951,0.0217649794778194,0.000233603507746288
-0.0242623326584563,-0.00156059808432267,0.0232120628841257,-0.000614900314068293
-0.00968835442111528,-0.00152890136912335,0.0202947766046682,-0.0011045934816373
0.00210349443591054,-0.0014955783387237,0.016975774043325,-0.00117075332806535
0.00697432714720982,-0.0014606482776879,0.0154037280774987,-0.000957485659935168
0.00616630700268507,-0.00142417909206226,0.0135208358792609,-0.00053446159541858
0.0071532241484188,-0.00138627861584694,0.00987699788609557,-8.9304553977633e-05
0.00927510982809077,-0.00134708626531635,0.00653323664137618,-3.15639736199744e-05
0.0122273274606896,-0.00130676518136674,0.00490192777248365,-0.000350655164958398
0.0169675734708621,-0.00126549496858419,0.00484580573252387,-0.000336908974831358
0.0173868312194555,-0.00122346511034092,0.00678199656038772,0.000541696849852944
0.0228676075332218,-0.0011808691122608,0.00865475761267568,0.00203511367096413
0.0440609985925947,0.00279708179630753,0.00669226115787892,0.00320907222105691
0.0552244999074859,0.0114525344079397,0.00210213990969553,0.00307936039532217
0.0346521173492011,0.0185889456880102,-0.00137489190282129,0.00152779555332571
-0.00514592542192918,0.0208873882618229,-0.00161673055199059,-0.00093339681113899
-0.0485184832475721,0.0167750137083729,0.0013583958060609,-0.00342677630383338
-0.076023209533305,0.0124270339402777,0.00278682022963292,-0.00451327500135846
-0.0771492731286936,0.0164766248554574,-0.000824397270785183,-0.00340778343507729
-0.0706736565481399,0.0181837275483441,-0.00713233708845342,-0.000896660012797057
-0.0702840484871398,0.0023248541262839,-0.00794491283989486,0.00153132772773873
-0.0661942919405733,-0.0162979627400575,0.000453976475306081,0.00272207996269442
-0.0538266308279029,-0.0169175810948066,0.00960224451259561,0.0023556824849546
-0.0478696676550298,-0.00879712094880661,0.0138180959252042,0.000731038463480368
-0.052504402855919,-0.00435150722604767,0.0151405916164275,-0.00143645619297674
-0.0472908555710185,-0.00200374084811186,0.0144990124068236,-0.00291217535433389
-0.0217227801916907,0.000379057613874811,0.0117775908610828,-0.0029168798115184
0.00674160709085372,0.00254319363185818,0.0100587973049113,-0.00190092042855282
0.0289116250060188,0.00415040048799814,0.00952762327310703,-0.00085674472535087
0.0547725220321441,0.00528027902140749,0.00405022193208989,-0.000258906480942999
0.0794870617943404,0.00603343733066513,-0.00543049892595184,-6.60977088901349e-05
0.0879310720160721,0.00644340614262848,-0.0102596444732837,-0.000136703704343345
0.0777530389668191,0.00654295707263988,-0.00846708123224669,-1.48796411022806e-05
0.0582599559410163,0.00637765395541921,-0.00487298961532555,0.000335031761554075
0.0404129028826229,0.00599312035666518,-0.00318809362050033,0.000312290704435117
0.0273855570392244,0.00543155536995144,-0.00228593373508986,-0.000113570538066308
0.0190945486139389,0.00473295351092194,-0.000294396848880528,-0.000366527608562923
0.0210318339624624,0.00393492847626398,-6.51360948119815e-05,-0.000292452274888285
0.0324679623931649,0.00307191020660628,-0.00421982682099687,-0.000112145888643092
0.041331426456726,0.0021747488760979,-0.0116506283902953,0.000374323590460416
0.0404471309922351,0.00127057928348601,-0.0184542566822396,0.00131261946559079
0.0323843062363463,0.00038275243330761,-0.0205724161073721,0.0022682246859959
0.021507581724919,-0.000469157324056743,-0.0190149866548384,0.00288520907247634
0.00931680985286121,-0.00126925353180295,-0.0188023433999404,0.00321158237008115
0.00196809368277041,-0.00200514563304461,-0.0196060059850729,0.0032893045814501
0.00392467210647921,-0.00266772295979691,-0.0173196985133926,0.00309590530158463
0.00735842818040713,-0.00325088721637173,-0.0163405000584129,0.00269450072090375
0.00852847531810019,-0.00375125478884727,-0.0208225228076782,0.00190036178979301
0.00948279809339794,-0.00416784014038597,-0.0253359973962112,0.000460604243160066
0.00775788721186206,-0.00450173040416126,-0.0257559886546973,-0.00138946708497861
0.00409628560179172,-0.00475575986811027,-0.0227115326986568,-0.0029511869318506
0.000152971181055554,-0.00493419177760432,-0.0155069096108172,-0.00331675332811151
-0.00449757950160879,-0.00504241366352833,-0.00579774031668046,-0.0021515393253821
-0.00302727480096606,-0.00508665119538387,0.00141503223769774,-0.000221809491028229
0.00481533813665749,-0.00507370440610792,0.00550439367598174,0.00133097782203305
0.00873972213061376,-0.00501070906601225,0.00923973600586009,0.00190181610359314
0.00635950923547826,-0.00490492500676955,0.010755577817112,0.00173382625355724
0.00144691957616537,-0.00476355231959709,0.00673091061073858,0.00154868112581779
-0.00660362026579517,-0.00459357558106916,0.00177103930504953,0.00174013653767525
-0.0152665258508863,-0.00440163559761143,0.00272788892352653,0.00197419538724018
-0.0151593840128653,-0.00419392760517426,0.0089568286896099,0.00135259670009188
-0.0101377736011997,-0.00397612441070647,0.0123426580146762,-0.00059552849779269
-0.00950348161714516,-0.00244166221253058,0.00761781809161825,-0.00276344489817272
-0.0101360878299431,0.00346702063170488,-0.000521018739564158,-0.00329558052522845
-0.00958883439936634,0.00730708553685249,-0.00695226034730009,-0.00164508874321534
-0.00717000023055471,0.000590190128799393,-0.0116223767979518,0.00092274304310811
-0.0038900892195407,-0.00687830782799329,-0.0156403915276436,0.00328052474134701
-0.00574297468844465,-0.00671627124237119,-0.0193340392697615,0.00536537714976225
-0.00988391127325708,-0.00444163215391833,-0.0184744522109852,0.00682041455914613
-0.0111470845670409,-0.00356102761337897,-0.00999979670797042,0.00663457028305232
-0.0150843766159897,-0.00313487719050187,-0.00108781174709357,0.0041076266319727
-0.0252434326640038,-0.00256547298911305,0.00194168032810167,-7.03018217520241e-05
-0.03723539659638,-0.00201492830949111,-0.000399975264803055,-0.00412196865305963
-0.0413708253893236,-0.00158439209005575,-0.00720716336738648,-0.00613903643209521
-0.0224138787936436,-0.00124274039717141,-0.0103578794125917,-0.00507899918735357
0.020059141836227,-0.000967701554276454,-0.00186552997843489,-0.00220739012431266
0.056592658343494,-0.000758430534950046,0.0111883926685385,-4.75131406655156e-05
0.0538395798851043,-0.000611629745669756,0.0216273001032543,7.67984688755745e-05
0.0041478570326855,-0.00051969058004999,0.0329063306226439,-0.00103874095161627
-0.0679507457833483,-0.000475058037036784,0.0453841808811908,-0.00162875658023149
-0.124469026160103,-0.000470788086068716,0.0532798274564197,-0.00111952543481143
-0.146948997008561,-0.000500006083814361,0.0534834074809299,-4.25779151260993e-05
-0.140475396378516,-0.000555986310320882,0.0447312230753369,0.00139511366178005
-0.119264435498547,-0.000632388769260517,0.0288903625488037,0.00262328529132686
-0.0988714350314454,-0.000723359502212712,0.0137513679492693,0.00214681137181409
-0.084553126133387,-0.000823575713038801,0.00928101642709326,-0.000224494902930699
-0.07006176774603,-0.000928288216737099,0.016593978785629,-0.00283305535339156
-0.0534669998719696,-0.00103334969256465,0.0225310025788352,-0.00456381031896697
-0.0371853710630251,-0.00113522234621477,0.0213518899934507,-0.00529888984322797
-0.0201946600870485,-0.00123096966965419,0.0200392355604003,-0.00498504336596802
-0.00339090397445492,-0.00131823613341717,0.019343333124444,-0.00393655739733951
0.0110759492040806,-0.00139521670428626,0.0155711839541982,-0.00265593914468721
0.0297647006377605,-0.00146061813106944,0.0125729974280828,-0.00133501780366384
0.0577421702758412,-0.00151361413212354,0.0149477807670534,-0.000415962712618964
0.0826434606392054,-0.00155379643229739,0.0191839067919683,-0.00038292473794397
0.0909601212543601,-0.00158112336020938,0.0232614113287881,-0.000930224183172636
0.0853494849952727,-0.00159586752703424,0.0265233240774391,-0.00136996386394967
0.0673165363016515,-0.001598563916614,0.0268921621423474,-0.00174133234741696
0.0292359008009422,-0.00158995951387114,0.0248572402624917,-0.00223417496712619
-0.0186578941808748,-0.0015709653985008,0.0218431865027362,-0.00200116823648809
-0.0549891618832596,-0.00154261204012065,0.0190743152462459,-0.000391787952801564
-0.0701651313564286,-0.00150600835144717,0.0178897783007203,0.00157033931347519
-0.0568199247718966,-0.00146230488944876,0.0195621689146038,0.00230627485274466
-0.0201244311768298,-0.00141266144308528,0.0204259558421413,0.00159322306170074
0.0183262288276457,-0.00135821911144854,0.0174853736031228,0.000686201498384065
0.0451756061433799,-0.0013000768585162,0.0134075024338293,0.000609020366293718
0.0489639027540847,-0.00123927243049965,0.00885343126730749,0.000982023913294441
0.0304818966413561,-0.00117676743867815,0.00422207210943965,0.00124344036689776
0.0157282866868559,-0.00111343634407056,0.000925445452188016,0.00129850429475972
0.0180204323907531,-0.00105005902946215,0.000566519722307903,0.00102711792801034
0.0290440666010777,-0.000987316607977272,0.00486240679594221,0.000427431314386385
0.0392326663211259,-0.000925790094402089,0.0122206227402391,-0.00066149510802474
0.0461474113406205,-0.000865961554291757,0.0193748199848421,-0.00223070555360216
0.0528210387156341,-0.000808217345176697,0.0234083224711472,-0.00334908709750761
0.057096064201092,-0.000752853072362025,0.0243852896205896,-0.00327145173650534
0.0552736041183918,-0.000700079897419838,0.0230768038945073,-0.00236126338164591
0.0531406112756116,-0.000650031859098317,0.0178290724448197,-0.00116623512222328
0.0563675119145457,-0.000602773892609723,0.00935610617823218,2.57548772870072e-05
0.0603108742677336,-0.000558310262886984,0.00158694498787723,0.0011015594228606
0.0596670080198654,-0.000516593159183448,-0.00160357794788124,0.00202446683306858
0.0564931538035918,-0.000477531231388555,0.000524867117335258,0.0027472612907141
0.053195672131527,-0.000440997881597905,0.0032941073823987,0.00314372001556114
0.0452855131464319,-0.000406839157142256,0.00272378784862039,0.00303387931329531
0.032115794811943,-0.000374881122674762,0.00164695827716495,0.00244989161291453
0.0236978605387322,-0.000344936618581872,0.00137285311897398,0.00176110639315953
0.026369869552716,-0.000316811340450053,0.000128246004648383,0.0016541598007255
0.0348295890739186,-0.000290309199291036,-0.000276933187625267,0.00190393858184001
0.0401774721159385,-0.000265236944502829,0.00141391591198171,0.00135493318708139
0.0375044523415668,-0.000241408050991532,0.0036292736119189,-0.000245962098036533
0.0272230750989604,-0.000218645888482538,0.00616672488806644,-0.00187868406999727
0.0110842218458579,-0.000196786204812872,0.00882000457087241,-0.00207962876060059
-0.00685862587459654,-0.000175678966067869,0.0077101143033223,-0.000581790786984908
-0.0205387667960289,-0.000155189604877266,0.00314214424592848,0.0011719063789263
-0.0253026019174061,-0.000135199734267379,0.000273587325863358,0.00181550746433377
-0.0178559545237828,-0.000115607388331566,-0.00647079557696608,0.0013209019592141
-0.00401320396941959,-9.63268529163049e-05,-0.0226774490507589,0.00100964702562124
0.00665101593903356,-7.72881496920808e-05,-0.0369847183082151,0.00171398516309802
0.012173370610847,-5.84362357107846e-05,-0.0392179895317903,0.00225826104604996
0.0123578860288259,-3.97299780445434e-05,-0.03008009330357,0.000807520204467665
0.00621771347643707,-2.11409595707472e-05,-0.0157128013904873,-0.00302657956049223
-0.00426032532602109,-2.65216771222536e-06,-0.00727104894710741,-0.00696382613394457
-0.0142472486152435,1.57433869225381e-05,-0.00764585339495463,-0.00766713688527383
-0.0212087222422379,3.40440802519452e-05,-0.0113503867311267,-0.0037142339413994
-0.0252564312295598,5.22410764543392e-05,-0.0163419589486748,0.00312138625118178
-0.0193833714647723,7.03196908450846e-05,-0.0224978300720217,0.00856512273535246
-0.00116616764537278,8.82606883888969e-05,-0.0282911696518534,0.0090851871547211
0.0087104938632091,0.000106041497498642,-0.0284084600524343,0.00494288721375938
