-0.00591315523179206,0.113752730135222,-0.0522221636934117,-0.00245772832538515
0.00515760459647847,0.0840864253615797,-0.0252073979812509,0.00460366163127789
0.0109101904269134,0.0581487220154023,0.0108919118160582,0.0123310140233066
0.0022812639590201,0.0315577108280415,0.0358154309582569,0.0171145938557278
-0.0107044178565249,-0.000972748171266644,0.0451253825627115,0.0158550249023744
-0.0104902176588962,-0.0375226718341819,0.0419709852206951,0.00873871041211376
-0.00120673254840103,-0.0487492397178841,0.0374392562147756,0.000535767693497436
0.00243743775861183,-0.0279230481796926,0.0360518593736579,-0.00526343221727802
0.0032174020718304,-0.0141900069016449,0.0319509728760365,-0.00910946605960645
0.00860925356855006,-0.0149426964959925,0.0242659468635534,-0.0113261841621106
0.0232786404836608,-0.00476560475720155,0.0130216900839198,-0.0110592721603767
0.0420648122978812,0.0134812186431746,-0.00516824755046662,-0.00852501547468329
0.0436838564026896,0.0125828387786155,-0.0223844994235632,-0.00508903609239876
0.022820617015841,-0.0117441864029321,-0.0255023278829635,-0.00189313323046739
-0.00158936146735978,-0.0343031520783047,-0.0208899735226724,0.00040559743701001
-0.0147565954113121,-0.0555058093192868,-0.0209222350339393,0.00184713956449307
-0.0159672015077597,-0.0856742089548746,-0.0234489879180581,0.00308369321294134
-0.0142840273514055,-0.0957799241192285,-0.0276718773678251,0.00407799516754206
-0.0204839669349825,-0.0726725111368482,-0.0337509673781053,0.00437418675885969
-0.0260151444906334,-0.0451683345978854,-0.0291920861960787,0.00419137516323786
-0.0149276256081067,-0.0269235451356279,-0.00991481072603256,0.00395485557959351
0.00354500580575796,-0.0084524622018966,0.00655313002350049,0.00375584378380066
0.0146203904249373,0.00290282852298541,0.00680681627285613,0.00322044137109901
0.0184867185608356,0.00838844703000984,0.0022602057469925,0.0019185086505813
0.0221432205183278,0.0353099459875847,0.00825665514318097,5.95382231782147e-05
0.0301368186605136,0.0765941178716887,0.0173364814909002,-0.00167261522072623
0.036910386190783,0.0984340627618364,0.0163034048531763,-0.00231880428016735
0.0336426177296017,0.0900591413593798,0.00863031505165728,-0.00117310954120722
0.0156626813556646,0.0672008689080219,0.00415798775041925,0.00121581373088282
-0.0123416735805453,0.0537804816456595,0.00416655502470682,0.00301240722877625
-0.031064832856051,0.0574148260373812,0.000631847738574162,0.00247561114606296
-0.0318688401708925,0.064149922771889,-0.00886414160832967,-0.000128384752810311
-0.0292260194543667,0.059150243896583,-0.0162004927540571,-0.00298151176081863
-0.0298095833204815,0.0248014306084062,-0.0207074428949741,-0.00453898076896474
-0.0226174928284524,-0.0513615303985327,-0.0266488523907147,-0.00379580976430959
-0.00415557331993539,-0.109426046681867,-0.0287915115095962,-0.00099343927841002
0.0139423026934481,-0.0688533800449516,-0.0225563077124279,0.00166242595938914
0.0204554589925874,0.0335089922598736,-0.0143514461950747,0.00227539368369067
0.00949371499005905,0.0871866781066415,-0.0124359837953499,0.00125567513364095
-0.00878174140913617,0.0336523029014577,-0.0186522794865702,-0.000136416595742116
-0.0195892988854387,-0.0662111559538209,-0.0253339817976483,-0.000616437469184129
-0.0234619738490638,-0.0867986046509146,-0.0234295726139467,0.000152580443753933
-0.0156544367392148,0.00506792379384893,-0.0126382491111013,0.000604756934716973
0.00850265442422959,0.108336733978178,0.0019961678015851,-0.000276924293081398
0.0332565870574548,0.115542264589921,0.0101595972326671,-0.000973514103992066
0.0368026333555351,0.0569378550553281,0.0134733641664818,0.000223744200915517
0.0203224768270622,0.0129213491362433,0.0202973872539698,0.00105305581801118
0.00685240868211769,-0.00488808673707292,0.0234344390711012,-0.00110357010942506
0.00417485541508289,0.000616554577485592,0.0243228152398841,-0.00386026184567789
0.00356738802196144,0.0200606354817525,0.0289206128284237,-0.00452936709735925
0.00263415512695208,0.0262109391516002,0.0272511564035128,-0.00379139655482163
0.000493857909976086,0.0150614847438924,0.019209317082407,-0.00250352427440792
-0.00788053061599977,0.00741045349044423,0.0140827798696542,-0.000798119065854992
-0.0145909803316968,0.00529113359729037,0.0108161183706448,0.000939934539204062
-0.00955038449916235,-0.0122763217251152,0.00730342487961242,0.00254234628790957
-0.0130117459037298,-0.0314888058803883,0.00638746277967233,0.00384215278705155
-0.0409308170508729,-0.0208300826446198,0.00890353469402881,0.00394440234763137
-0.0599068898476483,-0.0100240814363311,0.00916430633823661,0.00203230779861247
-0.0346716663290202,-0.0335622114919761,0.000709343653591352,-0.000638390171423295
0.00921559115837124,-0.0799455447936502,-0.0155198859567298,-0.0016164083534497
0.0255535009563918,-0.115419180440889,-0.0296996305921792,-0.000508061762792267
0.0172219422673427,-0.097549381496611,-0.0326427742427083,0.00112762916750278
0.0105929704225845,-0.0458999323002224,-0.0262514393290095,0.00218951037580646
0.00961791566315882,-0.018244561105115,-0.0192124179670586,0.00241349505199703
0.00831087719534005,-0.0203179648123227,-0.0148428584701442,0.00195877756184569
0.00730236204102001,-0.0299952515457347,-0.0113114520447328,0.00101177350588234
0.00574761320177906,-0.0317773706110571,-0.00880310796859667,-0.000338147478907262
-0.0020509363126372,-0.0212850800295896,-0.00962744454002415,-0.00170153342808572
-0.0161150020160695,-0.0121641211570078,-0.0131787819463625,-0.00274810226749675
-0.0280891642994073,-0.0121970676737538,-0.016349795895176,-0.0034273264722361
-0.0317778786221034,-0.0131647955469051,-0.0171366200909482,-0.00370462431007763
-0.0265351865379317,-0.0143920529700841,-0.0137339658091834,-0.00343582515667105
-0.0160709846635223,-0.0175985322021957,-0.00624584906552612,-0.00258466805873406
-0.00935028470726332,-0.0217773706529255,0.00261697364059209,-0.00146953500762777
-0.00703286178159584,-0.0299796731536489,0.00738162666765252,-0.000339876527817924
-0.00149504156943209,-0.0335550057137792,0.00496373544460781,0.000578014699895873
0.00690751360318742,-0.0243246354890654,2.45417255070185e-05,0.000851829882896616
0.0128960981605327,-0.0113528030821906,-0.00304004945602586,0.000621177953641302
0.0150568918531477,-0.00368017941171592,-0.00622762137320479,0.000622190139998195
0.0127715600173519,-0.00289877713368946,-0.00933012944868918,0.00105740640624745
0.00749471832656312,-0.00562404644157509,-0.00989951868007682,0.00158098499711207
0.00379461460652487,-0.00593701976977878,-0.0102435224281122,0.00181309450644154
0.00185681861262381,-0.00208614317938065,-0.012359439193943,0.00160987187901484
-0.00023051621757557,0.00750847996603496,-0.0138140229960157,0.00136123779856875
-0.00181488086580358,0.0254519562437136,-0.0131501031018586,0.00120000280831798
-0.00176390285423284,0.0363743895348068,-0.0129027060291771,0.000821566159906611
0.00128997229723806,0.0297354232543341,-0.0146907970418082,0.000332245078387409
0.00428029979368492,0.0317686869102008,-0.0137402247614843,-0.000109079927534729
0.00105080485513862,0.0499612258456212,-0.00715143267879006,-0.00100735366830993
-0.0060047180931339,0.0547037497190965,-0.00291478538537688,-0.00247021772763757
-0.00993257340991448,0.0413268854650175,-0.00431495178774808,-0.00333361024361203
-0.0112450269520115,0.0271887913180923,-0.00590854963356542,-0.00284892218642295
-0.0114904136354171,0.0178960340156518,-0.00693827161095326,-0.00167707687528258
-0.0120425348631661,0.0147448421953982,-0.00868450591032755,-0.000578765474681749
-0.0165704783570295,0.00789268575087532,-0.00765009560275125,0.000116045636247009
-0.0172240975823761,-0.0274807674771269,-0.00306814918172949,0.000335960702952856
-0.00309557357888959,-0.0687801056195418,-0.00034313738723812,0.000546896023178701
0.0131994320127429,-0.0674315731282919,-0.00345426385681018,0.000777264228617279
0.0109856973466584,-0.0430296683461822,-0.0115680224744979,0.000224319166921426
0.000401560368676505,-0.0265329492173991,-0.01818589352813,-0.000981090446145687
0.00200824951239482,-0.00719872948799147,-0.0161635324120495,-0.00168688620508209
0.0108757400278561,0.0179942338679271,-0.0064678264664507,-0.00115423890204591
0.0153965377883909,0.0363740268295667,0.00167074604870305,0.000231071471573012
0.0151009600446862,0.0403940916767987,0.00216624813243886,0.00152855305925994
0.0130360082857979,0.0330423715332071,-5.52037999145827e-05,0.00245597793477714
0.0120597542861412,0.0230190706122427,0.00140540740264842,0.00297044686256424
0.00994874939488635,0.0186533138565539,0.00501702518555645,0.00287219931510055
0.00265508439663995,0.0214090694392473,0.00657851794499443,0.00204629399403376
-0.00586112582414802,0.0185524908578756,0.00714188694602703,0.000261513257179265
-0.00800779332274738,0.00475905184948275,0.00908896787837492,-0.00235843569639975
-0.00128423226261769,-0.00102001888346764,0.0106897834586383,-0.00520118995681046
0.00784644052455312,0.011186506467976,0.00943883227808126,-0.00749172846821679
0.0122708535790004,0.0242694527875582,0.00701387603099596,-0.0082724812359344
0.011393819680181,0.0214462053986342,0.00787520762629056,-0.0072107136057246
0.00528120524392896,0.00730049561895792,0.00985279107075356,-0.00482687986152249
-0.000362648632276086,-0.00782663170203661,0.00856421727351083,-0.000655564332540397
0.00378603968365331,-0.020652391341368,0.00415782546542732,0.00739309385873324
0.0132024519443059,-0.0292018672355858,-0.00074973386906255,0.0175618857188511
0.0179107308924947,-0.0364678379093324,-0.00250537279875948,0.021970043831861
0.0161421819415417,-0.0338895325521543,0.000510522378461638,0.0157441814845255
0.011687196602674,-0.0156246810322893,0.00643085656327021,0.00250584728629015
0.00929610806450458,-0.0135593748051171,0.00795529095903433,-0.0101779369357315
0.00915077173919972,-0.0463474182643816,0.00324359315162651,-0.0163611070699162
0.00873947168509343,-0.0742838738880396,0.00159114271639838,-0.014780763441565
0.00504855996782603,-0.0497545901678601,0.00583565618846863,-0.00837896461683447
-0.00037814797231433,0.0106613452559442,0.00737305424437988,-0.000797358464943967
-0.000366441696014174,0.0496466374068531,0.00199593787530465,0.00537287485311961
0.00478253140662457,0.0476968538630525,-0.00389019074458234,0.00852507362023669
0.00912546368604378,0.0360139902960994,-0.00333269577150051,0.00874535495041835
0.0141185872894109,0.0345559590562171,0.00257902478953202,0.00685188853367973
0.0228732886847538,0.0278991417405588,0.00788844327302704,0.00337543396177183
0.0304314331361932,0.0123941913912451,0.0104489098850014,-0.000631431102226086
0.0325259668433064,0.00136877015813482,0.0122989976883597,-0.00378150477895223
0.0312715658739235,-0.00619039700151545,0.0137647594555567,-0.00503640417280521
0.0274120488892047,-0.0372863774674608,0.0141402583516994,-0.00420583231037839
0.0207647812207735,-0.0799668212582217,0.0131581126102547,-0.00226868635918226
0.00724489352904854,-0.0863402681061286,0.010025368208465,-0.000174523989934941
-0.014801671523049,-0.0839934280351978,0.00525043961467157,0.00172956504815287
-0.0275148953577163,-0.0988638270354814,0.00139380374621984,0.00285683712636488
-0.0183318407539025,-0.0852112420430702,0.00332477310226898,0.00273245656604655
-0.000387725163367214,-0.0362013020500342,0.00931067152184212,0.00142884715686838
0.00533149250098217,0.0144616989570302,0.0108722409694615,-9.02988415065259e-05
-0.00418294511570435,0.0507267171930919,0.0104655721238515,-0.00061009144026137
-0.0085266897937744,0.0682216767883372,0.0134096244176513,-0.000587257818968908
0.00143627628818261,0.074062606983715,0.00857837758059562,-0.000722569791850748
0.0113559888535024,0.0846031758408481,-0.014191262853799,4.39979866376759e-05
0.0128444850908206,0.101161771005955,-0.0398069284333424,0.00232374977500456
0.00935283812506592,0.0978652174583445,-0.0428631300715316,0.00429698454930508
0.0053091633410163,0.0621840943669214,-0.0206294730873081,0.00408828856741749
0.00254625768359898,0.0154419964928092,0.00413797619892667,0.00201592077064781
0.000113420198359125,-0.0253048409498296,0.0144239332070014,-0.000687764268811508
7.3332576074123e-05,-0.0607947694970664,0.0138603762942132,-0.00356677052934724
0.0034204075728285,-0.0804098611683117,0.011701723697788,-0.00641528775370037
0.0062317573091382,-0.0670197770913347,0.0106940381414513,-0.00766341032034203
0.00635215579703407,-0.0368624214124125,0.00905060699551669,-0.00557372148056161
0.00937077954324833,-0.0186575758300104,0.00721162337959352,-0.00124079712625535
0.0134561860319959,-0.00969846384121406,0.00788992425731396,0.00205357348971104
0.00582049064918749,0.00633783704939367,0.00941335057324234,0.00226428710125777
-0.0120137763249794,0.0226450211913311,0.00875862653841079,0.000155176509258912
-0.0289848073402539,0.0261028209939747,0.00465839198167468,-0.00202482757827458
-0.0384937804834073,0.0244129778099022,-0.00431997626436168,-0.00257725356950126
-0.0356338391412515,0.0292538341104739,-0.0164007098726721,-0.0011048679782913
-0.0233772733076995,0.0413638638942595,-0.0265412991163575,0.00143806956615865
-0.011338519944398,0.0489118696402547,-0.0293683090739196,0.00320173795113293
-0.000979205181046605,0.0391740477153975,-0.0239289580233472,0.00295207159239107
0.00963436715028786,0.0273936676942649,-0.0112220489224839,0.00140586691720474
0.016120482058763,0.0324333055284349,0.00261426276788936,0.000177702976955037
0.0145768315419924,0.0318686534047401,0.00598496922789995,-0.00034282703410075
0.00945540237885685,0.00821352932082615,-0.00245462020503111,-0.000256036419602395
0.00772611909473174,-0.00419991874380084,-0.0119475867326836,0.000514056335515837
0.00977615999611799,0.0213756965607678,-0.0174140227266228,0.00111740339862051
0.00724088104528131,0.0665056247647825,-0.0168497184488327,0.000817115782834078
0.000869222320959328,0.10459261372386,-0.00491524567829991,-0.000598172275628635
0.00440676596332029,0.121532595105482,0.00820693944661352,-0.00305492291497066
0.0160871093442296,0.117467716330834,0.0114378262821014,-0.00508964710306745
0.0201218757925867,0.112309647195711,0.0101328931525906,-0.00512246118997337
0.00955630389192232,0.117058032237373,0.00833025732324086,-0.0034787885671442
-0.00885956481710213,0.113457787791189,0.00632787014819856,-0.00180877056311372
-0.0256616608469579,0.0985284637910201,0.00747546861528766,-0.00104207403300918
-0.0344279551129639,0.0610075278258323,0.00557348106040479,-0.000564760176199133
-0.0358614665935738,-0.0163353866736534,-0.00673127834007055,0.000474121442930305
-0.0394580211055696,-0.0844551586240663,-0.020187176713521,0.00197666561949378
-0.053036890019179,-0.0948631956543533,-0.0213223603130446,0.00339785776785512
-0.0609536127876318,-0.0726364710626809,-0.00519221006415977,0.00459158620584988
-0.0458557002909029,-0.0593734500189609,0.0151612511296776,0.00560413709448338
-0.0270967634860471,-0.0569308381539099,0.0216752867633046,0.00560766646726199
-0.0174371152708946,-0.0471942303822353,0.0161384526707696,0.00355982059269323
-0.00139594591535228,-0.0121788476450523,0.00862414747526566,0.000217379056843997
0.0164739900067927,0.0408097093325484,0.000397526982480861,-0.00242005230357954
0.0176496508843381,0.0690938607723615,-0.00782346970815765,-0.00289136822206535
0.00764013645430858,0.0605460638388093,-0.00956898986144571,-0.0017000646675868
0.00609570159578719,0.0384368485024887,-0.00384061914701584,-0.000878469970284004
0.0132925463324841,0.0266488273230831,6.91638964258195e-05,-0.00141852648619797
0.014751831053906,0.0417990921253806,-0.00417665313000793,-0.00288587076316375
0.0146232196107062,0.0633054718564527,-0.0110108985821363,-0.00421886800092755
0.0276845296938296,0.0569929902451137,-0.0095488394059122,-0.00409549752366694
0.0470138367255974,0.0154422256058051,0.00201007002848339,-0.00202908372552866
0.0433587764337687,-0.0385683588331543,0.0131940987559882,0.00148991065967008
0.0133678538805267,-0.054444486165835,0.01867460709477,0.0057523829653408
-0.0134342002172507,-0.0174592694644649,0.0229922112383351,0.00820008526860157
-0.0280670944761438,0.00790169375700528,0.0258668186983951,0.00512614805556177
-0.0374777754012087,-0.00734692240524368,0.0230119262821845,-0.0024398541212718
-0.0409587207686554,-0.0146947030186341,0.0171435273583076,-0.00894109425648975
-0.0384863129151742,-0.00724439202944332,0.0145044935702798,-0.0105469397431987
-0.0318775385684774,-0.00386621969354839,0.0159290875446659,-0.00612139644613367
-0.0247183112156834,0.00307090418781385,0.0148524090434627,0.00401129403225451
-0.0210074996327426,0.0164468657264874,0.000549355631902101,0.0146077833697121
-0.0233927735973686,0.0270271294849667,-0.0179735948933376,0.0175195619761868
-0.0275080800921948,0.0135320520925857,-0.0166839843820153,0.0113478995244327
-0.0258960941879266,-0.0319203891035532,-0.000648006527376358,0.00199527923953444
-0.0193764956125761,-0.0819796681250141,0.00646995489574784,-0.00514674917620521
-0.00568293781843408,-0.103285049073758,-0.000181044353749389,-0.00862115785608401
0.0201878476589139,-0.0917428462231161,-0.00948315622434347,-0.00896473585100607
0.0467850764239413,-0.0729827273064419,-0.0141412486433218,-0.00670376611551044
0.0575486253280785,-0.108584854737036,-0.0170897138447045,-0.00297443762580746
0.0462894705671695,-0.187726780070089,-0.0139883540950222,0.000631678804547435
0.0195446161136337,-0.181899936810748,0.00293653035365439,0.00250508078735453
-0.00195855542363461,-0.0809796216813201,0.0198239307548164,0.00150859768332303
-0.00544304070829746,-0.0132021242563943,0.023533470896396,-0.00062344109598132
0.000818834481999335,-0.0238030560992052,0.0190354791334256,-0.00116352814282627
0.00310408469137278,-0.0530712539776477,0.0116980604127724,6.1076588308732e-05
0.00336656840770215,-0.0531518296424108,0.00582384100212691,0.00174153419745445
0.0142529948936206,-0.0297319052095865,0.00371860896266827,0.00273767743168469
0.0292689811299988,-0.00203443217969806,0.00289115429140121,0.00268047601433631
0.0280148445256819,0.0191057307429251,0.00294553621921215,0.00209580315359353
0.0148029197431886,0.0363666461263882,0.00192632973242636,0.00132581831545581
0.0071397038874117,0.0648414089599538,-0.00593935730632954,0.000267298681548153
0.0030007955892056,0.0992534066686705,-0.0246150137935708,-0.000823167173477178
0.00770256377638824,0.112708123174921,-0.0422004318292834,-0.00150407638353023
0.0253066571529413,0.0907208404999029,-0.0323141046325161,-0.00130588615863529
0.0338897952672672,0.0519618800036079,-0.000695818350236882,3.8788765700646e-05
0.0320595198197599,0.0275108325750342,0.0174065224153355,0.00158691609758758
0.0392662322641132,0.0190352376478645,0.0138933735568544,0.00232970366539654
0.0495871437875417,0.0272281246403359,0.00798507698563568,0.00220465269149435
0.0465194432757486,0.0423381366326241,0.00604637029486889,0.000546652597513935
0.0321632873840776,0.0287068902600775,0.000414066706167122,-0.00242915010269536
0.00787477035700312,-0.00964900235036051,-0.00701023029721475,-0.00398144408224231
-0.0331451465279314,-0.0767168478739438,-0.0128372333244002,-0.00245500161440562
-0.0684697520354591,-0.174417438583646,-0.0201940612505531,0.000788118775031035
-0.0607856764820151,-0.227708183071323,-0.0271059304265527,0.00373498171454898
-0.0195133845457743,-0.18984815724653,-0.0260949069369078,0.00526591738831248
0.0223385767100799,-0.101079924957785,-0.0164097442138255,0.00469020929222251
0.0584347490521975,-0.0182677674371392,-0.00679902126578596,0.00200064996620481
0.0838533825448088,0.0298261532557275,-0.0045075526525367,-0.00128991180452399
0.0812627727940265,0.041302556631256,-0.00992282393862497,-0.00303835376316021
0.05637028211015,0.0501228838775131,-0.0125325483973613,-0.00254805682848434
0.0374294337406949,0.0821019745247825,-0.00437199824665893,-0.002186953908055
0.0342843975399489,0.0957544900872001,0.00146368138079066,-0.00407649243435766
0.0249835297013832,0.0698288826086596,-0.0034294707104468,-0.00603878472549022
-0.00402386403036874,0.0454117701989954,-0.00724773627634306,-0.00525141944396786
-0.0403836723970393,0.0408389618549183,-0.00508491084918724,-0.00266610105336378
-0.0668144501787367,0.0330881775046636,-0.0063379964227845,-0.000972564882050449
-0.0642222281711226,0.0150930127923679,-0.0115331168150724,-0.000776262386214875
-0.0353686244417542,0.00670584879058574,-0.0115080817975802,-0.000608962339530985
-0.00759292388555187,0.0203324426373047,-0.00759766332738851,0.000479546599720856
0.00611232955634047,0.044093710819958,-0.00503750497697127,0.00196388840097338
0.00841536716452294,0.0493853529734549,-0.00411687763530095,0.00288378329066764
0.00316491202766276,0.0270472929723818,-0.00182575668515187,0.00291644349250444
-0.00211313388561789,0.00172349871006883,0.00512460243333448,0.00237998275316235
9.33607603397849e-05,-0.00733238598493237,0.0115448082622202,0.00146123371255171
0.00155378706850474,-0.00795117967150936,0.0130655035246834,0.000297645290990765
-0.00651327534920339,-0.00962980096539675,0.0119290126389798,-0.000575025438127226
-0.00892003300905261,-0.0106610972763498,0.00994151428111334,-0.000956783524308575
-0.00249522013978059,-0.00872894005087279,0.00554855575110243,-0.00108567677409275
-0.00698052905377448,-0.00914782739992697,-0.00312041732078388,-0.000875879909942937
-0.0201485038576689,-0.0368490762090478,-0.0108901188664801,-0.000270985268185085
-0.0255517801878739,-0.0831247633357195,-0.0128838079335173,0.000643841593682664
-0.0226978090005038,-0.084056107394121,-0.0114714009667304,0.00163618178614351
-0.0200174199225014,-0.037500818519606,-0.00719405162410355,0.00179831472901358
-0.0199067766604855,-0.00181643151448872,-0.000554587722145151,0.000484561176933762
-0.0186646561282014,0.0053587301878449,0.00278818906591997,-0.00165497580536102
-0.0162926573477881,0.002219174999683,0.00101234145703694,-0.00328060409926088
-0.0181160778777676,0.000683766038565439,-0.00311924898975003,-0.00364995205076608
-0.0255901306958586,0.00123972482736179,-0.005983470455315,-0.00302674638692292
-0.0286962427147692,0.0039634161800638,-0.00488241919623618,-0.00190038872854449
-0.02240236983964,0.00644773230525542,-7.95752358237825e-06,-0.000529274693444344
-0.0173383979486718,0.00666850001965339,0.00526118112141548,0.000837351824184481
-0.0193552603790403,0.00443871696142148,0.00501854601118492,0.00180640720121131
-0.0222645643365454,-0.00251892627464346,0.00229364486054083,0.00222535456902255
-0.02118373737083,-0.0143971453901741,0.00360775751349616,0.00216802435558683
-0.0168271531860478,-0.0247804097545857,0.00583127908584729,0.00166978715025846
-0.0117272745440477,-0.0228251649539091,0.00534838983267218,0.000809537756217599
-0.012346699014152,-0.0095098601274455,0.00185493407542465,-0.000178517628689632
-0.0192346482762408,0.00477755321805834,-0.00357386131344993,-0.000535429282264053
-0.0221059135714884,0.0135178981656804,-0.0064082852451554,9.43136244675606e-05
-0.0191337700190088,0.0143515638960884,-0.00491177937379751,0.000760820751297893
-0.0129575628743955,0.00875505906076416,-0.00245230772335428,0.000801699279200734
-0.00135162793917988,-0.0088591046245236,-0.0023948706217711,0.000782340872645169
0.0101473678433226,-0.032848971788292,-0.00622430005390291,0.00148212301268629
0.00889218683108407,-0.0254119840929591,-0.00614549744303891,0.00270494684276546
-0.00181889586597086,0.0137982719841294,0.00288235866310387,0.0026789551402361
-0.00201483377667731,0.0289393175704846,0.0073587272248788,0.000238684578925989
0.0100342519165819,0.00629468434116408,-0.000767209533452873,-0.00260481281036566
0.0155866908854993,-0.00742052488760601,-0.00884512031180789,-0.00300136721113749
0.00937016429479488,0.00866837711136512,-0.00770037943055917,-0.00130682027463707
0.00391805408645367,0.0235048761863321,-0.00614666230977287,-0.000156808973001393
-0.000204176980549836,0.02436038385214,-0.00705864621398594,-0.000624845839547344
-0.0118394395507166,0.0292949827536477,-0.00231186862706552,-0.00238148885568966
-0.0212764620888434,0.0363819769118232,0.00589920023126162,-0.00517906902969423
-0.0160592980764199,0.0284490269508599,0.0100873876387846,-0.00771214720271353
-0.00106037908166087,0.00524612655721831,0.0101520119447113,-0.00823827262759822
0.0120144255589227,-0.0155316451939102,0.0087990971542999,-0.00574698298458503
0.0154774499109547,-0.0202061226685728,0.00584325133117958,-4.10500383436936e-06
0.0136249197472693,-0.0170850290294361,0.00187497865396728,0.00828236892098823
0.012350204238455,-0.0205206595988586,-0.000404566562205499,0.0169211360980478
0.0105704823001697,-0.0231442697346008,-0.000365153936209743,0.0206598514576083
0.00895841467150266,-0.0238586277041668,-0.000338309992783403,0.0157524409775086
0.00516830499184146,-0.0498329280346046,-0.00224912972721749,0.00542466538903099
-0.000982460788389249,-0.0754068775542449,-0.00607306749542819,-0.00429729070463317
-0.00366450224459451,-0.0343040456522112,-0.0112271175549709,-0.00991144516436364
-0.00292695507248856,0.0465554968804463,-0.0149755129405903,-0.0109936549662887
-0.00346072266493465,0.0887798085636917,-0.0148206097585018,-0.00901424700954509
-0.00596649587717866,0.0773605617335593,-0.0117023593525571,-0.00610551863028311
-0.00662703395998963,0.0465878950351874,-0.00636369937247399,-0.00398622628787163
-0.00650331586611891,0.0233469771275146,-0.000534389365337385,-0.00294733226208313
-0.00806057477825316,0.0113641789160394,0.00435934586535437,-0.00216861668203431
-0.00844807744373707,0.00462364288861779,0.00792436070210009,-0.00131923985199498
-0.00698615849729167,-0.00146141742934097,0.00855244164372014,-0.00062845031004998
-0.00427925497331993,-0.00608692867168409,0.00840335115206025,-5.82984124671546e-05
-0.000618691497499876,-0.00738032135033474,0.0103416551763324,0.000678093256011558
0.000355641551456942,-0.00632389292414046,0.0130568754052674,0.00178524849329478
-0.0018745687047468,-0.00511107666113218,0.0138943162476573,0.00306697453270487
0.000230355817629534,-0.00317850142373975,0.0109621383865443,0.00420745224877666
0.0101540497199662,-0.0011372284711275,0.00583122286760812,0.00509489149217238
0.0175525534340218,-0.00245130730314857,0.00156117716358961,0.00550503275433978
0.0148721368406231,-0.00400607799959615,-0.00132320582830988,0.00523074359831091
0.0072116556623441,-0.00114501673508844,-0.00303042281862364,0.00428985139975725
-0.00044829293285046,0.00192479408675092,-0.00422450591887123,0.00270215297919324
-0.00567887547771211,0.0010060624131511,-0.00585589310913665,0.00036777138537626
-0.00570755461706694,-0.000522210408164556,-0.00561312577144427,-0.00239253264453997
-0.00467897584045058,-0.00021898615844637,-0.00110201099172044,-0.00431563483229542
-0.0052977766091448,0.00128631387252425,0.00290296730488626,-0.00418174788974142
-0.00232708545304948,0.00508218309098651,0.00110954040182942,-0.00221981722140866
0.0031387918996406,0.00966094484645402,-0.00218727952667822,3.38454331891406e-05
0.00603244138866274,0.0116057821989523,-0.00252564630623646,0.00134931786664706
0.00454931585414344,0.0111136137590813,-0.00342877999784411,0.00167581733519649
-0.000780544189295965,0.0112687811589734,-0.00619664201278142,0.00162496720543196
-0.00533843114649682,0.0133853054621171,-0.0067471069404472,0.00154416099714022
-0.00374683456390196,0.012072155388563,-0.00524824805437786,0.00120289639729873
0.00577838682654661,0.00452357367616034,-0.00355757292678332,0.000355062095559337
0.0153570349760363,-0.00188349558820986,0.0014015331907977,-0.000870348879966871
0.0134015474601411,9.93912670659101e-06,0.00863990819349668,-0.00211296917450631
0.00590082845571871,0.00948451865536697,0.013680394140885,-0.00313354547528163
0.00749963399039912,0.0216590521819037,0.0168622624646354,-0.00394468786864527
0.0135392590538124,0.0351021851391479,0.0189544213148183,-0.00438708380760802
0.0105181274022687,0.0512793654803319,0.0199174683414077,-0.0040491775515626
-0.00254690401770552,0.0701107009714831,0.0212869201914489,-0.00286483691094616
-0.0134303088786571,0.0865438073739339,0.025040922638866,-0.0011541724915016
-0.00929491913900241,0.0871457987843773,0.0306788790931575,0.000867123463739015
0.00132302877819863,0.0807293848632138,0.0379980499295648,0.00276244405076763
0.00435789017154708,0.0892919206109219,0.0492602957563971,0.00326588569542589
0.00393854366715407,0.0911756326334814,0.0619075828820254,0.00219449541165183
0.00284109849168836,0.0698001134608056,0.0684972896809416,0.00103255835184733
-0.00194878934936164,0.0511336819689864,0.0658296082923682,-0.000605696212318996
-0.00520161147342618,0.0373365051340575,0.0578252950911253,-0.00422740618063797
-0.00664500630180847,-0.00106853065820851,0.0480536053675835,-0.00819344171978605
-0.0137015491000508,-0.0587928737315961,0.0323414104148047,-0.00905758695586236
-0.0226041515014432,-0.135795284456143,0.00119614177205361,-0.00576700420411779
-0.027351483054514,-0.245087195410205,-0.0463333576308852,0.000223280324688265
-0.0232728115306477,-0.287367460128481,-0.0789755692798681,0.00719508209515136
-0.00263335195612417,-0.177244419015055,-0.0679042734541392,0.0125736708206389
0.0220657669950669,0.000792772502882289,-0.0388390175333561,0.0130102467651888
0.0310166158929242,0.133150228167316,-0.0231998774725726,0.00830840277393422
0.0271016048437059,0.185505514285693,-0.0166422758864405,0.00180221209869804
0.0220338798894245,0.171622567367351,-0.00841275919338649,-0.00344044841627324
0.0185974760938992,0.116730575512941,0.000955526070152452,-0.00605504164034684
0.0128425540838429,0.0589505366089013,0.00880571488706761,-0.00612577600684479
0.00454163731414288,0.0345354371751601,0.0183200269872466,-0.00517876807382449
-0.00429697705254801,0.0288605731093059,0.0304822887520629,-0.00445365127920349
-0.0113311193852286,-0.00584642750628367,0.0367451779103278,-0.00375534807518201
-0.00519083121329928,-0.061402418559881,0.0305172835074897,-0.00276322881739396
0.0135329805892699,-0.0755334166474796,0.0206107081386003,-0.00084564901704676
0.0245147043458382,-0.0357506066725163,0.0213808385920432,0.00274592072918867
0.0255837204778558,0.00634283072853079,0.0256388222344316,0.00652960911895002
0.0246802560048641,0.0238234969649662,0.0151302463945402,0.00735604502786166
0.0191022944316445,0.0282650635368653,-0.00550520594835019,0.00395662129572427
0.0118010190116597,0.0179714703853461,-0.0202116361290509,-0.00143809060106767
0.00263115827429761,-0.00180267710541467,-0.0241286680142117,-0.00490716329775522
-0.0129884235603525,-0.0193323204420751,-0.0248615950147889,-0.00433115172988011
-0.0276623305636772,-0.0438450037132899,-0.0305333585894612,-0.000770255971487253
-0.033700388576247,-0.0672703410543823,-0.0378304608669038,0.00327815877710372
-0.0336499917507823,-0.0743265237764028,-0.040921203251997,0.00572961962520122
-0.0319172854147067,-0.085433262570013,-0.0406392083136663,0.00603746065578102
-0.0289421701036483,-0.0896029209146763,-0.038236874285332,0.00482580108340738
-0.0236340230967907,-0.0395094789904364,-0.0356050579344111,0.00274743051137205
-0.0146370532900092,0.0324166045976176,-0.0350551270335462,0.000327217206288212
-0.000545995548501946,0.0595995627451376,-0.0274702696595007,-0.00153187772461162
0.0165873116028125,0.0497696110487505,-0.00823616762769438,-0.00175278474795887
0.0299910620343736,0.0375662117115634,0.00534536677103287,-0.000508292350425617
0.0348197357188829,0.0216690583970724,0.00332484584878595,0.000767871377203598
0.0314300199601359,-0.0123228762927201,-0.00416692805358526,0.00106441158606621
0.0179174999354779,-0.0503982159562115,-0.00615185196238717,0.000746959921773466
-0.00196125357694316,-0.0550865519833022,0.000970393601871018,-0.000153263276248111
-0.00920664351257739,-0.051544509662734,0.00752758955978276,-0.00312793231786408
0.00164709942712104,-0.0954500603275704,-8.40038056399116e-05,-0.0072445599571721
0.0110858465883761,-0.138355454775958,-0.014561073858392,-0.00876599146084958
0.0141246808381072,-0.104290243104508,-0.0205188556644166,-0.00676297712825193
0.0210970803460301,-0.0169382695001244,-0.0202598660106613,-0.00360067905636579
0.0269922589740403,0.0601412875947014,-0.0138270913577466,-0.00104047860567759
0.0236101727626492,0.0998199796589943,0.000816911611166334,0.00130795586821839
0.0145021977149644,0.0915708274173596,0.0107802774065741,0.00505849697242674
0.00217060149467205,0.0560642364662322,0.0111254805712245,0.0101040824497624
-0.0124562829661402,0.0360736909909201,0.00871720695781498,0.0118866129240709
-0.0182512114484092,0.0192661478394923,0.00846839842092109,0.00580494061401386
-0.0128525954375148,-0.0351678350280738,0.00906948620192123,-0.0060353240094032
-0.0133439863192211,-0.0974540476183606,0.00644828652061712,-0.0165823759779996
-0.019377940128162,-0.103064725415727,0.00288789032994172,-0.0203478515684156
-0.0129042424574313,-0.0684280613213919,0.00194750118699254,-0.0164085506950435
-3.97892750646136e-06,-0.048217335296785,0.000448803786794898,-0.005515637702542
0.00291078113313652,-0.0358113408647886,-0.0032375980912096,0.0103576671983507
-0.00601130760997851,-0.00914931842049817,-0.00220413739855931,0.0237831015732847
-0.0256162939201893,0.0115349724100745,0.00536304162320363,0.0253996616631454
-0.0444443777957413,0.00555147390713543,0.013087261557273,0.0140194217930611
-0.0437753088280992,-0.0241938957998271,0.0168415459573108,-0.00142799210490389
-0.026091858148705,-0.0580265845690508,0.0173604794632279,-0.0115245978381004
-0.0125335754324217,-0.0654171888380763,0.017382103021355,-0.0140143032188051
-0.01104595312961,-0.0450320310920022,0.0161203718675417,-0.0119141863926662
-0.00607015631717624,-0.0240903664744331,0.0118315259596782,-0.00878365679530149
0.0126162094316863,-0.00813095037258755,0.0030207496333382,-0.00627298200861518
0.0310889841954863,0.00453208271096478,-0.00793275186422765,-0.00402027401887212
0.0320419874300932,-0.00110372908922914,-0.00897210465888675,-0.00144974628906917
0.0178449246444406,-0.0212056437706223,0.00234113574940409,0.00146649504923603
0.00847953014321298,-0.0262236169745366,0.00768529857547295,0.00471558731419693
0.014787787865356,-0.00444015356016208,-0.00337860840908952,0.00722912347319724
0.0259004114863325,0.0191772893088262,-0.0171864357096761,0.00747991082776499
0.0285838657143373,0.0195437677115365,-0.0209600143472985,0.00578195371285511
0.0211431158349983,0.0051033116242668,-0.0175844308611053,0.00374378734388627
0.0103620596885453,-0.00847492320484694,-0.0122743546561587,0.00251705667307287
0.00209474054655774,-0.0204045428924707,-0.00509486206630468,0.00208858485352323
-0.00292114475209459,-0.0235427758049247,0.00332969381437733,0.00181814526183246
-0.00406711148971644,-0.0163733749989318,0.00865462233130201,0.00190831107838768
8.81452397323255e-05,-0.0269206513917216,0.00443544947856879,0.00279759594165374
0.00169001694208634,-0.0499560802534531,-0.00426347927799346,0.00423269440341392
-0.00787182732583208,-0.0385773499890958,-0.00444576876394976,0.00464572787378132
-0.017350601465436,-0.0119115722401466,-0.00486605880135911,0.00201857786392054
-0.0140873945057913,-0.0100460500985719,-0.0136125566528151,-0.00222791747142726
-0.00908988990173471,-0.00547332313548033,-0.014242381013344,-0.00457714291033544
-0.0110648468439135,0.0206681962227521,-0.00472824139087587,-0.00436111492314975
-0.0080862510271039,0.0480366187392361,-0.00631250628973693,-0.00274648420991009
0.00184032808392863,0.0708472459639342,-0.0190476502396982,8.62675290006377e-05
0.0068396082448132,0.0815531141583079,-0.0195268878615734,0.0033825745473144
0.00879909643964541,0.0579465863901394,-0.00791786552137093,0.00507378478366123
0.0160677820030963,0.0151632478460043,-0.00348917363547249,0.00478002088390667
0.0221287614483109,-0.00324756463563473,-0.00646629218380246,0.00416430462551224
0.0209786110152019,0.00447500573803667,-0.00578256692604867,0.00373322058142179
0.0223261167852397,-0.00300117482611452,-0.000902406280937903,0.00258711529930103
0.0247088536152769,-0.0209962509076194,0.00373961245272112,0.00078146465375457
0.0177477668514663,-0.00328488233133788,0.00856765798980014,-0.00141345214298904
0.0106623658993891,0.0297157575976858,0.0114265976086409,-0.00473569235435368
0.0109039696327878,0.028708809691144,0.00589228588635586,-0.00820768594624484
0.010942312668786,0.0087489729336003,-0.00393476830536036,-0.00889175592628957
0.00542326954374953,0.0025789335998345,-0.00810793477474859,-0.00601634855975693
-0.00661975454272474,0.0120409118440948,-0.00580059705095481,-0.00160472169268619
-0.0208364103199743,0.0228805446171407,-0.00329298393454299,0.00204504229675932
-0.0257019647507985,0.0192961754664228,-0.00562214924412418,0.00381482748461572
-0.0201536463017616,0.0127295267130218,-0.00677835676392192,0.00379555213134525
-0.0142828565105981,0.0189882731583372,-0.00121201813174831,0.00169425670676304
-0.00979383912465735,0.018747551579336,0.00353768343146158,-0.00257370987834182
-0.00767494049471246,0.00424018543489329,0.0015043726878854,-0.0067211258828766
-0.00839394159936576,-0.00698516358590582,-0.00403912337171124,-0.00822092654983732
-0.00746539783170522,-0.0101061820441479,-0.00729737520988067,-0.00669519502424222
-0.00372586832643756,-0.0118201372782784,-0.00723772128142523,-0.00194551701429371
0.00166848511101793,-0.0121228705571372,-0.00657142641052673,0.00673536364753222
0.00363175158010691,-0.00106794394406726,-0.0058492983321335,0.0150501372909581
0.000368221396255738,0.0181093041766567,-0.00360542397934452,0.0150826085294722
0.00111786130603859,0.0254554254473074,-0.000954535131245436,0.006672273921078
0.00482341118131381,0.0171009496210283,-0.000130784341656632,-0.00275077307391986
0.000408801190281019,0.00693485899565596,0.000449842539324242,-0.00794090159373456
-0.00689602847011081,0.000352059779969399,0.0024270364710152,-0.00913036940483962
-0.00876255669411585,-0.00552703429589766,0.00445563849358803,-0.00892324951965744
-0.00902008845453135,-0.00632942106761251,0.00627134694091425,-0.0087227110124349
-0.0124622090592465,0.00939470636520905,0.00862312554452872,-0.0083122796516601
-0.0200208642744384,0.0359251282278254,0.00929507570795291,-0.00715552449299181
-0.0264758469734229,0.0479959426724309,0.00603746118456993,-0.00504384680895338
-0.0254832644493908,0.0421400001916321,0.00156698187102973,-0.00137027661681016
-0.0196159040505448,0.0346260598551127,0.000839022269894847,0.00384492405608908
-0.0165466739450408,0.0311898520667351,0.00382551081148864,0.00773502663347675
-0.0200992261713608,0.0297851137799568,0.00691479433541416,0.00760643552367794
-0.023820804404411,0.029362658467282,0.006822162129505,0.00475239217095518
-0.0209728183485675,0.0336329557659051,0.00134528342353872,0.00195313771169039
-0.0144079545626401,0.0305516839595501,-0.0038463117163779,0.000181046020158549
-0.00871437370842127,-0.0140978670140603,-0.0028166326310911,-0.000545278484164989
-0.00691424665367455,-0.0929295163217407,0.000779926648120262,-0.000152684616973814
-0.00982331085783159,-0.128770977304112,0.00564006898919984,0.000893275393593632
-0.0134134314652095,-0.0801092338445875,0.00985648831810254,0.00145391759160145
-0.0113407802633639,-0.0111132114122142,0.00810351687803196,0.000752637066904764
-0.00503613383442015,0.0149792344838987,0.00281197845945395,-0.000662039316671126
-0.00211455107132978,0.0155718866167438,-0.00154487424808293,-0.0016247609613954
-0.00219361945335161,0.024008097838713,-0.00374052208269849,-0.00129007638859601
-0.000480057713150804,0.0361788989325513,-0.00343816241234465,0.000101877914575493
0.00333295053476425,0.0362345859637224,-2.67654235288034e-05,0.0012231348395104
0.0116875616987376,0.0278081752773259,0.00563666205622654,0.00137634151886782
0.0271802432655025,0.0241417197996939,0.0101604030130767,0.00107939653886856
0.0370292322211858,0.0263545816446278,0.0109640479094713,0.00127108550985291
0.0271515246698099,0.0242016720170756,0.00916032582244598,0.00205531340546444
0.005697760240082,0.0105177485857827,0.00868106751933815,0.00253092198220067
-0.0116688187191591,-0.00506289962171119,0.0106919301049961,0.00222866328733489
-0.0225657610226923,-0.0128760032982334,0.0137642174454892,0.00117491540454322
-0.0300489463502074,-0.015289514246998,0.0182204962833204,-0.000410055200659921
-0.0267080133085421,-0.00542062140663525,0.02450598215693,-0.00200620899136673
-0.00513679125074097,0.0175153326074513,0.030288506721931,-0.00330023190676151
0.023623554537578,0.0355282756899175,0.0328755403697683,-0.00442226683621196
0.0428119059767451,0.0421366229919289,0.0337043508624497,-0.00521998166907494
0.0470610512245925,0.0405299439845793,0.0337900887728473,-0.00468403917240924
0.0387744649433379,0.0436763385373058,0.0292544848542135,-0.00226617631018244
0.0268989614585251,0.0640476212936907,0.0205795135448036,0.000946542394840974
0.0250219389200968,0.0774872267266077,0.0106834532029836,0.00344830688231416
0.0317824151532937,0.0813678710991282,-0.00514622001854645,0.00475146564687078
0.0290617728715999,0.101182741085842,-0.0294334848228215,0.00530266347339123
0.00768695761210333,0.106918061180499,-0.0491014059112718,0.0055988158322122
-0.0197097188602379,0.0558423000745232,-0.0498765719682905,0.00542249339581782
-0.0306232244814283,-0.00922265061794764,-0.033363207891154,0.00424618099210361
-0.0237826668587045,-0.0262774939088974,-0.0120147240268923,0.00198447362928329
-0.0177191389808625,-0.0117332883849876,-0.00035678613768355,-0.000640038682383256
-0.0172901364851836,0.00124772443361787,-0.00065824878811227,-0.00235533752892511
-0.0181726164857748,-0.0119269774557195,-0.00647991455022553,-0.00273933411414166
-0.0197888366120601,-0.079928211540704,-0.0128563372045643,-0.00271335550290181
-0.0180765365505816,-0.170426931517937,-0.0136082978287798,-0.00310802093859099
-0.00566898458068643,-0.183717942174829,-0.00743868560186689,-0.00358237519758975
0.0136422173615471,-0.0846491491784977,0.00254374821147303,-0.00376254401013493
0.0262220149368359,0.02484043675716,0.0113234476683785,-0.003926934451914
0.0310040582397051,0.0588269087194381,0.0148297933174281,-0.00383360281403705
0.0383239991040605,0.0569046359722689,0.0162875576010274,-0.00268890398653871
0.0469834878111681,0.0741759610852495,0.0207095861240003,-0.000731908111271632
0.0432850130020392,0.0947785113836688,0.0262547011791091,0.000837470000177616
0.0283500760081904,0.0907781711422647,0.025111050094215,0.00158907731976774
0.00875242698059846,0.0634776503591639,0.0137029546637575,0.00199938145937538
-0.0217143346742747,0.0319127793491303,0.000378065658282703,0.00262049804801824
-0.0569661174574264,0.000541664364299892,-0.00457701169052223,0.00311866577403571
-0.0680565435073228,-0.0441510580776169,-0.00269311661421821,0.00253697111319043
-0.0410991587110687,-0.0634511167708418,-0.00177206357851153,0.00120035525277492
0.000799915778648845,-0.0148478191839154,-0.00506426170787484,0.000562922993227185
0.0252888440762519,0.0582758956676394,-0.0111528141474828,0.000986953486140439
0.022331972085101,0.0986740451195259,-0.0200997287527815,0.00133898777895029
0.00534554045085603,0.104119322849362,-0.0322959970243518,0.000982295981394265
-0.00519702760608478,0.0782935834934414,-0.0433981439519857,0.000288242638770189
0.00157043412915992,-0.00286768148749122,-0.047737968853315,-7.68643328369111e-05
0.00921959744078993,-0.130918140575132,-0.0429279216455923,0.000531945405712931
0.00131774133235635,-0.228553233059919,-0.0284404915753265,0.00185147220963689
-0.0141692446312724,-0.239297559478467,-0.0102530064810912,0.00299051837324116
-0.0263685056618092,-0.179544626502769,3.84725243030848e-05,0.00318129994767567
-0.0298905880611171,-0.088689272969438,-0.00140929519955651,0.00198380189515367
-0.0179876779715208,-0.0246940618148552,-0.00873931176802762,-6.15156388876518e-05
0.0029371832468793,-0.0114420082631785,-0.0123758405463385,-0.00172081604863569
0.0101896779085759,-0.0123704635141464,-0.00793021654007854,-0.00253699490864773
0.00301701356169384,-0.0187642458496459,-0.000665306096640849,-0.00292703164936178
0.00119784839023845,-0.0236917484618093,0.0022964544946832,-0.00290134134206182
0.00484739195551934,-0.00506274904913873,-0.000146366072327826,-0.00241779828397428
0.00063685497973218,0.0131487405841348,-0.001607216445586,-0.00207479393862964
-0.0130181117236906,0.013179292595444,0.00169402663869635,-0.0019698735163152
-0.0241548685159285,0.00902964422851037,0.00412749292460267,-0.00133612321360349
-0.021013451918773,0.00515375751833955,0.00398358779033774,-1.049211545983e-05
-0.00495306753370933,0.00213346636870216,0.00824951347746116,0.00134472902880649
0.0106055661235211,0.00184525627991574,0.0150441300389029,0.00193608702659423
0.00665930134233373,-0.00436882260160519,0.0100593843801162,0.00108124049575964
-0.0165435565516937,-0.0189927710692792,-0.00532700217601258,-0.00043044067950378
-0.0243050388955743,-0.0214729941820867,-0.0131831055235361,-0.000869137100662953
0.00109086144328917,-0.00520357586290631,-0.0119310367760228,-9.22063212867351e-05
0.028957088000916,0.0154088612269511,-0.012275237059023,0.00125988236941781
0.0316316895992004,0.0189994206435739,-0.013742434573707,0.00287718425287404
0.0206486491566975,-0.00913444590013204,-0.0114280423456065,0.00398004165742997
0.0189191637672248,-0.0388950239717024,-0.00720890446968671,0.00388582291211027
0.022084321187933,-0.0397799724334143,-0.00638051376732727,0.0026941838751253
0.00831030928346327,-0.0191366288733771,-0.00733328683420181,0.00123429287609543
-0.021434780939637,0.00786399703793034,-0.00529583933577556,-8.26827104459908e-05
-0.0367759618304235,0.0236133771989748,-0.00552458918714539,-0.00194873450957931
-0.0244353455884084,0.0197028525722063,-0.00939115277557207,-0.00416202070619841
-0.00497515388451042,0.00675750959595479,-0.0101488031343798,-0.00523697975257749
0.00050669901358843,0.00423034321083213,-0.00302794094515489,-0.00440521558281862
-0.00758922046212017,0.0139890025850696,0.00950046568117038,-0.00265310891866891
-0.00977104096951517,0.0161534588977561,0.014212789671464,-0.00179114063570959
-0.00187996231027001,-0.00684114306392554,0.00678270462603133,-0.00206411599687687
0.00108878536997676,-0.0380899295173125,0.000131550380902002,-0.00210907446253449
-0.00112904009924642,-0.0358941567025563,-5.08462859310534e-05,-0.00157784973319935
0.000574828632926323,-0.00981910388757502,-0.00147034846476403,-0.00102200407610908
0.00342156592824251,-0.00754862657244539,-0.00650642372210321,-0.00010903836608598
0.000870720317375978,-0.0305562337410962,-0.0103498544888855,0.00142148666688557
-0.00369774653358066,-0.0395939600327577,-0.0117509109670956,0.00258880762062867
-0.00403468015581485,-0.0238202813778924,-0.00798277324385982,0.00241898781087941
0.00141599778898086,-0.00410510990190403,0.00172357537855863,0.00137635568649884
0.00974994878635437,0.00912895323504395,0.00591869736490972,0.000205752339988797
0.0140150318758805,0.0126482753698613,0.00115274191316075,-0.00126546444128808
0.0142382157733897,-0.00226907383299799,-0.00154557973616242,-0.00267263031407541
0.0118174402703462,-0.0146634062241905,0.00336404135179718,-0.00267892687844355
0.00693215144943771,0.0021225843738459,0.0114765641940635,-0.00132794664023343
0.00326653128635913,0.0226822883134415,0.0166402749989344,-0.000148261850705246
-0.00193333102359642,0.0243558552805512,0.0159542947108817,0.000194766340285928
-0.00773620623102793,0.0155859273630719,0.0077813847754915,-0.000512171734706009
-0.00689303923212979,0.00519705610193713,-0.00559331594241754,-0.00222077531373544
-0.00278598591921903,-0.000771307816630578,-0.0086326712837597,-0.00330983341556766
-0.00517938311438109,-0.00449786535104894,0.0107228324414776,-0.00189543344759525
-0.00936678743705886,-0.0118730291319712,0.0322171183726637,0.00167883369401288
-0.00653905465926943,-0.0212797024534076,0.0295393312714381,0.0050680148856431
-0.00344468697814604,-0.0260381986074323,0.0124833948208007,0.00591463232234494
-0.0023693330855267,-0.0216652440786602,0.00226741039699883,0.00368287326325206
0.00385087941237525,-0.0167787409958483,-0.00215423975585364,0.000298415503052966
0.0118605360738914,-0.0211162937505131,-0.00705293504545593,-0.00230476666640692
0.0165050127401302,-0.0298744506071343,-0.00890839561760801,-0.00374949174426724
0.0188046965950249,-0.0400257826601927,-0.00642877750316467,-0.00403539761436756
0.0224211766142081,-0.0436816637305846,-0.00456723642996568,-0.0034520646982355
0.0295986596223832,-0.0245550064739261,-0.00504887066466544,-0.00276687733812516
0.0335454730206665,0.00284412842775499,-0.00532524664617932,-0.00216183840923301
0.0249823296551934,0.00515940118111467,-0.00130511160682771,-0.00112328876717081
0.00857165937950898,-0.0126026277600308,0.00506770788616771,0.000291456673675163
0.000532539958757988,-0.0217522788997969,0.00659492420280748,0.00159636615689859
0.00680894113684498,-0.0149899563771325,0.0046840216925297,0.00296658587460056
0.0137948929535599,0.00223099569254891,0.00533450379988227,0.00438363783379487
0.00682583927542276,0.0243493452560016,0.00916927384031675,0.00500098639356702
-0.00798135602089744,0.038655343212132,0.0126848488934313,0.00472064846965631
-0.0138194230108336,0.0297860534643383,0.0133904994331887,0.00409981555256508
-0.00395665586750658,-0.00353943663089283,0.00835329755486601,0.00341823248724576
0.0104976261342515,-0.0230257655858775,-0.000267280666749735,0.00320790213363779
0.0148785979125453,0.00361350045965068,0.00119318345340969,0.00303938253647815
0.0121473339942615,0.0363868136844014,0.0102876985309693,0.0011881255616916
0.0104040248183136,0.0359678683992816,0.010464575999979,-0.00232639336249443
0.0103669695384445,0.0203784324274984,0.00218780596128504,-0.00480030451376693
0.011749918838488,0.0110648906926541,-0.00558873667434186,-0.00423927971781168
0.0116596338682725,0.007273442141955,-0.00982284561424901,-0.00183031233596916
0.00996868604639366,0.00297764286916689,-0.0134894775481408,-0.000246476475900189
0.0103101707250398,0.000990254207522839,-0.0162865451446634,-0.000816414574215204
0.011636106602121,0.00349494704389528,-0.012280138494329,-0.00238632910905556
0.0134179743572108,0.00373943192809502,-0.00340332671063013,-0.00283346603641319
0.0170707800975497,-0.000112564237222727,0.000546827719634813,-0.0012681495534503
0.0170056953460547,0.000981045081296775,-0.00100271190630797,0.00211345136209139
0.0111273427661196,0.011778863927879,-0.00086646354810101,0.00664636216708975
0.0078796418095321,0.0222238686383287,0.00148225797208747,0.00997969513573955
0.00747109942980896,0.0253293707872976,0.00304651785790428,0.00902475046170633
0.00446610622172304,0.0256650880047195,0.00432592623240438,0.00398870191698822
0.00238565263555423,0.0238838617418341,0.0055207263305038,-0.00131183157142356
0.00381522928795583,0.0154015735619196,0.00457426417649203,-0.00344004902532856
0.00468989649213707,0.00423410410622006,0.0020319612842,-0.0023842697819833
0.00397762587163663,-0.00155247523823893,0.000211217770695927,-0.000570466239210636
0.00476206849248899,0.0123272084316703,-0.000328571749451414,0.000379805443461754
0.00643013425992047,0.0475239805753291,0.000389906277107563,0.000353780594860919
0.00616041941395625,0.061008776359177,0.00225063611289156,-0.000315256842208089
0.00453159008084329,0.0315080183824696,0.00400935626025132,-0.000903533723625418
0.00308478487995787,-0.000532702056309522,0.00489240681147957,-0.000880697491778068
0.00161961327895313,-0.00430676426665777,0.00740561016220975,-0.000702168490834042
-0.000625405785888876,0.010558297471823,0.0127759633295004,-0.00090022562028363
-0.00206775190836181,0.0249802480081783,0.0136187470163471,-0.00143680615326794
-6.22637085930134e-05,0.0335158564461252,0.00819090550197221,-0.00159804722124285
0.00188208931627009,0.0417487598248386,0.00812417372300716,-0.000871748684885746
-0.00217744491181757,0.0252779233333671,0.0107918806299789,-0.000341742698889656
-0.00760681818942329,-0.0403426250747244,0.0021480869622591,-0.000650662614603691
-0.00781413034519289,-0.0799623228985407,-0.00955004552722169,-0.000597247996845086
-0.00732304924140968,-0.0244222792870289,-0.0123715079555661,0.000121417989814894
-0.0121090921129819,0.0607560378449237,-0.0129503699004844,0.000231124900753376
-0.0170813081524253,0.0960320234582468,-0.0142812231922963,-0.000553481958002028
-0.016476974394537,0.0699240088014465,-0.0122670791876224,-0.00130500198632558
-0.013627130372505,0.014311354362069,-0.00713540733341874,-0.00162952784379155
-0.0126443896078329,-0.0424096473505005,-0.000209174645379711,-0.00181031343658823
-0.011951907428577,-0.0856496341992585,0.00739005266446736,-0.00185645778933355
-0.00655337120718612,-0.0745547174391974,0.0146997934860853,-0.00158977320167474
0.00244307855693471,-0.0102316724972282,0.0202974017280498,-0.00122896814669929
0.0112856254043411,0.0467233484565418,0.0209874458234042,-0.00106991163244639
0.0190919048295727,0.0680591379530791,0.018096697346869,-0.00137721643624469
0.0181066558482826,0.065257690821389,0.0144100412163195,-0.00194122818649158
-0.00340902575996356,0.0500769529553887,0.0103421100828215,-0.0018461665187783
-0.0356667151827078,0.0122212684655506,0.00701160937250436,-0.000894894094227553
-0.0493030669236439,-0.0330042951031754,0.00493093424824933,0.000211459355330882
-0.0340926523962076,-0.0287192159634776,0.00446520160129365,0.00106874548489234
-0.00703258201736145,0.0126311772013212,0.00590028549139128,0.00173759411161162
0.0115241475037256,0.0266996069393753,0.00948149833256868,0.00215919118134183
0.0138742055747476,0.0104623815374844,0.0116486025824071,0.00197318192924894
0.00842285504604041,0.00623524776677152,0.00796463764299175,0.00139127812421131
0.00679258694033024,0.0357299309671445,0.00718996440070841,0.000971207990250227
0.0128679925581015,0.0750064093546309,0.0154102141746864,0.000104308593501803
0.0227814802963476,0.0818704913617671,0.019001447646137,-0.00186800301471533
0.0271758129650162,0.0551602860279129,0.00886795197218209,-0.00375790007424585
0.0175162943933515,0.025990493984721,-0.0114029649548025,-0.00373588864870834
-0.0049529989402656,-0.0198190825814799,-0.034875729109805,-0.00140204402757542
-0.0197389512351153,-0.0893055757786613,-0.0507661000437617,0.00211652738089316
-0.0124721466739577,-0.10128958393289,-0.0475543839823187,0.00492707692004932
-0.000402294119852355,-0.0331275453111576,-0.0252525372353301,0.00505417752634984
-0.00175214469138759,0.0263269672274166,-0.00335111556232901,0.00200780323151765
-0.0139126096385031,0.0310530531659099,0.00481047324939737,-0.00225158614975474
-0.0276500883158451,-0.000392730418372494,0.00612141256266257,-0.005061508045631
-0.0336697885790581,-0.0407450865204326,0.00623103979454449,-0.00519357869586793
-0.0271966782384862,-0.0500603466078507,0.00393758646156667,-0.00304252130933573
-0.0180048066680135,-0.0158234029422603,0.00082108937963965,0.000159549904626119
-0.0183345774643578,0.0169922412391327,-0.000119401228759161,0.00322023551661313
-0.0256839839207982,0.022011410025299,0.00317609310687502,0.00506321522328908
-0.0293709125382851,0.0256284745201094,0.00894113668567263,0.00499562270566969
-0.0288901398076793,0.0362454293046662,0.0102115922170633,0.00336668017716304
-0.0317717535356494,0.0145098631045664,0.00671091592982795,0.000930594308724015
-0.031123841302294,-0.0378053225161477,0.00498367232492695,-0.00200702948738697
-0.016047376161998,-0.0542150807587053,0.00888200772693919,-0.0048667872706961
0.00899913583831667,-0.022343783110148,0.0175769853264246,-0.00638147799371908
0.0347117927638098,0.011301781770233,0.024992180969488,-0.00597011695581875
0.0527154840740629,0.0124642614994064,0.0179895442664866,-0.00386447055573431
0.0537368285473255,-0.0115110819977775,-0.0029617649073774,0.000559515826490749
0.0310700796168291,-0.019040238590511,-0.0178189066034486,0.00803281586250679
0.000474771009144219,-0.0224170307776289,-0.0253270649283697,0.0155960505107162
-0.00599885375137408,-0.0477664983508032,-0.0350244356682382,0.017981014972975
0.0104539908794391,-0.057115829503611,-0.0368720067846531,0.0142214475052354
0.00821429408667591,-0.0136494803164874,-0.0196694880962258,0.00770128875608377
-0.0258610331839173,0.0554209650151214,-0.000314084761845322,-0.000327374561895553
-0.0502806873396969,0.0869810777818654,-0.000834222974374651,-0.0106225677038295
-0.0472435856029472,0.0598965778115557,-0.0125913734825385,-0.0196429671987952
-0.0372457340373405,-0.00757593902238961,-0.0191939249909538,-0.0213774968281119
-0.0318672400507206,-0.0704940142573398,-0.0189039433443664,-0.0146837009317755
-0.0338182849193782,-0.0756990886687927,-0.0160494575833112,-0.00374957130288771
-0.0383491122140124,-0.0376303333151254,-0.0134312706467957,0.00572851984419719
-0.0332624408302609,-0.0105393929508695,-0.0115652495875498,0.00958083218666613
-0.0108264099893016,-0.00682194304285725,-0.00714699418405933,0.00818868537621546
0.0174388810424803,-0.00548867177391166,0.00155507252630601,0.00499855318734616
0.0320593599480221,0.00439875643247247,0.00939122283376805,0.00199068139724036
0.0358637374055255,0.0146366702520294,0.0112995606397213,-0.000541446812526857
0.0377440829321177,0.0045995492221378,0.00874506654325389,-0.00229056837294733
0.0289435623311692,-0.0273076976277459,0.00820148307147509,-0.00285978707005246
0.00876098721589415,-0.0439172846142258,0.0088667436437356,-0.00226547894510201
-0.0175949993823198,-0.0217357759783922,0.00442589072298478,-0.000878535394250914
-0.0441832288721908,0.0256589485049259,-0.000627674765867445,0.000804676922922003
-0.0498376421306613,0.0722295064969023,0.000963299533349203,0.00177901851683329
-0.033758857130934,0.0827775152997597,0.00299165494747389,0.001326017722098
-0.0215800725884027,0.0524212242160302,-0.00377305606524051,0.000265043767052132
-0.0181869064495488,0.0290219274586778,-0.0127139555060749,-0.000164791509095318
-0.00449213497131135,0.0396044152883835,-0.0133667049066807,0.000415511756505996
0.0134570553199319,0.0565654547845104,-0.0112933815896385,0.00148668607798834
0.0178394086341634,0.0487938914714438,-0.0125006344255135,0.00215358461214909
0.0122185023523706,0.00156662531926412,-0.0139856638355591,0.0022245507598503
0.00115948298572097,-0.0738936128906494,-0.0131834264915822,0.00194923260920155
-0.0104908136196444,-0.132061665082323,-0.00909593514731198,0.000867699782171087
-0.0170889207315661,-0.121098790256585,-0.00451773912651343,-0.00106529853961284
-0.0175787431292815,-0.0428218591825598,-0.00453694540310105,-0.00262898419777117
-0.0103983623123426,0.0187580213212292,-0.00695034793226063,-0.00286985952879482
0.00604351080618721,0.0137090973390604,-0.00477333650621153,-0.00203609063098193
0.0250216846210895,-0.00439046562092529,0.00203364043948415,-0.00106680147225529
0.031086221605427,-0.000687679612267497,0.00990941750523588,-0.00064962810156621
0.0259139085016217,-0.0204305871563806,0.014260259939763,-0.000984996649369103
0.0220723294374136,-0.0801379695490437,0.0110687194681429,-0.00143472461554683
0.0152635686431047,-0.106237828118921,0.00768890917338631,-0.000874076972907329
0.00275905795002521,-0.0560001399117733,0.0123369815542151,0.000512682578336801
-0.0104566055726463,0.00474328066356305,0.0211634894557839,0.00115920055779711
-0.0205037980127373,0.0302439786773663,0.0245286761580588,-4.51989495872352e-05
-0.0211918667523334,0.045133454328306,0.0145992802807426,-0.00222323887471265
-0.0177810192808979,0.051881774092496,-0.00789742964458306,-0.00303680332468184
-0.0224224066087594,0.0468515108760834,-0.0242912564769906,-0.00109479688774501
-0.0274972118862891,0.045950288189384,-0.0167050890583841,0.00210646586067678
-0.0180379867340962,0.0351042882454006,-0.00200686332431205,0.00361339159812326
-0.00126695693826616,0.00170488450934519,-0.00289118757340958,0.00290240000078215
0.0110531253660097,-0.0219030360462725,-0.0121578852957224,0.00188836475584051
0.0171198375297129,-0.0161408268686174,-0.01500085994239,0.00167620323568579
0.0168748679505705,-0.00920937418617754,-0.00986600870276376,0.00171795936223072
0.0133623917972159,-0.0191054496215941,-0.00361360765388497,0.00131154762596648
0.00700774843015351,-0.0318510032161361,0.00211090711889968,0.000696345795567252
-0.000890894224615118,-0.0376946996990068,0.0124472118299358,0.000276808868106564
-0.00382190400334417,-0.03708726228792,0.0236448604272084,-0.000327267086974789
-0.000885679064697626,-0.0340183037377166,0.0249486125798181,-0.00138886696192723
0.00410842646633309,-0.0359070438870464,0.0175926370668252,-0.00211388341615795
0.00834630937200828,-0.041981974212178,0.013301285258983,-0.00201537604508798
0.0108484118760221,-0.0425851832063331,0.0156879485199758,-0.0019322425357464
0.0128851397487911,-0.0373036810744062,0.0164173940180162,-0.0022906667016176
0.0138233431465971,-0.0359957991527414,0.0115621797468116,-0.00257761738808531
0.013282088158237,-0.0408466437634256,0.00447043288632008,-0.00249492731743534
0.0123092044917504,-0.0353840840208688,-0.000294855787924783,-0.0020258689199748
0.0105278444005631,-0.011099852936831,0.00016190259202452,-0.00154429261345145
0.0102578422082543,0.0128484226012182,0.000386053295348542,-0.0014030458970336
0.0125794763829332,0.0265931198199598,-0.00337765191936885,-0.000925967417993978
0.0130196508710157,0.0366638567173176,-0.00570749928867643,0.000706247102292496
0.0152089544879008,0.0380400978683703,-0.00460828049233696,0.00286555435360938
0.0293320404073549,0.0248118935909093,-0.00604884593356513,0.00425142136938444
0.0424619603898822,0.0225844861879896,-0.0119638631717939,0.00458533754498464
0.0356446294700891,0.0485960272434737,-0.0178323598247524,0.00377560538433078
0.0249832273360793,0.0646061747225369,-0.0205073164204796,0.00152970883963155
0.0277828548862069,0.0416851830549055,-0.0218853780161461,-0.0011091263308692
0.0233013392288673,0.0205473989726483,-0.017643374238928,-0.00266534594531605
-0.00473390490564479,0.0399891176984515,0.00117945895308281,-0.00353209401125837
-0.0307705216017164,0.061525791834486,0.0206380813885454,-0.00472463325508018
-0.0295580093673376,0.0511558981748942,0.0240399679597457,-0.00517894905177584
-0.0129135830750014,0.0278084125424755,0.0175971522802821,-0.00348530771529498
-0.000940767075504469,0.0114719319538425,0.0112619158223906,-0.000520761557810068
0.00556803224845831,0.0078737242373469,0.00841538847827693,0.00207526382980812
0.0121796567124423,0.00755540158467311,0.0064536832730502,0.00378700640887133
0.0177261856249353,0.000514526302708356,0.00443912957369305,0.00459646179179174
0.018646968762226,-0.00606464626874836,0.00496372568565026,0.00435196132212392
0.0153814482429689,-0.0206091420761943,0.00570235163521479,0.0029445444046435
0.0130278570953532,-0.0602247971818978,0.00453831594475402,0.000800669895361828
0.0159209212653174,-0.0859312429356051,0.00186581094746284,-0.000909867135476028
0.0213762873327481,-0.0566903700051957,-0.000239614326884843,-0.00130674502697891
0.0227243222407885,-0.00480856283922672,0.000802972464011171,-0.000951025187741634
0.0200120994526681,0.0394194977886855,0.00363883603053877,-0.00161187515172586
0.0177482514983103,0.0817042423454311,0.00354357556680618,-0.00405364538406787
0.0129191056665825,0.105363963632913,0.00185320564330653,-0.00656164027572244
0.000684656791443538,0.0886612740700182,0.00497502658848319,-0.00693151884957167
-0.0134793246866998,0.038039065793206,0.00833047336560419,-0.00471996798444446
-0.0165185600531775,-0.00662149737964994,0.00375235734142829,-0.000678718986527382
-0.00569450712436665,-0.00807878521955104,-0.00533480463503907,0.003905937432196
0.00601884196742251,0.0105327693354739,-0.00696732790921141,0.0072635801252921
0.0104345486388689,0.0136273955715865,0.00460175183113968,0.00853989017143065
0.0107556612685944,0.00416410725686565,0.0193919550068213,0.00806122293473222
0.00849969253093583,-0.00856664163858114,0.021622209185813,0.00616917245524867
0.000525398663565864,-0.0535837037678564,0.0100516408086453,0.00330280541748599
-0.00861853636545125,-0.132872741197421,-0.00217049701958458,0.000387308190663899
-0.00816618661809509,-0.156728541066709,-0.00653422592006103,-0.00159509442830033
-0.000723278680011881,-0.0900054143459605,-0.00242318279240534,-0.00250704848689928
0.0013053855305074,-0.0135108689453008,0.00516703042744935,-0.00293775534074348
0.00112468732459869,0.0176902296129076,0.00989620949093387,-0.00318859294310888
0.00776816517520409,0.0201548242576955,0.0104707097874582,-0.00314995045079689
0.0125181071997049,0.0211425502312107,0.00817527936677308,-0.00252052326982939
0.00989259181364184,0.0276509256032884,0.00464105517811367,-0.00127651426253222
0.00837097874190366,0.0350036698199599,-0.00105995235302325,7.45662785377839e-05
0.00431222692982236,0.03696819683465,-0.00882249524311919,0.000987498364272219
-0.0121598786088763,0.0268334212812858,-0.0131825553322105,0.00134873490062173
-0.0309865425671841,0.00910552475033451,-0.00893754702067807,0.00117137128733555
-0.0375639630274536,-0.000641385686320276,0.000258258346139935,8.34176761689832e-05
-0.0353752290585715,0.00282385192636102,0.00673434919812835,-0.00183260515970009
-0.0284457027644978,0.00907716527863872,0.00925515315917215,-0.00345979318975284
-0.0155795516475106,0.00440984597654588,0.00818619593666038,-0.00361031711537596
-0.00492002908516372,-0.00926639757959355,0.00559196166092549,-0.00180645378621264
9.65461950924659e-05,-0.0126292450976725,0.00566939035751944,0.00222178755079558
0.00929080408444202,-0.00140759456695346,0.00686075487875257,0.0071517203190205
0.024094848276007,0.00888257957765479,0.00719173585916549,0.00863425294342314
0.0319297803298583,0.0097690649836157,0.00547267317649604,0.00471738173097291
0.0273686111335481,0.00762542421050029,-7.55092344721826e-05,-0.00041071842413755
0.0211659222000378,0.00666827621957056,-0.00388902293327879,-0.00247889755467841
0.0228352761371582,-0.00257094772038582,-0.00260025840061669,-0.00172252767521814
0.0268600584179637,-0.0219326139826479,-0.00225252517643006,0.000121239865091814
0.0229590558535557,-0.0301954661662037,-0.00440080708057593,0.00192091755771123
0.00936851041423039,-0.0128997875323266,-0.00382688646342668,0.00234255884564411
-0.00614291293398027,0.010336945235954,0.000103515624975652,0.0011255792163007
-0.0150265947991473,0.0201707819923234,0.00392900647680305,-0.000319305216480882
-0.0143427428633211,0.0245565858447878,0.00548767263860754,-0.000880641045656171
-0.00820486337158326,0.0270897951823499,0.0025248112627562,-0.000571260575366693
-0.00805316616541158,0.00298045129918301,-0.00293835115909152,-5.13264662197325e-05
-0.01829836345918,-0.0334020222986578,-0.00315431606643422,0.000205313066663887
-0.0273956059371144,-0.0195102221588562,0.00241237994169216,7.85436385543452e-05
-0.0235012892533924,0.0326953444401224,0.00791290737014142,-0.000626562512118988
-0.00708629872645889,0.0561646879858029,0.0103937567681784,-0.00146425857272171
0.00712944066969795,0.0467279407234855,0.0103748349012035,-0.0012283544513954
0.0065417288586095,0.0544480107955824,0.0135508671441245,-8.53822701061095e-05
0.00651292130194493,0.081538004225403,0.0204814131534511,-0.000204119383700511
0.0197910149952523,0.0889733174436404,0.0218040663315037,-0.00204314998642809
0.0296393115181075,0.0820417084064658,0.0164279158977748,-0.00325766555111575
0.0235362493784985,0.063377557568787,0.00997805393533116,-0.00237117658110665
0.00176196333707358,0.0149262485352932,0.00500355618858233,-9.90458442154162e-05
-0.0243675062613624,-0.0553255639102746,0.00453659975547258,0.00189677374224271
-0.0324491981774281,-0.102696188040509,0.0072672659847065,0.00273383918496761
-0.0192946468917788,-0.073509971723998,0.00905938070167765,0.00276944831456642
-0.00493947664899862,0.00550592172977311,0.00727925366053259,0.00230484259447529
-0.00376629824879075,0.0561377057092349,-0.0011415537052431,0.00132611506138786
-0.010800772389955,0.029654069310221,-0.013497791762103,-0.000177665645241373
-0.0104483629590461,-0.053547025251839,-0.0190426580155736,-0.00135187869159901
-0.000304576019668049,-0.0912328835555587,-0.013030901350547,-0.000585795628174442
0.00656285130625556,-0.0411747757809121,-0.00324117409445206,0.00159016606205948
0.0078196662492564,0.0261536174593354,0.00316351287148742,0.00277484840493023
0.0125848387184338,0.0592723377519035,0.00691943505208777,0.00219243424833465
0.0179236259905023,0.0508534686085932,0.00862773283005073,0.000848687700496681
0.0119686610615206,0.017590671179749,0.00643970714843866,-0.000216471547393157
-0.0057281645604569,0.00306564949134617,0.00392070220509667,-0.000749996317553018
-0.021712570817848,0.0166719003596452,0.00470557000465685,-0.00123613369346143
-0.0242102966582471,0.0361800082331403,0.00792027466499638,-0.00197815879080707
-0.0174754303049144,0.0602071660271183,0.0128918879352814,-0.00262182313106578
-0.0133140867429856,0.0810015631790784,0.0158899987737124,-0.00272875559133916
-0.0152379295985588,0.0711922065435253,0.0144693895180929,-0.00245102300446431
-0.0236073321797629,0.0330065716963315,0.0101054616465594,-0.00227040133172788
-0.0391567080571068,-0.021952289952964,0.00482573243241093,-0.00225478188288338
-0.0492713497740447,-0.087993450058924,0.00364824314241422,-0.00207168583344381
-0.040446853131601,-0.121330276142445,0.00765637342441149,-0.00166446070834354
-0.0210311590888437,-0.110419473210725,0.0129071862397359,-0.00121564040489061
-0.00654215243633459,-0.105432052723139,0.0179550047802218,-0.000755926602543841
0.000614588517336784,-0.11354530868491,0.0179272872537722,-0.00010511203403774
0.00217714906878734,-0.119027267733914,0.00747236079292352,0.000951137587535658
-0.00412681268379198,-0.119382365264785,-0.00592920920945751,0.00198591542025819
-0.0107212692538593,-0.0885481765627106,-0.0124784051961142,0.00222660566906522
-0.00457716009737695,-0.0330215474602301,-0.0117540953792259,0.00179327611142159
0.010338422487168,0.00513001854192,-0.00561971723804512,0.00151686827682804
0.0173519258462059,0.0199521020576886,0.00403527909707201,0.00163244076837529
0.01004947973775,0.028073201679726,0.0136369606915134,0.0016363036464851
-0.00262267312290409,0.0357548534865386,0.0172489582857954,0.00110434542939472
-0.0139919774525899,0.0471768392656404,0.00807909710665428,-0.00011576710419955
-0.022043353065201,0.0657425635418748,-0.0130253634222192,-0.00182431920597299
-0.0200088337832582,0.0806078928528673,-0.0323444651658058,-0.00315549227258935
-0.00495876806810954,0.0673229404165668,-0.0366497392019063,-0.00312138593775523
0.0154732756369885,0.0228227388602862,-0.031309401271975,-0.00151630584708839
0.0299100869158964,-0.0255923478417901,-0.0257470562804087,0.000798263240228855
0.0308055533058144,-0.0625787208232544,-0.015588533289662,0.00247332799699612
0.0196668154207826,-0.0844248179606392,0.000161903065456222,0.00273062731048533
0.000723604480402498,-0.0890180076345374,0.0150327958519895,0.00160986835422617
-0.0183616511358205,-0.0857541411818047,0.0257034493992218,-0.0006653828543879
-0.0268500574278276,-0.0744661277094777,0.031633943193189,-0.00337197738239542
-0.0287076260832063,-0.0585681058757712,0.0324149765669589,-0.00504365328988866
-0.034699853329941,-0.0623797052928851,0.0263915722493946,-0.00472268172652572
-0.0419595163559023,-0.0800669933016728,0.0175343176452431,-0.00258674453245659
-0.0393843399574786,-0.0724148119568981,0.01135094929941,0.000520002822320793
-0.0287061573257075,-0.0303251517902963,0.00789031734157535,0.00316269584402644
-0.0195100224306843,0.00443757241323786,0.00563960924488198,0.00394539083733184
-0.0139440265581328,0.00329173320648731,0.00458213295328042,0.00307020572726504
-0.00932373556483538,-0.00113438294044503,0.00494869441293549,0.0017321104900823
-0.00247934573363634,0.0228833557542108,0.000715976283555218,0.000450042619877176
0.00941231900127664,0.0511637483982609,-0.0148375199631002,-0.000439536925245277
0.0288401604054682,0.0601066540844087,-0.029715483363797,-8.6516993024498e-05
0.0470060342027769,0.0664289030422855,-0.0269435262181527,0.00108286195214192
0.0495754287150577,0.0697360766766634,-0.0143804001563341,0.00105598439544475
0.039411591644363,0.054638433229321,-0.0104711392991234,-0.000584140588387516
0.0292590560130951,0.033723021820862,-0.0175551638549144,-0.00201427555565925
0.0193420495013979,0.0294660067924561,-0.0251144102401099,-0.00201443160341281
0.00238378192510585,0.0396971844577101,-0.0296477864707329,-0.00150192745416107
-0.0186519795805568,0.0386695157124517,-0.0292456417408248,-0.00176753294404989
-0.0363076740808588,0.00583194708458343,-0.0187234817593096,-0.00257273862452326
-0.0453430062871134,-0.0389309581176945,-0.0114576086325881,-0.00346442730896348
-0.0415945398247746,-0.0458353318155198,-0.0212489987001835,-0.00470151961593554
-0.0301817477410012,-0.0183061390224147,-0.0308766748614705,-0.0053984131430201
-0.0195529804207762,0.00522285260218585,-0.0218993209323339,-0.0029886550624321
-0.00658286201151561,0.020310208036489,-0.00469244162685927,0.00439575927407237
0.0138074249345016,0.0359736709778027,0.00632236393529064,0.0131677939540879
0.0316130673527978,0.0533489869481313,0.0118690522105874,0.0158914038779288
0.0335367821162194,0.0675024320210906,0.0146736927736318,0.0109638324989237
0.0223117778199884,0.0588465041352672,0.00930183017437358,0.00307950036741482
0.0133230737982165,0.0322009239296903,-0.00345256497066796,-0.00332257208730272
0.0149761174974873,0.0436979801265563,-0.00749562993236885,-0.00674218995898703
0.0225725330016985,0.0919041759970008,-0.00148553518630507,-0.00875129072550827
0.0313700697013777,0.111172877340793,-0.00460231968365931,-0.0103079282517351
0.0381909200750976,0.0894580898008514,-0.0194673617316106,-0.00969450821879011
0.0399658437492443,0.0456681536405096,-0.0329048173939122,-0.00571365976168994
0.0312298867834273,0.0149886734444901,-0.0379757628388558,0.000394494139650908
0.0116797766359694,0.0396660439010827,-0.0294507838776553,0.00534768655506717
-0.00625052482948492,0.0700018028147765,-0.0141215114249908,0.00599005964950569
-0.0167531778655076,0.0403967281565082,-0.00937295260235416,0.00321111792785647
-0.0241297882012673,0.0029775552962204,-0.0112911967839196,0.0010357319420956
-0.027898766440104,0.00807656274151828,-0.00743978402746541,0.000906952295848456
-0.0231915256320207,-0.00468417274073036,-0.00412224462133857,0.00108226772712144
-0.0149563769646345,-0.0470719912337564,-0.0053001708462619,0.0011698739783112
-0.012189134410477,-0.034894178207423,-1.87617625076585e-05,0.00208498724644209
-0.0109863115643628,0.0318496720269875,0.0102241939828754,0.00309756551710111
0.00171221668110558,0.0759299666758069,0.0102563610766819,0.00297753357560491
0.026679095047417,0.0762544361240302,-0.000985175866974483,0.00185986473333432
0.043582416819212,0.0526185316036959,-0.0114997945821778,0.000784980668193973
0.0486815609040887,0.0222657670286429,-0.0168985625429132,0.000583628247206564
0.0560821646801459,0.00999037357268899,-0.0196309826836419,0.00112975194071898
0.0551929016350254,0.0115366243413435,-0.0200002738195942,0.00158339001218686
0.0339479348298102,-0.0175989846507845,-0.0192101164968937,0.00179317539787066
0.0110669361698064,-0.0615983098187614,-0.0149745280221381,0.00216920203330402
0.00302387005128493,-0.0489693592997571,-0.00219633174252076,0.00164812611895452
0.00437409445146628,0.00196641110593358,0.0129006406476408,-0.00148678746449326
0.00725351918921761,0.0219441254039622,0.020508972893084,-0.00596886834337946
0.00475888356607024,0.0120713132807246,0.0234772536133908,-0.00831104943455151
-0.00625522325493054,0.000866355351799592,0.0265798726374579,-0.0077204199777881
-0.0169653865196701,-0.00964123294002439,0.0248068695125022,-0.00601474535477894
-0.0181898200616928,-0.022241455217149,0.0168654416898977,-0.00410638140672727
-0.00968358570453922,-0.0312041522878367,0.0110129768783376,-0.00167187211781971
0.000219665454823931,-0.0537211286573357,0.00821737597260473,0.00154538718832972
0.0014976394087075,-0.102192620943555,0.00290455435641133,0.0055030626950048
-0.00124390284925582,-0.130130102360278,-0.00169562832859396,0.00911703244341712
-0.00312320597336973,-0.106330458563927,0.000398473286003038,0.0102324982647484
-0.00999494949583781,-0.0570144426087628,0.00600025468575827,0.0083150053933084
-0.019468298529643,-0.0106340960982275,0.0071246938724994,0.00511284158099236
-0.0235176119596439,0.0230028072723744,0.00409634677378062,0.0022795822012748
-0.0206589132624466,0.0403975185408692,0.00343939323904832,7.29548922013172e-05
-0.0129259067493557,0.0330688643834009,0.0052185482066299,-0.00182934244512046
-0.00235398580242418,0.014997580472067,0.00874081095134076,-0.0035160988781662
0.00575949940668543,0.0150029685972462,0.0129609202601839,-0.00498055312424129
0.00651769730625037,0.0270937346935452,0.0136211634350951,-0.00601222397014972
0.00592259616379202,0.03050163319701,0.0139883057363507,-0.00588449187882152
0.0100755362619609,0.0273886306297,0.0132829846763325,-0.00411542283331518
0.0105443723990261,0.00782644821669674,0.00518315106806555,-0.00179472030041257
0.00192238294913883,-0.0329617332244647,-0.00457173179597024,-0.000382143318613406
-0.00682370449972345,-0.0463714778202145,-0.00654533921165888,6.86813961864748e-05
-0.00702919355996042,-0.0277757665486431,-0.00273515869761803,2.46313189239324e-05
-0.00241361249276368,-0.022984517727328,-0.00177457294668654,-7.35888461021594e-05
0.00082743536823102,-0.038708049630548,-0.0047472217115717,0.000466253987481469
-0.001499672499088,-0.0784477459697011,-0.00848538607374042,0.00172206074904705
-0.00981497922286436,-0.129691589072314,-0.0109848099599286,0.00288499010238457
-0.0129151225080371,-0.138798228879174,-0.0106213134709441,0.00328761685075203
-0.0102808713057631,-0.0872130895205756,-0.0068376483163053,0.00277367338529207
-0.0122562287515103,-0.0318432001697688,-0.00161872574898271,0.00154285164653728
-0.0145714226658777,-0.0182512016941059,8.63142742623633e-05,2.13320425249573e-05
-0.00878817145603831,-0.00635563463637692,0.0028712170474741,-0.00133101203252798
-8.92624746651437e-05,0.0289191193278863,0.0119752546182654,-0.00201657263457771
0.00686171577677434,0.0514368191497447,0.0156187695066624,-0.001808284490752
0.017261667242095,0.0514762836655858,0.00728640945412492,-0.00078717945716523
0.0242205729460822,0.0517617912482769,-2.50372403856614e-06,0.000435423903296322
0.0173496636429385,0.0557058395763518,-0.000956045373274216,0.000659345000632484
0.00280862926288589,0.0500943237402681,-0.00246264630434571,-0.000200165705707955
-0.00535115807535408,0.0342295379806029,-0.00539666913722484,-0.00110894190688424
-0.00290559507857004,0.0144778692324865,-0.00979042732176694,-0.00136178473797683
-0.00241487700783998,-0.0292572996680041,-0.0144712581804365,-0.000316434773015325
-0.0114565132010672,-0.0952416940883149,-0.0118760498413689,0.00217820088084445
-0.0222901271713261,-0.111062928934223,-0.00100382490096473,0.00435480781218398
-0.0259443668058679,-0.062799043718768,0.00743098908093847,0.00374539660031395
-0.0194324800982682,-0.0326476468332877,0.00558049103564646,0.00034560781086946
-0.00457480900826177,-0.046837719949527,-0.00305981490487812,-0.00313287057415755
0.00747193928235527,-0.0613624993258597,-0.0093557520753485,-0.00421202134976234
0.00834053251542418,-0.0536823475827469,-0.00693449072299746,-0.00277741995627469
0.008004570606434,-0.0270377246856229,0.000555856004107258,-0.000419363893581171
0.0146606640934973,0.00962454300902664,0.00445040881125357,0.00129515039213342
0.0193042819603921,0.0453997526368555,0.0019344242821739,0.00168142693039911
0.0159409110394514,0.067800680148722,-0.00582125038679187,0.00120090178975239
0.0108367276298772,0.0710879239659908,-0.0174486342845237,0.000956956858187636
0.00896727417991316,0.0632344482335677,-0.0258710483733511,0.00112085305022111
0.00827922843871133,0.0446625030522491,-0.0204514177521459,0.000810294240747425
0.00397596307872046,0.0157441772599861,-0.00386472752831531,-0.000336393924879067
0.00294836442975186,-0.00548321494769272,0.00788354742205529,-0.00187176999282957
0.0116259185470564,-0.0100776329737507,0.00780040098833877,-0.00316148971413975
0.02029424403426,-0.0191689887794925,0.00361516980362211,-0.00380961848802428
0.02123174956696,-0.0510861214340659,0.00219343984591644,-0.00402781725740804
0.00945804332309685,-0.0881074010432537,0.00227056657417753,-0.00397381576036759
-0.0155471549228171,-0.111601598193893,0.000586630879416118,-0.00352416876326625
-0.0367024748257827,-0.107754135067281,0.000621867967461363,-0.00274308047243411
-0.0301203880054402,-0.0582246788627367,0.00532954388827097,-0.000824275304557916
0.0011976947976872,0.00881905445968034,0.00824087408159869,0.00424901138704829
0.0164120052271774,0.0480355671921682,0.0071577502054651,0.0113136681133332
-0.00719088797443025,0.047038496457124,0.00310448229766332,0.0141826717040123
-0.0355945238306879,0.0203518138192977,-0.00188606658541789,0.00984454828695411
-0.0274474093312693,0.00125321140204893,-0.000138706652177785,0.00260292420277614
0.00636279852501796,0.00241682321592835,0.00387539148703671,-0.00284508248471524
0.022526222964268,0.00039800009118056,-0.00256036443260063,-0.00581864596845657
0.00948068798021359,-0.00606706148782348,-0.0135126625886042,-0.0071950236266211
-0.012441841077619,0.0105052603738768,-0.0154480169479948,-0.0070904523155475
-0.0279237780339028,0.0412106713704166,-0.0126494404394373,-0.00561443118832032
-0.0287902635713267,0.0557238152480518,-0.0115814236898435,-0.00354485223761444
-0.016027320055474,0.0501187265478382,-0.00972488519386933,-0.00152869122497028
-0.00469815009728655,0.036781662674962,-0.00669244979160531,9.90232384140326e-05
-0.00428940609876804,0.0243870145080683,-0.00310131478833596,0.00106591716000304
-0.00604278168439762,0.0176349628288736,-6.21228057578679e-05,0.00119937639364093
0.000792300635948647,0.0148695365685149,-0.00250581400007094,0.000606465093492622
0.0128339399271196,0.0119050782939954,-0.011969407509811,2.67412731095847e-05
0.0212007470752894,0.0118326318126528,-0.016008794561219,0.000444947239931608
0.0232651260737227,0.0185916497374874,-0.0048627414913937,0.00199666324444244
0.0162767379215773,0.027356612473863,0.00559767908659121,0.00383092204603556
0.000752065191461253,0.0243603826595978,-0.00127555535843021,0.00503170417545429
-0.0130335870644345,0.00632772852829195,-0.0143134229873289,0.00525288768315031
-0.0181807753450019,-0.0091942909719016,-0.0165515974243223,0.00457555048388969
-0.0180623079593021,-0.00704979112854274,-0.00979955584759796,0.00316338011525767
-0.019110113604506,0.00489194294905309,-0.00460681501406859,0.00141733474825679
-0.0210564802109051,0.0108385376596929,-0.00334393937658881,-0.000102475862400809
-0.0202900040136759,0.00991063271616892,-0.00264838122984672,-0.00106269868586961
-0.0189626770658934,0.00552029259697308,-0.0015400504030173,-0.00172325755171699
-0.0182339762396101,-0.00445426529301427,-0.000190001251018698,-0.00277639873810148
-0.0159779996805465,-0.0143847312926098,0.00116853802324843,-0.00479434515239422
-0.0101237154007582,-0.0154674036018577,0.00325345007750763,-0.00735790828665202
-0.000702228277404961,-0.00952876069232326,0.00651970593817495,-0.00840311576966829
0.00402357454747762,-0.00594639082767098,0.0105393305945954,-0.00628800363221107
0.00109354583825748,-0.00743454198595284,0.0147407769359107,-0.00199211922709033
-0.00339204875913464,-0.00406397701193931,0.0168269985714857,0.0022079072449629
-0.00976644489875653,0.00323279594701445,0.014763251225603,0.00515624408866338
-0.0151149228776221,0.00128127955941548,0.0111028833557154,0.00689485274241907
-0.0156029136270596,-0.00215901316214044,0.00921757760636905,0.0076765912604257
-0.0178644800654973,0.0249056246841005,0.00944903241134292,0.00738925119669142
-0.0173583921854962,0.0796551199181836,0.00823871245383051,0.00484451107570944
-0.00443313264338858,0.110911178647224,7.04891209535319e-05,-7.09109967323533e-05
0.0111696983755059,0.100292839020279,-0.0106563932780809,-0.00439908642108422
0.0189529360323022,0.0732199540746186,-0.0151121074911943,-0.00559058648853258
0.0228581377985786,0.0556435096708761,-0.0125207950376712,-0.00460133998196672
0.0271241833466966,0.0388926045897158,-0.00857100612024417,-0.00373169613140886
0.0270778190605503,0.0035117748411924,-0.00714169832252361,-0.00355673625260924
0.0199102040398608,-0.0161368313093127,-0.00521608806684168,-0.00347804482989602
0.00813854713089045,0.000245284851971658,-0.00312341846633341,-0.00338957280703987
-0.00666656024266528,0.00175249606225942,-0.00195498482631434,-0.00322302950747325
-0.0210346064636924,-0.0216410754489236,0.0023893964214868,-0.00252541705906656
-0.0214618027989202,-0.0274173177793484,0.00504202246619572,-0.00124233080568284
-0.00654406669792441,-0.00516101333489291,0.00356248134481457,0.00052391358956967
0.00433916047968344,0.0382204293561287,0.00736252877259561,0.00200999231507831
0.00868923551721235,0.065855354747137,0.0160827178654092,0.00187295337593668
0.00970358786776759,0.0531109610702695,0.0214962795935439,0.000754984976706265
0.00305983809223728,0.037519487334058,0.0217912337844046,0.000218371235220053
-0.00401868511616001,0.0407769711668502,0.0209531109077542,-4.84504747437706e-05
-0.00775856342527638,0.0372983953529183,0.0195812450304945,-0.000976073419560157
-0.0132889984756778,-0.00575282830753062,0.0137209942862258,-0.00208255377712002
-0.0172308738712685,-0.0584551024546735,0.00603761774097947,-0.0021982129756267
-0.0146291023183018,-0.0514138128670592,0.000166419002867681,-0.00114126819906301
-0.00833816778331987,-0.0036131288134684,-0.00641324076289114,0.000449358580132899
-0.000288119736358356,0.0216497182027549,-0.0103336720674357,0.0022592215646608
0.00879970516423486,0.0228739170405179,-0.00728500039630674,0.0035914564653889
0.0146711241494594,0.0201233726208104,-0.00553561675750151,0.00325889487095296
0.015304475109542,0.00339924722175846,-0.0116743041809297,0.00158056049844087
0.0128748611000228,-0.0289969221931712,-0.0188309755511046,0.000239691124079882
0.00936853609273919,-0.0364246639008904,-0.0188764857658887,0.000166152990745093
0.0064432823424031,-0.00247650946589582,-0.0134836395869527,0.000410573419813379
0.00520276102078857,0.032235274545723,-0.00791564498471914,-0.00089027624938929
0.00262388858658948,0.0387857331537223,-0.00395924823653439,-0.00360394340262742
-0.00205387055272001,0.0270953729306877,-0.00152088403256725,-0.00514484844422381
-0.000189273558284054,0.0113478658871188,-0.000702308086617113,-0.00373528466083181
0.00806167957321243,-0.00274798849496381,-0.00167917694203268,-0.000210429327802393
0.0100686881113466,-0.0110430440044941,-0.00103159024412372,0.00315693598584725
0.00427667995275636,-0.0171758960199597,0.00255509950718016,0.00487592484718372
-0.00123938646133349,-0.0283747570126376,0.00358305314348104,0.00505137828901532
-0.00325690363274535,-0.0398883741770929,-0.000214567345812592,0.00428630880233881
-0.00325627303610521,-0.0397710515688337,-0.00360734502124451,0.00318651615229478
0.000570990619565163,-0.022407094453758,-0.0037008537428485,0.00208798769780367
0.00576539386535241,8.29539135522861e-05,-0.00390663598231256,0.000922993794618687
0.00426107497150633,0.00851617221143571,-0.00445269789633864,-1.21092668863058e-05
-0.000470695734423543,0.00573275929255621,-0.00199570849127693,-0.000251102830824348
-0.00171128874166704,0.00456041643849438,0.00243712280431976,0.000120127478499599
0.00143265121605671,0.00386926097647068,0.00623396538991121,0.000579716939966158
0.00731700725103745,-0.00106238885932898,0.00828740176731724,0.000527450822028009
0.0129997552667433,-0.00987628452730085,0.0047053603316254,-0.000131034145950991
0.0193170828671045,-0.0175669451913497,-0.00260831782446602,-0.00070733805510368
0.0234839563658106,-0.0105043968001814,-0.00361080031874027,-0.000615335887570858
0.0195183619281905,0.0161573619555634,0.000890783068968811,9.11677015267083e-05
0.00583159433375142,0.0305368754190526,0.00440744825620152,0.000873156784481738
-0.0140952006994276,-0.00250003778074458,0.00604911191915734,0.00104805911427007
-0.0246129262318874,-0.0654929899888553,0.00443760314178676,0.000708405328483098
-0.0169141903843091,-0.105087797667877,0.00158756929386715,0.00054810155100566
-0.00221129555014843,-0.0881744843122424,0.0027304126715643,0.000787807395011806
0.0116736924575562,-0.0322702550256892,0.00651424501165055,0.00109634334283376
0.0242171912545566,0.0129956560531489,0.00832744109495222,0.00117780054522945
0.0275590146843143,0.0204455549950254,0.0115382681715133,0.00103914424710453
0.0187596603841498,-0.00444612169370233,0.0193168749957043,0.000772797313004297
0.00914023299311345,-0.0477874282239232,0.0224235695881708,0.000412789934318357
0.00662555411714194,-0.0689456216639364,0.0148289107511559,5.42477925718621e-05
0.00896405934388154,-0.0343901027014155,0.00438021160272894,-0.000135175057934901
0.00943400355709431,0.0171373349078587,0.000445349579989755,-0.000356433491469058
0.00754927266451912,0.0361140115977897,0.0061423565982794,-0.00103965361866067
0.0104591603737972,0.0248818629700924,0.013887992041989,-0.00183072589966704
0.0159529668575975,0.0217907838051053,0.0211090553281394,-0.00181745607425625
0.0165492500255594,0.0440478948861841,0.0321794545603898,-0.00142972617008464
0.0143085433340437,0.0556116897563136,0.0382457056697066,-0.0018716546208326
0.0114355965880877,0.0451587775025981,0.0364948566830556,-0.00271393244237699
0.00293396251827464,0.034338581411509,0.0338891307508361,-0.00296188156338574
-0.0114411707002319,0.0221151479657914,0.0306262431046677,-0.00252535442996415
-0.0218095976898305,0.0129240176583238,0.0252666632443438,-0.00152183519591439
-0.0225299317933368,0.0118119373159248,0.0152597291889665,-0.0002498432996521
-0.0179679209893103,0.00128594975389622,-0.000207674379478419,0.000995606020891996
-0.017164821934323,-0.0379496606336479,-0.0153913689605169,0.00225362504912996
-0.0243015150919886,-0.107666224646211,-0.0259452972789597,0.0030786016738735
-0.0260243118984084,-0.162828359446477,-0.0290831409360422,0.00289163017313491
-0.00307830313905267,-0.150337226189568,-0.0168859775476692,0.00178833854477834
0.0377116966403613,-0.0945312749960462,0.00695448928523407,-0.000114167715653829
0.0675060033665514,-0.0634139218185828,0.0239033653302522,-0.00249167392973189
0.0745722052549907,-0.0540706093000518,0.0245120923785365,-0.00393834288340961
0.071104306416598,-0.0157265885949905,0.0108479646435089,-0.00308297356875709
0.0685318728406776,0.0454252826693292,-0.00297923699153725,-0.000378244140124354
0.0642049507025638,0.0996751924884234,-0.0023098824374162,0.00195771512855153
0.0387195276840694,0.140455314182517,0.00153872663114848,0.00194272134323748
-0.0137744751318876,0.150425754218202,-0.00728654150708172,0.000132134351847937
-0.0552853879944529,0.0969570916779771,-0.0181223410410229,-0.00126209677637554
-0.0535142756169348,-0.00550960695604488,-0.0155594949922612,-0.00102156119765594
-0.0286608584078648,-0.066871681880689,-0.0074146893667314,0.000335238778925402
-0.0185392314973001,-0.0510302500338889,-0.0068185177534304,0.0014963547283739
-0.027432533484532,-0.0226653628380451,-0.0103306671780036,0.00163169676243499
-0.0351997460117744,-0.0188801242863679,-0.00973691299717831,0.000694838107369888
-0.0359396945148513,-0.0265134912754659,-0.00662238172139197,-0.000904336659287024
-0.0301271241368954,-0.0327980196613025,-0.00657442979785015,-0.00236214137568577
-0.00965688549317599,-0.0300833109181955,-0.010575207520569,-0.00284371441306
0.0177645435020458,-0.0175002971706224,-0.0156635167435622,-0.00214760257656532
0.0303748455842305,-0.0178590998381521,-0.0203241916647018,-0.000630080028128184
0.0262124743513486,-0.0276004842945983,-0.0211621171948159,0.00100429645390101
0.0232578555058096,-0.00577248618149628,-0.0145377917287288,0.00185151133096512
0.0262451482508573,0.0365030074176805,-0.00926537139548799,0.00164328529988513
0.024139417769517,0.0583728588240679,-0.0121727881199137,0.00095352750572303
0.0205816808491288,0.0416642164410289,-0.0174788019427735,0.00034445201744046
0.0211942067994839,0.0016695333370035,-0.0197092221548877,0.000312088219230015
0.0163339189617072,-0.0226936598183611,-0.017838396408689,0.00109055529016636
0.0055485937324372,-0.0149097820459515,-0.0142564296888249,0.0020499705353862
-0.00326505280406695,0.0160941028829374,-0.0147062974955679,0.00245108461404312
-0.0126351523987665,0.0434369245815351,-0.0224420560642292,0.00247764950196406
-0.0240774397268602,0.042006023421527,-0.027655245577561,0.00265034527260737
-0.0329056738246404,0.0224918752091085,-0.0217944477315133,0.00244779790790177
-0.0390461832810853,0.00475580599180973,-0.0187606112999031,0.000962535343309347
-0.0418621878246624,-0.0117874152420315,-0.0247360962261275,-0.00125159421484019
-0.0336395781754033,-0.0270082937299169,-0.0237283285661205,-0.00275349790433738
-0.0189632223588651,-0.0296325988695452,-0.0157979821251864,-0.00306492068239451
-0.0166529919736493,-0.0185296402199768,-0.011032118850394,-0.00278235851233504
-0.0230989003797365,-0.00674821475146004,-0.00742544232972119,-0.0022022464838093
-0.0193982797818875,-0.0021763282577467,-0.00296285393787659,-0.000992733489430738
-0.00685512143449239,-0.00123634502314615,0.000785926439723431,0.000433832503795062
0.00293912523408378,0.00162649103110989,0.0026294388045815,0.00106380580703109
0.00721238616601751,0.00745532828369642,0.00460256645256463,0.000748980024783805
0.00820423934008973,0.0158083048517922,0.00707877093534403,0.000305153084359334
0.00589723763730187,0.0275402424566836,0.00436193372890835,0.000213478136214624
0.00172783983421675,0.0371532948242748,-0.0047085849598241,0.000140469251735399
8.84049371081604e-05,0.0357991274848985,-0.0115506761502513,-7.61004547477084e-05
-0.00283268137629763,0.0254035491881635,-0.0108745754072064,-0.000281482844360808
-0.0144701274223403,0.00848621632780307,-0.00649567000030109,-0.000776433986501374
-0.0288621556053217,-0.014798172042252,0.000754883605250491,-0.00202588659252277
-0.0346875450442607,-0.034618247989523,0.0109412288081954,-0.00368911042248626
-0.0305479906119785,-0.0406441059136431,0.0179932411840687,-0.00446413025426019
-0.0225646316898938,-0.0322543372765275,0.018142250840743,-0.00298439873413954
-0.0166164675874807,-0.0179787584663349,0.0144924661598312,0.000400261554280515
-0.0189750489928611,-0.0180982769334306,0.0100030225223924,0.00322009797158378
-0.0333301658480359,-0.0388668510059179,0.00705291348914262,0.00367905795574779
-0.0505534287657239,-0.0529016017360288,0.00820577522473738,0.00279569174743738
-0.0595511940246602,-0.04086390978967,0.010681355880338,0.00244818107271658
-0.0560851528384969,-0.0171921783180542,0.0124627860897271,0.0027077510208542
-0.0375087176415141,0.00378894971409797,0.0142704079963451,0.00222652325944463
-0.00535397529330937,0.0351015576648049,0.0136248457551283,0.0002174061163698
0.0344617595006622,0.0883335320831564,0.00731222421220961,-0.00258930995182317
0.0675826110085685,0.13979942581374,-0.00304961592465762,-0.00450055556197095
0.0787136621578416,0.153714321950971,-0.00969859094537833,-0.00443385210647411
0.0758019021662091,0.130321665435677,-0.0101242535361019,-0.00299422123978139
0.0741047176711459,0.103604629091886,-0.00967720397473429,-0.00153770499366272
0.0688174526943042,0.0894487513617847,-0.00879774436242894,-0.000691028469219352
0.0506742214462822,0.0740592764191322,-0.000676564582832599,-0.000335517184708675
0.0232808477068726,0.045974193334043,0.0150104728942175,0.000201089891812777
-0.00632891603615228,0.0152290765374581,0.0224883131505264,0.00153633041480226
-0.0313170676723853,-0.0255362448852414,0.0148919618673223,0.00310557772362159
-0.0468984386365884,-0.126250480297223,0.00429770501125137,0.00336588924288443
-0.0535774973328466,-0.22606360070997,-0.00274406240061631,0.00122022365941164
-0.0475614730601732,-0.187737838461242,-0.00777536264301517,-0.00201022383019649
-0.0282786833652562,-0.0561527817714604,-0.0138813603765098,-0.00361927786133696
-0.00838754615303195,0.0333092250097828,-0.0191771160900892,-0.0028897103237523
0.00267600454678471,0.058984308957985,-0.0172100765456674,-0.000573260480810414
0.0106685049210958,0.064356745102218,-0.01010009151914,0.00320986762594262
0.0131322169224028,0.0500313735118182,-0.00479865589206131,0.00777549901635842
-0.00312213863279456,0.00744925131659182,-0.00169863689620008,0.0105094743278004
-0.0185500803755558,-0.007603190328692,0.00348039718923375,0.00910081400044377
-0.00149310049039114,0.0361439752192266,0.00906500920354753,0.00501931339814679
0.0315653584280408,0.0757462708239028,0.00707536325130611,0.00148491056250639
0.0480310753078777,0.0682061464945109,-0.000840903910244015,-0.00129306873847626
0.0436635818507869,0.0447503942648056,-0.00421455103603927,-0.00464467011825201
0.0260568964345661,0.0285241853078781,-0.00132031405502659,-0.00828619745170173
0.00701573883199188,0.0134910963713523,0.00196575048498324,-0.0107544258279675
-0.00134134015254799,-0.00278139081500478,0.000544965935918317,-0.0107552753846725
-0.000621570640671611,-0.0149001948473191,-0.00341281740062975,-0.00866205462489087
-0.00308582173697202,-0.0209937102147713,-0.0047856125185744,-0.00619804002390414
-0.0151602277096862,-0.0286106154787671,-0.00656307960682091,-0.00290838413633379
-0.0269692321854019,-0.0383078794399374,-0.00969214491612389,0.00487243792518331
-0.0269232266645971,-0.041807819252319,-0.00897774819782359,0.0165326548362642
-0.0186516091620563,-0.0380659390952316,-0.00659946756086033,0.0232365588740517
-0.00994954965512994,-0.0316800929792414,-0.00787533347468716,0.0187736328072778
-0.000182757229381138,-0.0262340588674991,-0.00703047023600809,0.00746196566167321
0.0133465847047352,-0.0196797537676007,0.00159299106631433,-0.00244749786002115
0.0252359270040762,-0.00845956697587807,0.0095628341850429,-0.00711628881915501
0.0254141464801184,0.00363635600226524,0.00880792837772577,-0.00770245827052703
0.0173384691383584,0.0048647320498791,0.00323334864611595,-0.00673217539323595
0.014630420124319,-0.00437415056274472,-0.000847489438877001,-0.00574735260146104
0.0161163616532562,-0.00710619541615642,-0.00156236067396013,-0.00503491393761238
0.00673458223824171,0.00019325831270893,-0.000190122168854319,-0.0044389706932975
-0.018870475595749,0.00887439570520507,-0.000101332936685814,-0.00375258274411295
-0.0480353442285047,-0.000582150770648167,-0.000841138327202612,-0.00278611345939536
-0.0619257418036398,-0.0310900846254723,0.00426415256462925,-0.00130930808262251
-0.0558393796921394,-0.04103343790952,0.0133327973598185,0.000215477071185307
-0.040576358874835,-0.0252963240275826,0.0158520294319418,0.000576294318371793
-0.0234701524811273,-0.0216122685764545,0.0123033658766873,0.000274952953174499
-0.00736366891594965,-0.0246066812043566,0.00972573183983403,0.000943037645253002
0.00390146830494812,-0.0120953213015588,0.00896427758074429,0.00204532331368415
0.00629176182737253,-0.00386937573752081,0.00769282420383102,0.00153608549638715
0.0013411611805201,-0.0229049426480249,0.00630198002041133,-0.00106053461887374
1.48531233353537e-05,-0.0657029742202367,0.00366478693713288,-0.00389821867177725
0.00660948745452857,-0.0884911078500574,0.000895230961258638,-0.00458653553959187
0.0135344859341471,-0.0420033077513867,0.000886977592692925,-0.00283648480647954
0.0147250978872112,0.0244752682332328,-0.00406145259718769,0.000538774842349568
0.00984814407844444,0.038588082386685,-0.0117808310258803,0.00507204027870656
0.00384263189052216,0.0142088395452077,-0.011846848325592,0.00785759776203329
0.000180427370592944,0.00222911693646471,-0.00467712170627179,0.00595736295452275
-0.00325236066518565,0.0202987133584741,0.00559958498576513,0.001054227436238
-0.00378223692254496,0.0399185382603849,0.0125288058516683,-0.00347144668323063
0.00125484839942506,0.041605863010673,0.0139531167024963,-0.00617571540105214
0.00831065039054091,0.0237333185966485,0.00830304666966801,-0.00686710196257199
0.0133733602378822,-0.00417411278989046,-0.00223867138861946,-0.00500277884322368
0.00984375781431769,-0.000773608604271326,-0.0030962793466026,-0.000950335737424717
0.000944778805693663,0.0289554959658025,0.00587960152336488,0.00204732687283452
-0.00187258722784613,0.0302480254651794,0.00982317841702295,0.00176161461637094
-0.000160394462963485,0.00635876554306884,0.00701322482712808,4.58182384337129e-05
0.000312449232253924,-0.0101271038345403,0.00205062927352076,-0.00105569910352924
0.00392772498149951,-0.018083475692252,-0.00387081158695213,-0.00137750064194897
0.0124865963321481,-0.0240674714172202,-0.00563487086884939,-0.00111739267120317
0.0167415600877028,-0.0262814858197502,-0.00321094530555224,-0.000261549749730459
0.0127607204033273,-0.0266711891643196,0.000325462535432405,0.000766336144480962
0.00544296525178972,-0.0300360503852881,0.00796773825271506,0.00125587777011832
-0.00119619447609541,-0.0337538426322329,0.0170127912146815,0.00126641953116217
-0.000308179362342688,-0.0310220794532609,0.0220550842106823,0.00123995643619244
0.00741329506331691,-0.0197090562587246,0.021634100699361,0.0012713223444858
0.00905167810453938,-0.000155570710393266,0.0179620014519399,0.00120916066540792
0.00526687713066809,0.0184650486408538,0.018349998696089,0.00130252800366685
0.00365684674380328,0.0134147717263586,0.0205902340287764,0.00204487945058839
-0.00460176849487307,0.0053474046732832,0.0193445392163731,0.00255416883212728
-0.0171037094018871,0.0177168642247242,0.0170647161899557,0.000981251484855512
-0.0156534267828018,0.0173727104475046,0.00965839994579423,-0.00210740564837751
-0.00826045294780406,-0.0141597664394943,-0.00626667468608083,-0.00391884196865297
-0.00842210379823619,-0.0515198930048302,-0.0259651169595793,-0.00323035580115355
-0.0090649032953275,-0.0322279751569567,-0.0451311501143391,-0.000658330606871294
-0.00441587354738514,0.0461904155828553,-0.0552398348445867,0.00240412462786606
0.00195847275206049,0.0741561478828413,-0.0445683460708972,0.00409643004916516
0.00326832066446789,0.0125213440193301,-0.018674261403819,0.00343700219165423
0.00137961451039428,-0.0421181563276125,0.00110541122009669,0.0011300451153638
0.00196926281953034,-0.0198815172575299,0.00876455935327346,-0.00110133747353983
0.00152459687080227,0.044374425763091,0.012827968072342,-0.00224835780391315
-0.00235489611122054,0.0832569144792431,0.0137101599552912,-0.00240958745217791
-0.00648004808887171,0.0704077531800889,0.0126070625017244,-0.00176455219583867
-0.00992292569633359,0.0282876526322768,0.0171153412787099,-0.000715245569046325
-0.0106776228581373,-0.00843008643164447,0.0262393963055235,-0.000236103427493205
-0.00883300117941206,-0.0276915986054622,0.0321433905928715,-0.000602061630248715
-0.00943498901911144,-0.0294426553642454,0.032131320532279,-0.000863890617299953
-0.0065511293374841,-0.0119317287226592,0.0271656180594161,-0.000484510965513825
0.00857681296290306,0.0109837950985074,0.0189738522426404,4.42953303071666e-05
0.025129651546277,0.0234418010128231,0.0132039090821779,0.00043881503322448
0.0301824521795093,0.0301482523249327,0.0094721917942959,0.000625580685642251
0.0282486966537128,0.0436250115835406,-0.00189816788211442,-5.00333065830861e-05
0.0218355046888863,0.0607180097936826,-0.0171488940940309,-0.00125877508007804
0.00230313665325967,0.0639263121865485,-0.0191181868007047,-0.00131283567674669
-0.0246550075884329,0.0439085168364412,-0.00885512256520207,0.000551178296897795
-0.0368501965800815,0.0123442854680733,-0.00362083459671042,0.00316824367557307
-0.0253770982869621,-0.0120338847477483,-0.0105124237646996,0.0043680965409495
-0.0109715459262017,-0.0233442935846671,-0.0219722369428739,0.00347619413720325
-0.0154629495005339,-0.0222708008959199,-0.0251691654825131,0.00169959269823469
-0.0236834587680817,-0.0139483823688583,-0.0181386210719883,-0.000148414278061692
-0.0145671420859202,-0.000267748175114109,-0.00924612468313725,-0.00169758249740166
0.000356239922641832,0.0192105291404057,-0.00299142836675656,-0.00236764427332409
0.00797839335652628,0.0299713032565326,-0.000161924018502515,-0.0022857814188261
0.0126405437450811,0.0239690410418543,-0.00115683041737637,-0.00210305615145783
0.0160644769663661,0.0180955697047011,-0.00499340256797092,-0.00185138676595443
0.0189023781632079,0.0251180334504109,-0.00957543722586859,-0.00130126783468232
0.0245082030817428,0.0403246871996744,-0.00920289450117906,-0.000512996626755041
0.0288646824378093,0.0533015045513137,0.000157857614742336,0.000256320610498268
0.0244680594438879,0.0523805006309276,0.00790940871421615,0.000673751926212631
0.0115737426670128,0.0349765660453433,0.00592594283415888,0.000827955095067476
0.00102597125404365,0.00693207503456171,0.00305314844349547,0.00122584589825861
-0.00214521075583835,-0.0169821706233116,0.0035324370886149,0.00198347021376537
-0.010777846089127,-0.0161390377979695,0.00338614775408685,0.0025513525302811
-0.0287810244727574,0.00118337744175494,0.00360469159865344,0.00236234412262686
-0.0375088441486363,-0.00160222376032656,0.00597647321951362,0.00130282206329168
-0.0295913896250208,-0.0412099625702616,0.00592652737175424,-0.000210336550556392
-0.0173592797847248,-0.0963924316126042,-3.09945650888155e-05,-0.00115493384006625
-0.00674942942101687,-0.113573988520185,-0.0067112907366647,-0.000606257721126572
0.00131018746888533,-0.0644052632992756,-0.00723369669955371,0.00110330286937431
0.00387540655246996,0.00234563073147537,-0.00202353614908997,0.0024532263151331
0.00400014803602041,0.0322084361103487,0.00278111938640207,0.00228570678073202
0.00546440045989341,0.0279495235368015,0.00115118423500499,0.00108305792316458
0.00500922806572893,0.0208527705303031,-0.00757803295066026,5.13598569582795e-05
0.00964284927063498,0.0259982843303266,-0.0135541045571528,-0.000380801958489089
0.0306726441306344,0.0330878586525933,-0.010388397587108,-0.00024315453128999
0.0504715709856836,0.0269247324357708,-0.00874370496348629,0.000617586941895789
0.0400871053831442,0.0242039401974594,-0.011555277406665,0.00239465616775936
0.00713093746616528,0.0359035215001275,-0.007130572208047,0.00358069142495146
-0.0149068219194427,0.0220358983569772,0.00186779038582002,0.00143581753059349
-0.0191780738894091,-0.0161423671471462,0.00702883378666823,-0.00308343237248626
-0.0175976724699245,-0.0375291333791078,0.0125902268147684,-0.00589293896506745
-0.0144288411021174,-0.0456801484512651,0.0212105732668272,-0.00521798942710991
-0.0142553815385269,-0.0498197284856979,0.0257437631762569,-0.0025318632581656
-0.0181976485582335,-0.0459143473677657,0.0212280208978788,-1.87387927926197e-05
-0.0186579067747953,-0.0552453407103257,0.0104831638216002,0.00150202316768866
-0.0117416863700754,-0.0703945218533575,-0.000701961586675192,0.00266792129991252
-0.00805461685831077,-0.0475290580261791,-0.00330889942218487,0.00376635698944049
-0.00856125899300456,0.00235094116678677,0.00733940082781102,0.00358851838333156
0.00258800799110308,0.0433697098656388,0.0193898064659498,0.001501854320987
0.0182536347738244,0.0778895974920506,0.0204901334585553,-0.00104846743779585
0.0210369670464592,0.107948275252313,0.0191316742165081,-0.00251434832500492
0.0145534606302789,0.119692315975736,0.0219372982311788,-0.00268816264462401
0.00906351990323377,0.103565983315861,0.0134995631887039,-0.00244697689682037
0.0132978243723508,0.0579445571797015,-0.00617359670316452,-0.00209514373289414
0.0269693279947413,-0.0279113766831898,-0.0109631814462693,-0.00113373224764482
0.0411963628303642,-0.125171813307578,0.00218132265440929,-0.000366720092488086
0.0509571523659043,-0.135904471053177,0.0113536493800909,-0.000591467413551647
0.0458812831186738,-0.0787964012584356,0.0101792970022722,-0.000538990797617982
0.029405638426028,-0.0851696450893729,0.00756120436387074,0.00111882548793578
0.0202182429262176,-0.164986886471135,0.00767037043391292,0.00310955626968623
0.00974142212122213,-0.196488389522434,0.0143342860310131,0.00293512530469014
-0.0141692349491781,-0.107093343149001,0.0261396291212975,0.000401303426702843
-0.0410837342276354,0.0242444433442062,0.0313678391385102,-0.00251895737017363
-0.0548895881894106,0.103965452891543,0.0283620073554827,-0.0041801850359384
-0.0448760513689601,0.131066558204778,0.0218448369100128,-0.00407741129972292
-0.0215822417336016,0.127216049553416,0.0119166753238398,-0.0025366628227752
-0.00589620789497725,0.0848923893985459,0.00219498595543146,-0.000177914861831654
-0.00299848783894375,0.00493962894657887,-0.00293230301784936,0.00236504655850746
-0.0010380467248199,-0.0499275180687859,-0.0123322574674745,0.00430155097797559
0.00947404232308832,-0.0270602815461474,-0.0344866816614931,0.00532893031636604
0.0215918766395546,0.02799142548767,-0.0515621744689414,0.00557640655156179
0.0270995289756318,0.0447096641483104,-0.0455127871948636,0.00444097698247489
0.0226589250911212,0.0230728043823845,-0.0275023126336529,0.00160256925960249
0.0103851915225776,-0.00919220751834336,-0.0122363752512362,-0.00169258472128473
0.000979489793737948,-0.0402601362547432,-0.000795136815284161,-0.00395274016434446
-0.00206535100969189,-0.0604383359312769,0.00561414019793364,-0.00461574295162657
-0.00394658076454342,-0.0704905801074987,0.00857373383945757,-0.00395869792361976
-0.00668705257956156,-0.0750071621702141,0.010673136763196,-0.00276000322696683
-0.0100122476326154,-0.0749205789291859,0.00900684442732145,-0.00154372319780076
-0.00958234704007572,-0.0790834055108016,0.00326570982964954,-0.000405226627235547
-0.00711654671336643,-0.0714769715412878,-0.00165357878207071,0.000722918576481346
-0.00942628223212476,-0.0312269100217662,-0.00128634853706861,0.00143393889008505
-0.0110235476068403,0.00899719200706888,-0.00198005961786395,0.000877156556465344
-0.00886383156608007,0.0277791527864403,-0.00975502684324571,-0.000260998883840802
-0.00536051329059984,0.0436890901047409,-0.0206124883382366,-0.000252106278023578
0.000523610257348597,0.0579735993699462,-0.0296341517345961,0.00128583527191543
0.00272187370501925,0.0575516995532025,-0.0330717078609645,0.00316140916996332
-0.00540508816052072,0.0437671907166916,-0.0319665459804269,0.00415629969703782
-0.0145102422277638,0.0336239052453094,-0.0296220706672267,0.00409395862058473
-0.0149025440033159,0.0335924666319536,-0.0248199920039067,0.00320016403421124
-0.00887654422836194,0.0329180878289842,-0.0141660342854711,0.00185062671715431
6.79289251080293e-05,0.0237301249214736,-0.00190147077313378,0.00062230157235408
0.00684754390799363,0.00161135398141757,0.00115937866202932,-0.0002851752505559
0.0018457961211483,-0.0320456636311314,-0.00399087753542319,-0.0010835090023731
-0.0140505189688567,-0.0712157998102445,-0.00730578451282011,-0.00174207974963934
-0.0209893699466208,-0.0879449614544993,-0.00754204329956736,-0.00209294159367399
-0.00808125554590495,-0.0628620910928696,-0.0105155767577296,-0.00195339064678419
0.0108361396896427,-0.0102664893758003,-0.0129920946568854,-0.00103426187569256
0.0152627943696963,0.0551334810397164,-0.00874522988729737,7.75044416469316e-05
0.00214583132496199,0.106332117432359,-0.00448656012769544,-3.16391914376588e-05
-0.00342606917383386,0.135105676498658,-0.00651632371330797,-0.00157594106891823
0.0111529940257151,0.137118773224279,-0.0123942026876713,-0.00293421536991042
0.0201487669928564,0.0892744880756397,-0.01497225897101,-0.0027576436793283
0.00942568285591089,0.0357409666224617,-0.00831748511347891,-0.00162768963078412
-0.00795584093667174,0.031082686813696,0.00268546226108706,-0.00134263795999931
-0.0279377709060907,0.0409136501898486,0.00863643613103525,-0.00245240362331275
-0.0416887394992104,0.0322349384900912,0.00717422375259943,-0.00371221695806625
-0.0333571366952394,0.01742099700884,0.00317273478365476,-0.00391876880744297
-0.017931447054906,-0.010194936372237,-0.00113114339896146,-0.00236283364641762
-0.0152053810017512,-0.0770032071607907,-0.0052950307322012,0.00151772511004264
-0.0104144653968449,-0.162841342277434,-0.00340114061098533,0.00652440769403029
0.0162887607793358,-0.17797112645626,0.00504673228645289,0.00872206219469639
0.0567965313393664,-0.0924803504670715,0.0117222152164484,0.00578649068780913
0.0800208614014841,0.000327131212950027,0.0104621495961683,0.000313520695280785
0.0616908993172346,0.0510174782139089,0.00183728259837122,-0.00331707679798937
0.0167703820843102,0.0913560203459777,-0.00756013601576449,-0.00330796143812482
-0.0174999137213266,0.112411883916531,-0.0110010083499794,-0.0011799329486668
-0.0246997311469092,0.0944116815201369,-0.00771200596008353,0.000630660985538602
-0.0188740950061588,0.0564917470554478,-0.00284903011263751,0.000608520972447171
-0.0122728210262509,0.0179589637758089,-0.000452920956145148,-0.00115853396010736
-0.00259801311264733,-0.00984183966954651,-0.000173738299137857,-0.00296233831092922
0.00249419513886033,-0.0209989465042855,0.00022700544791121,-0.00328521713689419
0.00490750441960388,-0.0289850204373951,0.00224285722326285,-0.00237810546197871
0.0135576410935332,-0.0491922959568988,0.00401269856148378,-0.00137346854776201
0.0126725796594223,-0.0840678251643183,0.00389818922984277,-0.00112093325671001
0.00261241375375926,-0.116401515659968,0.00263740208903987,-0.00200508173017668
0.00275290108830955,-0.112331648535981,0.00373968387490745,-0.0038693138050355
0.00609780449422577,-0.0705658017292006,0.0101850587607781,-0.00581953080228618
-0.000583435587294567,-0.0257358201626294,0.0138012551142119,-0.00662205346913365
-0.0107559237186136,-0.00491964328853056,0.00342842979116203,-0.00522071231797916
-0.0169801825676862,-0.00550159150902393,-0.0137289824108462,0.00016156851832734
-0.0218395828752919,-0.000311615223888849,-0.0192902444801757,0.0101033782495306
-0.0207370497216308,0.0192224984792069,-0.00998540077346737,0.0184716746330903
-0.00590116801868521,0.0306618179738541,0.00195460684027933,0.0172189307696225
0.0115017180077967,0.0241359171189407,0.00748268498275619,0.00842464788543509
0.0210931769052653,0.0107869557981798,0.00434312394020585,0.0021313378694291
0.028199347426307,0.000844768786810945,-0.00189812030614037,0.00240938403608246
0.0320067708434163,-0.00340385453151477,-0.00225716376792122,0.00316988653311001
0.02160726291774,-0.00954977121465559,0.000937950476447466,-0.000929192102400718
-0.00207477898178884,-0.01948297440502,-0.000102946267302929,-0.00739663316110014
-0.0214411905241154,-0.0308418246189729,-0.00659597664957566,-0.0112516507464518
-0.0266230675039105,-0.0483138959292133,-0.0122488527429798,-0.0109457335503572
-0.0256342732175166,-0.0673049200024096,-0.0110174044341801,-0.00800197582785461
-0.032097680791008,-0.0985914314246989,-0.00733733665545168,-0.00407492658984229
-0.044120903820749,-0.132643220124892,-0.0067008958415797,-0.000633875393834228
-0.0396843470240686,-0.101903343723714,-0.0071449701212663,0.000763044533900712
-0.0156665456263946,-0.0134847237952617,-0.00614562158665458,-5.63833420897785e-06
0.00678229146311428,0.0476639980639695,-0.00312668030706248,-0.00133182882346186
0.0193329905826208,0.0575826616556221,0.000524443032247864,-0.00165989060279493
0.0227341356091674,0.0466781394146197,0.00269480865341009,-0.00055791169364157
0.01856165260033,0.0339375016315629,0.00146810776444794,0.00213460570205645
0.0151501865276479,0.0224476929945033,-0.000801140519203911,0.00678655686264559
0.0152167901445618,0.026620873367323,0.00190649489592422,0.0123564462655389
0.00810556774517008,0.0523678541247985,0.0107428638503625,0.0149185505560843
-0.0070500639365014,0.0646331992683316,0.0180322899799302,0.0113685139037069
-0.0136017201109303,0.042898079414516,0.0170786518751438,0.00400280522374184
-0.00440162188819698,0.0117289918211604,0.0123378617818951,-0.0023397067585243
0.00759101393448263,-0.00963491573106522,0.00891023011566465,-0.00554375985928156
0.00943648252761312,-0.019589956787895,0.00662291022663629,-0.0074877145670794
0.00648005594311927,-0.018652005983566,0.00549450165393285,-0.0109077879049897
0.00405656288316081,-0.016247481006809,0.00571517250913433,-0.0148550752145607
-0.00533746137061772,-0.0216849542452846,0.00437332329208054,-0.0158927660862814
-0.0207523320192907,-0.0435770566424548,-0.00206164511716666,-0.012379137859076
-0.0314289530593949,-0.0837129965157125,-0.0110151371645034,-0.00373602044842599
-0.0314900773929621,-0.0962736605193232,-0.0153319957972839,0.00933973972331984
-0.0240343280999547,-0.0434063230969634,-0.0123162071697368,0.0220809416116476
-0.0199249052558121,0.0247356636507159,-0.00495130767463615,0.0257542616853135
-0.0233325727736806,0.0485693309525847,0.0029395618026634,0.0144981484031817
-0.0232730754372591,0.033603068555265,0.00997806558118565,-0.00457793442561449
-0.0123225462774044,0.0102931712209438,0.0178914536252043,-0.0174322175413823
0.00232698289978977,-0.00108793128101067,0.0266090678907985,-0.0186388404647244
0.0152409967590606,0.000435993914084756,0.0315911155530753,-0.0128287494252136
0.0238188997638234,0.00101801495610227,0.0317171612070687,-0.00618434748686128
0.023636521885416,-0.00826758716877978,0.0316810317172788,-0.00131240209448123
0.0118673554039305,-0.0276043254679516,0.0331448361493635,0.0018309026860903
-0.00417251914158065,-0.0494180850652941,0.0343111517442196,0.00327701361250962
-0.00854076167418249,-0.0538498897615185,0.0344684213162082,0.00301881043044472
-0.00251239020143726,-0.029585178354025,0.0333949747348647,0.00163804356242498
0.00193941479169664,-0.0024328020660968,0.0298547888944612,-0.00028649153756974
0.00166242916892006,-0.0204648043022042,0.017978397895653,-0.00163549362475023
0.000991086313818247,-0.0542959196225712,-0.00837330964439881,-0.000922060188191778
0.00385176956560387,-0.0172041089543918,-0.0415734538105346,0.00207784297252397
0.00650665701704834,0.0592840376390963,-0.0581652839699897,0.00565120512565136
0.00709995982495953,0.0845967706396268,-0.0419541839453945,0.00731930352736487
0.00365508576629321,0.0429723632093208,-0.00705905154497808,0.00625280721700875
-0.00454118078154446,-0.0197532121469005,0.0151345945465933,0.00358884140554303
-0.00703075278719926,-0.0266603800608416,0.0118682271368352,0.000803076110250014
0.00120594094301741,0.0272875321557525,0.00187657617296223,-0.00152196440257951
0.017276863305384,0.066884009367409,0.00109578690786393,-0.00349451985732566
0.0321976274886835,0.0625874258960499,0.00484646573985151,-0.00477874235594488
0.0375945883050129,0.0404572533031823,0.00992017723060715,-0.00500449185458232
0.03331963339907,0.0121612202696543,0.0155198564641983,-0.00451954744542004
0.024767991513559,-0.0320538118030954,0.01762092698544,-0.00355332554426539
0.0251113843491191,-0.0654312718347932,0.0169340588055099,-0.00194036602796723
0.0317449348869491,-0.0453427991832765,0.0156540293068174,-0.000125159679629039
0.0274580611057565,0.00375492606904641,0.0120747615978911,0.00080929105867773
0.00874356885277028,0.0233118823454954,0.00689552757436766,0.000476376601276914
-0.0168895197055397,-0.00842585489048053,0.00516957563189374,-0.000169954296892906
-0.0425502764686229,-0.0496782417963528,0.0057479215573095,-0.000254997307192545
-0.0601905240890357,-0.039907288369348,0.00206713756600967,0.00024100133883321
-0.0583926821449294,0.00240259590497505,-0.00599843828554443,0.00140367392376912
-0.034759383413919,0.0256523702148669,-0.0130862581611607,0.00334663728304889
-0.0078118590755885,0.0308442973978331,-0.0181999117758641,0.00566568456651962
