-0.0229573050851566,-0.0368063598077562,-0.0169573377387083,0.00160091037298495
-0.0216981719643219,-0.0560922057599523,-0.0181171229893457,-0.0011224015765175
-0.0167009731015917,-0.0592615242759229,-0.0133411568325736,-0.00442447927737248
-0.00912549765747789,-0.0595701569518653,-0.00633197950571623,-0.00634605469242245
-0.00354381814241685,-0.068883451552286,-0.00352336114192127,-0.00600583445474696
-0.00940306820824159,-0.0740422688517809,0.000941190506811615,-0.00345319934185871
-0.0225522033184205,-0.0684662878159404,0.0148253490024333,-0.00139052761632797
-0.0247903590661358,-0.0651562610983471,0.0255565585758181,-0.00217886316803064
-0.00966698457884298,-0.0662511599740025,0.0188991020600926,-0.00346962962051714
0.0124468051057996,-0.0521448647809257,0.0084946098220441,-0.00172262974562497
0.0250683669839194,0.00663954348468927,0.0128477403650326,0.0019958299467023
0.0222091811166595,0.0751672189770967,0.0211850111001064,0.00365867905218893
-0.00037595588437488,0.0671838280656673,0.0142605527808569,0.00249102212826878
-0.037206274666497,-0.00824513364850904,0.000604339822900403,0.00142781508844907
-0.0455114871999604,-0.0709972805320696,-0.00681630207845781,0.00149345516362934
-0.0083083639030108,-0.0904420564462495,-0.0109474222683218,0.00112209314268494
0.0334054514828203,-0.0853374503232098,-0.0143086062935426,6.84006128352519e-05
0.0530097577379161,-0.079889013337712,-0.0177362017909237,-0.00113241711754593
0.0605894350473915,-0.0752864487384665,-0.0208706776802319,-0.00254895668830984
0.0546852046896772,-0.0495008034492622,-0.0196231802989554,-0.00420830612621024
0.0252471624579343,0.00924750472696474,-0.00871877756323523,-0.00597086060629565
-0.00554935781918471,0.0733782773725662,0.00797846247442747,-0.00773450398552683
-0.00996729175086686,0.0943680986511467,0.0153209823737258,-0.00904166259001317
0.00509920478605685,0.0582968392994823,0.00789326812593436,-0.00869783124708034
0.0155022601032381,0.00654369963634448,-0.00441593089165729,-0.00577822717130497
0.00655734874484532,-0.0249421842241025,-0.0138285469093909,-0.000883628428610134
-0.019911939514382,-0.0496736694031232,-0.0196124928629319,0.00378065708097409
-0.0408687603409936,-0.0700065690731793,-0.0218324998306289,0.00613251782628884
-0.0380969912461809,-0.0697833695969868,-0.0219458031345353,0.00597559778987967
-0.0326408143572095,-0.0701439764272467,-0.0218733910512768,0.00500684753071273
-0.039800548164896,-0.0866705310674361,-0.0224748355196761,0.00454932285467075
-0.0298895422211413,-0.0978553703540014,-0.0229361111057586,0.0042405261852303
0.0114761468284593,-0.088125722688341,-0.0194913138354443,0.0037097770799478
0.0487926398675841,-0.0439037227039513,-0.00530972445558792,0.00297870474243158
0.0461316626346926,0.0399035938456316,0.0208662871583689,0.00109005974878989
0.00944999553487287,0.12041026923246,0.0438421935163219,-0.00256997618958567
-0.0187887576654031,0.160277638714627,0.0494078546736581,-0.00589401449492635
-0.00286688347573168,0.156594926770475,0.0367048071082229,-0.00651186875463244
0.0363997945524752,0.11122823008004,0.0144378285639987,-0.00413960098190349
0.0497720128451228,0.0563286750503307,-0.00145109034397088,0.00101726566654745
0.0283029044343501,0.0238168707391867,-0.00754639595310966,0.00817681973360374
0.000424380918809759,0.0107806211032645,-0.00979576739744591,0.0143158516362219
-0.00957688905415462,0.00411630722168616,-0.0130215455305346,0.0155639009037011
-0.00307232550353644,-0.00982092916356379,-0.0243889187693849,0.0106815597474117
0.00485644972326104,-0.0295430906263242,-0.0347859331013632,0.0023247728788473
-0.00149098036590656,-0.0434355977713168,-0.0285916578946506,-0.00558657290884044
-0.0242896529043549,-0.0484629429741168,-0.0139586748535887,-0.0109302400899456
-0.0420354642413402,-0.0504428233107565,-0.00672829272719259,-0.0129159863353252
-0.0465015986055758,-0.0539715706103732,-0.00762590031383661,-0.0111268437068776
-0.0484264881964381,-0.0508269042427034,-0.0105259084135165,-0.0064590583243071
-0.0439253818117251,-0.0369920201402262,-0.0112297215118812,-0.000852207028144444
-0.0206962562929289,-0.0241226276349664,-0.00781133736227294,0.00413610169343434
0.0298981042359975,-0.0197614377668954,-0.00335678211726742,0.00734998773269376
0.0825782275273929,-0.0228717452659599,-0.00140053953071857,0.00816704706470858
0.100274554844818,-0.0298492365824375,0.00100873990757364,0.00721254496771841
0.0924992779767294,-0.0292083414378008,0.00610486986356814,0.00594723432681767
0.0713022018108685,-0.00924898617129451,0.0111512288589806,0.00548097223899529
0.0382804359761761,0.0383075613231187,0.0159798626605657,0.00551280748399057
0.00794533705911969,0.0994477337899487,0.0234044461330293,0.00449728100243493
-0.0184820036077847,0.137011587058469,0.0349539066474575,0.00160065982573617
-0.0891265868464761,0.127444606654956,0.0461108003367307,-0.00184945821160437
-0.19513263918587,0.0756199836285389,0.0496925441946474,-0.0035194787313956
-0.199421031877149,0.0344412123427482,0.0485460416223951,-0.00272336671055684
-0.0775280064601597,0.0360705606305343,0.0496925730168744,-0.00148739256207516
0.0348699180919168,0.0526565993027179,0.054460924011769,-0.00227405199024314
0.080652095107001,0.0645499711143365,0.059154890902076,-0.00554353771191711
0.099093008037638,0.0559376533368809,0.0575429847048091,-0.00941639557271784
0.0985228955580768,0.0189088425348944,0.0472279828449937,-0.0108834914449457
0.0535705383827116,-0.0207340015256558,0.034697027430008,-0.00824451688974385
-0.0139486279869736,-0.0384841315186425,0.0286189462232588,-0.0028788487372874
-0.0391838236154646,-0.0433413180997965,0.0258587899034295,0.0019079928793392
-0.00918928992945247,-0.0489985056753735,0.0212163769343735,0.00409871047603348
0.0209577636232308,-0.0452329151446708,0.0179051514531438,0.00395811443682121
0.0184933369582273,-0.0223000862697984,0.0170397586324686,0.0025810825821321
0.00517252766471871,0.00956946712793607,0.0137068334262658,0.000801775365752288
-0.00248489292429944,0.0264724008825195,0.00494640641634614,-0.000422860656612008
-0.0100224168786624,0.0202057116310135,-0.00409757379877698,4.31417660675778e-05
-0.0157448066726976,0.0134388420283189,-0.00944832873472483,0.001867916763292
-0.0154445158695314,0.0194045170575963,-0.0120878501778899,0.00356673767921186
-0.0119695456725176,0.0282446757683898,-0.012077713499366,0.00420487575295359
-0.00933558003035163,0.0359059634777988,-0.00932391580190194,0.00370632779168954
-0.00651947182376536,0.044830718049456,-0.00363313730204198,0.00253244810929413
0.00360882521062071,0.0499040641517511,0.00547595015031821,0.00111032731896665
0.0184733496516839,0.04746501707316,0.016534712709644,-0.000544860337646108
0.0295461158837551,0.0438485022615776,0.028807765696349,-0.00276363418937812
0.03654776551766,0.0432821973139065,0.0398569783703535,-0.00536313704030074
0.0380087771440708,0.0449117041770155,0.0484614500447635,-0.00789751493305747
0.0195127749889328,0.0485504047340555,0.0576019406974298,-0.0118080268563017
-0.0159901470661163,0.0562941210968645,0.0634682738877444,-0.017377235955727
-0.0318459164211245,0.068604470984661,0.0587358605923249,-0.0184787307830122
-0.0210537955972517,0.0697032863522173,0.0441655499560851,-0.00878372141738629
-0.0103910113221862,0.0418675550532423,0.028011704547914,0.00744171622946952
-0.00680106031500434,0.00394836375229724,0.0177659053741562,0.0182475341872523
-0.0027682618805281,-0.0117501160760395,0.014960810298748,0.017315516562427
0.00239958132235983,-0.00685049062681622,0.0103069651541614,0.00988441015104199
0.00364855579174631,-0.00490450159519504,-0.00629020703483774,0.00464565742610916
0.00158607546478504,-0.0112617056721788,-0.0243377408903118,0.00384686916088211
-0.00484717725010805,-0.0147648654114029,-0.029565864443553,0.0046690529382257
-0.00957594249379695,-0.0146194630264808,-0.0269118267626373,0.00527710066740995
0.00411882949081825,-0.0266942661435623,-0.0255960325034486,0.00551397525559068
0.0291380843789318,-0.0620219338147155,-0.0289694268973547,0.00540494140873492
0.0488894006137505,-0.0880399188360771,-0.0311696984114899,0.00473462899809406
0.0490280912285064,-0.0587558150343536,-0.0258421930968667,0.00255651702247246
0.016959340257426,0.00268994132606583,-0.0212262706561518,-0.0016372486165081
-0.044084636112922,0.0161554415309485,-0.0241912121754185,-0.00577042640453134
-0.0923239805589387,-0.0219577716025899,-0.0270553007705725,-0.00678072304500462
-0.0715588268867443,-0.03593342495709,-0.0238050983866445,-0.00452813176913946
-0.0077877628955214,-0.015569053360306,-0.0219644247731367,-0.00176073424495472
0.0316009146822623,-0.00786620795416636,-0.028628525221132,-3.13693735956178e-05
0.0421986568568431,-0.0171899020642644,-0.0381159443502972,0.00174764488099683
0.0444244995555659,-0.014738398630722,-0.0426678313967241,0.00444733366677621
0.035249317823261,0.0141949571121563,-0.039857614049714,0.00675473607336842
0.0183305970684137,0.0456640280335288,-0.0320371376788469,0.00652539608735245
0.0104239274553996,0.0318339344510701,-0.0288229185097457,0.00364262564385189
0.0126110022950139,-0.0117953370634089,-0.0333533898988626,0.000244537493031382
0.0173371252113508,-0.0296168925100914,-0.0370573900287662,-0.00217464725307431
0.020986547376855,-0.0237005675060112,-0.0357314529303112,-0.00366267344059439
0.0183888614768398,-0.0177343423359086,-0.0312224570889903,-0.0038097023350193
0.00871187689184572,-0.0146358437073199,-0.0267663560093039,-0.00164893416961355
-0.005012982187243,-0.0247489053309813,-0.025925536869624,0.00223527060756111
-0.0233434389343174,-0.055112330377368,-0.0276655514628034,0.00569589169281497
-0.0418639558113403,-0.0847159948831946,-0.0310376251954732,0.00670153883208787
-0.0491391092927832,-0.0928856621017232,-0.0356854005547666,0.00517010770041301
-0.0418770048242312,-0.0836832029599361,-0.0392012792331505,0.00346395735224892
-0.0223305845511771,-0.066717100261055,-0.042142101682867,0.00360899834256028
0.00990736282278683,-0.0449080693327894,-0.0448644292149699,0.00490862340306425
0.05025482962892,-0.0214034578871078,-0.0453628360855404,0.00545878379522153
0.081394417147277,0.00118582966232689,-0.0424977385625153,0.00449203843432469
0.0910095185952949,0.0236042517331738,-0.0324541009277558,0.0019253002298256
0.0830032851080066,0.0469864938753977,-0.0153289876562862,-0.00228901247038991
0.0677335808631486,0.0666403961701561,-0.00177014342178098,-0.00698193489468803
0.0460947472982229,0.0689175084081934,-6.67631961122159e-05,-0.00996634519325742
0.00928678170078971,0.0574339826505479,-0.00388911520838035,-0.0101352524253346
-0.0366630871256851,0.04759200996893,-0.00287998106503831,-0.00916721018976623
-0.0756385252945777,0.0340091058904154,0.0017700528914992,-0.0103980981361342
-0.10200155743846,0.0148698642963979,0.00612040891566576,-0.0133787310865193
-0.106666282739396,0.000830515435102853,0.0105170666228856,-0.0129760779078497
-0.0730803080863633,-0.00246070474658779,0.0126231553694693,-0.00767985470309392
-0.016876242176041,0.00475261353936344,0.0100963272482748,-0.00204748512280905
0.0201903565966415,0.00596132280465902,0.00403642231665574,0.0010172129762369
0.0287479987054481,-0.00554846359023175,-0.00419369132348613,0.00298193011174902
0.0325817228688933,-0.00758469469561376,-0.00943645545703344,0.0043656929467448
0.0408337738490198,0.00458652810434532,-0.00424231871731796,0.00372185500053402
0.0446474684857832,0.0124929141440437,0.00587607679267418,0.00227246401294163
0.0381262426981661,0.0042409103044045,0.00493056438757669,0.00308712300455283
0.0257071810740506,-0.00826839048220404,-0.00512410442893203,0.00634260511215116
0.0174997353833179,-0.00669062677666879,-0.00897996344363777,0.00880197128145949
0.0157337557235116,0.00583465878266129,-0.00020042239155999,0.0069499721223902
0.0158208139915053,0.0173608628762206,0.0146234603698057,0.00122917804749726
0.0130989833153346,0.0251269395691387,0.0233813369425782,-0.00408175985670721
0.000846974928824374,0.0355282523544159,0.0233118441818687,-0.00633605310863553
-0.0191100446957547,0.0469769068365762,0.0195300512767974,-0.00606998586555305
-0.0373324470118987,0.0429352922223603,0.0119671600979835,-0.00400411011915138
-0.0473626309344301,0.0178964645762668,0.00324650011077831,-0.000937439248177146
-0.0435254471968533,-0.0134588278861827,0.00236983665734858,0.0011947780269273
-0.0288574832336883,-0.0341130641230267,0.00752779701448387,0.00122472802639674
-0.014819474095126,-0.0293306504290658,0.0138337644300125,-0.000697959471419074
-0.00379681497198654,-0.00650074620153011,0.0205600135071482,-0.00477064064084817
0.0078999556150347,0.00865523162710236,0.0245267007439779,-0.00996369330379279
0.0105289469896158,0.0111305196108006,0.0249356074756295,-0.0130815941182046
-0.00356993136068614,0.0106694899288022,0.0219385752481513,-0.0121748804702879
-0.0192124297403871,0.00410783974251892,0.0117727252395106,-0.00800326961876838
-0.0171868003358008,-0.00912795065695455,0.00142444104653437,-0.0022320213902994
-0.00169356838923939,-0.0149506403444899,0.00295998270208846,0.00351111819976709
0.0103931999785702,-0.00878812344533792,0.00960452602787337,0.00806503634189418
0.0117584001742761,-0.000415534393002265,0.00847943828093584,0.0111017370178503
0.0030548182536036,0.00111587782823403,-0.000960386474706514,0.0125854967192199
-0.0127885005919171,-0.00446807291850148,-0.0143942974958185,0.0124798990099918
-0.0307313691590161,-0.00861008589091216,-0.0283424807933832,0.0109745189554994
-0.0393228613864192,-0.00754633182815392,-0.0385476977335547,0.00856403298291396
-0.0348553974940831,-0.0100637238057312,-0.0431308813676265,0.00619740968339968
-0.0287395532864477,-0.0197216549782145,-0.041957392832218,0.00484866178235368
-0.0202535027909091,-0.0289233789195898,-0.0366328541442857,0.00408147042429515
-0.00506966625624682,-0.0332293229782545,-0.0315452398581665,0.00250779943094326
0.00344403640230931,-0.0339784726953724,-0.0280868706647522,-8.56248503692866e-05
0.000510919548110283,-0.034777201592507,-0.0240908590301084,-0.00272507850266831
-0.00349749027038868,-0.0394234206672901,-0.0187745877000759,-0.00452479303869138
-0.0029664428073031,-0.0450903132259203,-0.0138398408005735,-0.00528351341798707
-0.00280485879645581,-0.0405209033865461,-0.0106722399010636,-0.0051029592269858
-0.0141284941821167,-0.024906530214844,-0.00942696979959469,-0.0039832691340817
-0.0389888300903234,-0.00844048951033286,-0.0116139955328811,-0.00229116574105852
-0.0593016396790114,0.00368839567990439,-0.0156204017216986,-0.000263428196753021
-0.0540606235103639,0.00178275425593648,-0.0169127876913531,0.00238096255860342
-0.0326528391751158,-0.00931058434449241,-0.014672528230251,0.0053814184960781
-0.0201816258231943,-0.00852794468637269,-0.0110717133954306,0.00746593131637279
-0.0179263867389941,-0.00446300257145484,-0.00996043359512027,0.00685155525911598
-0.011623414095427,-0.0220593740142524,-0.0168458472519337,0.0032274471933321
0.00886673672343805,-0.0480485615333562,-0.0261349394594877,-0.000339258656673246
0.0397469713145523,-0.042850763435567,-0.0227825477839748,-0.00141424504790376
0.0573993023320519,-0.00379678854437912,-0.00806763203339976,-0.0020733938661902
0.0434245078028282,0.0375502409313202,0.00465073863682599,-0.00452818194833956
0.0127199689095775,0.0614326743397834,0.00801203407664655,-0.00762891416006533
-0.00584693064420792,0.0645847696269216,0.00376031452345086,-0.00853685319626274
-0.00189362317014789,0.051386173353716,0.00207224196937316,-0.00573407839878168
0.0110600919010413,0.0322955633097416,0.0118877296366636,-0.00123364936996505
0.0147630482055913,0.00725631414021584,0.0185786858991836,0.00204127844010112
0.0127856775330337,-0.0213368168945527,0.00773399663932126,0.00370430268815741
0.0197132421226387,-0.0313228237334917,0.00170872583387068,0.00407343226136819
0.0298801640314838,-0.0198534929488526,0.0126291100816422,0.00299364441651101
0.0240919638196559,-0.00296260922700492,0.0218070832015472,0.00162747669559444
-0.00847950895515232,0.0134478628967481,0.0191069784145397,0.00126471276763339
-0.045067294378907,0.0273783060503126,0.0107827180502562,0.00160945710433044
-0.0445456949996719,0.0307520706151248,0.0027538472096638,0.00186505502851508
-0.0161618307327485,0.0159631144478822,-0.00554280658533791,0.00143690849160033
-0.00325276349007467,-0.00368391268530422,-0.0114592154792424,-7.74190903411725e-05
-0.0127742115450001,-0.0129457321628636,-0.0123782765142896,-0.00245398436535698
-0.0224043110099406,-0.0124567395999914,-0.00783767696512388,-0.00487173507626568
-0.0261442968485085,-0.000890756691356409,0.00171858991539221,-0.00666916436507922
-0.0240813712575049,0.0150429809080037,0.00892051262492352,-0.00741482858492529
-0.00438464782002766,0.0187928513923064,0.00950806276170985,-0.00650985076493786
0.0306610735118888,0.0150818079837462,0.00968926651287478,-0.00409760935572488
0.0639643843148726,0.0199507328832052,0.0156582710352164,-0.0018166653654348
0.0830601154781136,0.0242890295927603,0.0231387980974205,-0.00108363186684871
0.0830916043927759,0.0113196379194399,0.0248895879653306,-0.0010905982486336
0.0690940460896937,-0.00790739771261364,0.0230835074097073,-0.000328979066620789
0.0507849201899368,-0.014390545086116,0.0240474898498742,0.00113787476359585
0.0338980005403164,-0.0101244887602574,0.0287170983605472,0.00221485782693847
0.0228832500390562,-0.00675043736928263,0.0310453675059207,0.00221949651088399
0.0198297654595431,-0.0108229790605558,0.0267513949460609,0.00150385394282631
0.0207400246523453,-0.0182770644694305,0.020667674666467,0.00114445762431461
0.0239123977036449,-0.0207423385328084,0.0193218660067067,0.00188094697331367
0.026271764646731,-0.0199081806999968,0.019574061035872,0.00337467423662956
0.0179192982766507,-0.016305028272696,0.0167240780690791,0.00471454366815632
-0.0036263684224506,-0.000914240105233319,0.0189736163250005,0.00456946301727682
-0.0283751703523118,0.0266205242393088,0.0288408562882032,0.00185870143293292
-0.0344500536048707,0.0445376181449805,0.0315867322471036,-0.00217085968398001
-0.0119847028844616,0.035759487716668,0.0212440306008878,-0.00468647508976399
0.0178141238655493,0.0209868353470696,0.0150002515065632,-0.00444417636955485
0.034281616233559,0.0278325791086737,0.024123876490532,-0.00294072433472806
0.029083418255711,0.0570797508243118,0.0331118661929558,-0.00238780913179277
0.010131498235838,0.0732371587629366,0.0261039381036074,-0.00296601808475147
0.00598695904923371,0.0427553456546347,0.00816950783312316,-0.00318250856148506
0.0169231647796432,-0.00406066175402914,-0.00596877898059515,-0.0022401966108649
0.0215828154196485,-0.0264694612613702,-0.0110710247489615,-0.000493379904574614
0.0235760489902377,-0.0280268548871204,-0.0103714728352774,0.00143221778141827
0.0274299889230702,-0.0207585000127964,-0.00795318801450112,0.00204810589906662
0.0235922587609767,-0.0162457871700487,-0.0120907508191933,0.000423643337734638
0.016803521501975,-0.0248725688935944,-0.0237976980917154,-0.000847486736603974
0.0191296296715825,-0.0339204483193559,-0.0262826872665857,0.000592777135868115
0.0236041701692265,-0.0328643148067681,-0.00730356043347434,0.00277068119980675
0.0253924699043549,-0.027225706633016,0.01752724839106,0.00310630790342127
0.0297828191571287,-0.0305735996833934,0.0221656279561636,0.0027533573872073
0.0182363592872536,-0.0459678355958405,0.0122743353410977,0.00447981537646076
-0.0284392274862465,-0.0357385933295095,0.0147272223014228,0.00732502251179737
-0.0674990170354361,0.0123929074479951,0.0303065602902633,0.00805004764758652
-0.0492213127561242,0.0557083563989714,0.0408010186815592,0.00632442018376714
-0.00186728503387558,0.0685263428324818,0.0375646538612985,0.00344350296242366
0.0222060217311696,0.0713147477761667,0.025122993819931,-8.52309362972207e-05
0.0201445925729431,0.0755711818243031,0.00976698988486809,-0.00338006169926439
0.0165182833305325,0.0505855750518629,-0.00634450520930705,-0.00545814013178712
0.00202196263157581,0.00346815411979919,-0.0149974531455597,-0.00625087197498556
-0.0321850083925029,-0.0245859908142289,-0.0155883405965194,-0.00584018503513996
-0.047560298351889,-0.015829332653089,-0.0165525360718841,-0.00442143046512818
-0.027495869331569,0.0133750558764987,-0.0154387517399639,-0.00287587205427894
0.00710435866568476,0.00136245881212315,-0.0144994820465162,-0.00183392619398767
0.0333592106566745,-0.0700398983563737,-0.0183100132912722,-0.000873967831175119
0.0361873766240261,-0.135499656339262,-0.0203564266138834,0.000343226248499281
0.0508717178993244,-0.132638858411801,-0.018352884459673,0.0013696853979081
0.0982947467466014,-0.0699870798021088,-0.0152057382764544,0.00216769444604659
0.116248080397456,0.0129046108126485,-0.0114055893065881,0.00300136037416691
0.0882708152157807,0.110924446766946,-0.00611690175586235,0.00313740033738444
0.0710429681493236,0.16737313590282,-0.00420616393644039,0.00159076096296995
0.0550989313967878,0.110212995212897,-0.0135348885874981,-0.000735440769347065
-0.00872724620135021,0.010985639738092,-0.026084602301168,-0.00122064107137424
-0.106904669937075,-0.0316310682623648,-0.0309160842245436,0.00111912250306717
-0.19683968602633,-0.0259837201130059,-0.0279140759931918,0.00473148385001695
-0.216702810762604,-0.0066391114405642,-0.0166769536992802,0.00730148585073083
-0.136647260575029,0.01404970145166,-0.00352907822843295,0.00657779554335273
-0.0331837111704043,0.015650409003233,0.00040292445196562,0.00234461237960553
0.0251087360988942,-0.0132386128084001,-0.00428780146465483,-0.00297694587053076
0.0451132458226774,-0.0411967948699558,-0.00778699664544577,-0.0065936845763227
0.0524950424697923,-0.0438694165959567,-0.00826531313016946,-0.00704819265892507
0.0631535564825804,-0.0393209028022524,-0.0124442548302886,-0.00483263308199903
0.0738766627653077,-0.034863151625733,-0.0212434808100302,-0.00177595790789602
0.0717906539787165,-0.020636414609704,-0.0257497613698158,0.000807213126920934
0.0558592520642074,-0.00878884497521503,-0.0183735936134765,0.00272754653712039
0.0234822931599786,-0.00989314104080065,-0.00561885609409794,0.00314612876721767
-0.0167275597304245,-0.0102338921942847,0.00238802356516645,0.00129945417804328
-0.0298207836019291,-0.00484636645117164,0.00656053761723669,-0.0013591428766051
-0.0157532105262819,-0.00879396914417398,0.00596037357657405,-0.00286943241087638
-0.0173158199329782,-0.0115650341779863,0.00486276759263384,-0.00269943917870432
-0.0555714449658505,0.0104576013404333,0.018283004936535,-0.00201696440508002
-0.0932044283724029,0.0325116011923363,0.0355791559742747,-0.00284058397397052
-0.0880575899726674,0.035359649200117,0.0391193380646473,-0.00493843169185858
-0.0581114994449167,0.0463974599693047,0.0376367586103327,-0.00621704435861948
-0.0389317852589652,0.0725549482973635,0.0376501680160475,-0.00616458957149573
-0.0269272450372007,0.0825315818977671,0.0343429525119557,-0.00509500346073207
-0.00867927144961346,0.0667915679419211,0.026925499199069,-0.00297832901784172
0.00482755465859374,0.0482349550622049,0.0197472406862131,-0.000315704472450034
0.00723623193612612,0.035580890262205,0.0174770541848856,0.00194004356038912
-0.00278898824092384,0.030838093475091,0.014407833677165,0.00301301417018594
-0.0243341994756105,0.0401037290502689,0.0058797317594334,0.00326083490094528
-0.0346040890829398,0.0589887523239898,0.0032193043330046,0.00356135590553805
-0.0298086259704771,0.0758478603564772,0.00818871980872148,0.00333185958287293
-0.0272595535241661,0.0568005030237501,0.00591727363098921,0.00174314119794658
-0.0239690073340367,-0.00778814675368635,-0.00182981477844341,-0.000523371878896799
-0.0197496158621352,-0.0611626843817834,0.000361269347569247,-0.00259856934093889
-0.0209527146779143,-0.0686608193022183,0.0101095588970281,-0.00400130716197439
-0.0218136074270919,-0.0599921325015351,0.0126173500952517,-0.00406402879834147
-0.0188641621299087,-0.0545420931975623,0.00792989757461598,-0.00219731476169483
-0.0133302722802529,-0.0329608260155219,0.00757523335148277,0.000891434778789472
-0.0030580246976616,0.00106009213303081,0.0152086793885552,0.00280322425277623
0.00659000641267734,0.0283437488874224,0.0282351389163929,0.00207641593456789
0.000936579980894612,0.0546311932507065,0.0406291434580507,-0.000305495255772252
-0.0162597885528205,0.0776319256032316,0.0467526537075558,-0.00279330092131305
-0.0246271700704968,0.0840740767559078,0.0432110078748425,-0.00447837636114313
-0.020296497198729,0.0753936038071368,0.0304562311153628,-0.00465588848151385
-0.0226530136515089,0.0627916188764307,0.0216292274675508,-0.00317379100077081
-0.0444259393603207,0.052112873639869,0.0239327288334531,-0.0011317086766977
-0.058445169464366,0.0362608561233185,0.0251024809593567,0.000218132804960069
-0.032117888695299,0.00684861814542895,0.015059115964727,0.00111244261673692
0.014616647406627,-0.0220208924230829,0.00386961790621628,0.00287850399997019
0.0421953334925217,-0.0413657935476147,-1.70382937230932e-05,0.00567189649316847
0.0455608896440011,-0.0564487429009189,-0.00151854345403526,0.00828758969760533
0.0439847583750463,-0.0511264221319289,0.00277375322540701,0.00981092551302194
0.0430042601019007,-0.0256500245352811,0.0103690315553373,0.00922658801586912
0.0392948040227896,-0.00477400271899539,0.0133976014641712,0.00609022562439807
0.0407390789774263,0.00463613757329359,0.0166420135222346,0.00204410386480226
0.0372216325071984,0.00515603419619288,0.0219100845947897,-0.00112565869383967
0.010502451098492,0.00360038285034529,0.0236953278456418,-0.00319016019913781
-0.021959171409451,0.00860700668147284,0.0195136015085822,-0.00420967900045189
-0.0305441869249941,0.0101118692594243,0.0122734381998261,-0.00394952397119467
-0.0239736152337474,-0.00324156768444239,0.00451966442490278,-0.00267164508997017
-0.0281857148539787,-0.0203358725914041,-0.00349340663992148,-0.00105695993363389
-0.0220651737023775,-0.0282165043184216,-0.0099764614706053,0.00032477684901164
0.0105244140514415,-0.0240908940365478,-0.012425357604931,0.00091914232668028
0.0220277695014683,-0.0113130826564535,-0.0130837603490067,0.000352832127089269
-0.0010785506531835,-0.00411442558270453,-0.0145240304782418,-0.000436375763845132
-0.007630858998422,-0.00804586073338709,-0.0134991385991721,0.000305389724998963
0.0171383739049924,-0.0135308340997526,-0.00727796846865012,0.00259823052939623
0.0449020769740857,-0.0198829279948004,-0.00328667911924774,0.00457338638487646
0.0622755898220505,-0.0286481468611953,-0.00796311546342323,0.00558258107759101
0.066480306169278,-0.0275853892810305,-0.0125377002075154,0.00640206768021867
0.0561683590009972,-0.0123733538212874,-0.0106332984177175,0.00597415020420182
0.0367156667609611,-0.00206811498064817,-0.00788869647966443,0.0018029294774135
0.0172909173469256,-0.00259189733426943,-0.00605828232121756,-0.00404634901594055
-0.00512121643282797,-0.00125852738983479,-0.00249798621086363,-0.00425260330566397
-0.0457973324199659,0.00550836672466296,-0.000243224063637259,0.00303909436937604
-0.0905749280012146,0.0159660431657319,-0.00349055507050191,0.0101251431289303
-0.0972117763041763,0.0198860235527645,-0.0102258909423487,0.0100053690332087
-0.0529457195519586,0.000972539568268406,-0.0149435173889246,0.00344917503953029
0.00558135529511977,-0.0370980439880007,-0.0179307118607657,-0.0046094305404911
0.0345756775664336,-0.066013387140734,-0.0220552002297031,-0.0101310702641122
0.0200557484111188,-0.0718518380725115,-0.0268236030356295,-0.0113272332299336
-0.0125981025622169,-0.0612229209376359,-0.0314549556280156,-0.00835988836243142
-0.0199349584712805,-0.0351026249031803,-0.0304650134934542,-0.00348776497463069
-0.0035726511653847,-0.0191388120503363,-0.0234408588094201,-3.4647197810404e-05
0.0055273223322084,-0.0379054099272417,-0.021022650291898,0.000668282914994823
0.00976448847281373,-0.0611620928960913,-0.0215898006754519,-0.000423193140280979
0.0242959280745145,-0.0676224538890051,-0.0209717223089649,-0.00217407389119068
0.0395809913764528,-0.0698342846666373,-0.0249273423422853,-0.00349655888038036
0.031346703206825,-0.0595912895430935,-0.0230705961887448,-0.00288717452843944
-0.00114437658352277,-0.0182149915244255,-0.00252074378314755,0.00022496886156329
-0.0327491382660277,0.0385071273450543,0.0195405907670881,0.00416467072474824
-0.0422251072547225,0.0787650629565508,0.0221160276127031,0.00610173503257152
-0.0339375467200051,0.083399599007244,0.00878325814729386,0.00479567451368492
-0.0340572397981547,0.0464622430902091,-0.00636526462321722,0.00176535743983725
-0.0506714814887649,-0.00562021238468344,-0.0153699688032711,-0.000926454916808344
-0.0561027273821774,-0.0393580346571617,-0.0201114864330701,-0.0020843692797059
-0.0344134706646666,-0.0532579085404618,-0.0219838152862445,-0.00151346811951858
-0.0136687430381361,-0.0569939789379477,-0.0199254311884066,-0.000855198861683132
-0.0134981968862706,-0.0531763646296858,-0.0164862992855913,-0.00200104785681817
-0.0180358480300302,-0.0403931712224222,-0.0150257639229776,-0.00449850031002003
-0.0112075035009968,-0.0259050558342564,-0.015727386963974,-0.00657118852471146
0.00561403600311499,-0.0245853288971034,-0.0154358919329862,-0.0069285175835173
0.02081138944178,-0.0360599617751618,-0.0187126592513105,-0.00482459258334143
0.0245675876436441,-0.0452142340691619,-0.0257739361537832,-0.00133148069945408
0.0136641803711045,-0.0377232999853656,-0.0233792346185519,0.00107532087793516
-0.00509299322321177,-0.0226652531085909,-0.0144141947843865,0.0016961185419219
-0.0159782581517912,-0.0193209786390585,-0.00828524028083941,0.00219711398584829
-0.016317850320063,-0.0180944165085092,-0.000280722700205834,0.00357788945396262
-0.0160716150719178,-0.00131995265878104,0.0110598089842034,0.0039133524894866
-0.0176904508083689,0.0211854652821493,0.0163817783281504,0.00117649591494556
-0.0188443366667219,0.0218241759022775,0.00932456731273852,-0.003224867983545
-0.0128622142608202,-0.00527698788796862,-0.00193135048998526,-0.00632724472744593
0.00654352295971185,-0.0282791502091156,-0.00416358970014848,-0.007760405202924
0.0219314177159648,-0.0240023919855305,0.00238823511892338,-0.00884904398621006
0.013179035206682,-0.00186498635596389,0.0079651509968232,-0.00862740732431298
-0.00746382429814007,0.0188503976739897,0.00661329711930024,-0.00478676134246533
-0.0187191629308121,0.0180886011481693,-0.000788644238900283,0.00219252684296003
-0.0159716889431259,-0.00302793514237227,-0.00656809551243648,0.0086267628597612
-0.00789739925477507,-0.0219308421674079,-0.00671986787270064,0.0111380773219292
-0.0036879853164889,-0.0271361789386367,-0.00467589650670487,0.00962902770030102
-0.0100037542200024,-0.0233248414582735,-0.0039536748129528,0.00654980936824639
-0.0171291723072463,-0.019334448821024,-0.00327923619616747,0.00381191144372269
0.00270712537832619,-0.0182972541742147,-0.000475252095234333,0.00174995307523125
0.0385606248815583,-0.0188513083998275,0.00221089587189837,0.000408170480729901
0.0472917524026283,-0.0257346009305516,0.00314523859687602,-0.000300676744800119
0.0265587809644242,-0.0327480580697801,0.00709664675630415,-0.00205934216601197
0.000484961476691449,-0.0253506493618977,0.0163022701727164,-0.00617691585373617
-0.0145352397077327,-0.0145583683177536,0.0226636558275493,-0.00962530106184619
-0.0115044246877556,-0.0229624614974733,0.0196735445176721,-0.00835042480553148
0.00178833215970509,-0.0504826270723478,0.0106133742208286,-0.00256141203974109
0.0124032300932465,-0.0731780600923079,0.00359953462498095,0.00459373638202334
0.0138553164381711,-0.0740371823329268,0.00110356880837107,0.00996713787722567
0.0121969990887617,-0.0639377136043807,-0.00396616836358931,0.0120390462891667
0.0135600027803986,-0.0520566976510756,-0.0109989191779006,0.0109675220776831
0.00978027470121192,-0.013858058881434,-0.00859982034229601,0.00671207457371161
-0.00565336065664549,0.0560378685876304,0.000515445624319285,0.000147185797604851
-0.0191861291683686,0.105725469487525,0.0035008555382677,-0.00477910771348606
-0.0156665276364669,0.106342415845384,0.00018044239700616,-0.00494862266684078
-0.00560402810226358,0.0838826845876026,-0.00408382626974379,-0.00194164227224326
-0.00525617587942323,0.0557082199579164,-0.00762158480139081,0.000973009670220441
-0.0139549802741729,0.0190896255317611,-0.0127952728422789,0.00236026961702082
-0.0213969779634682,-0.0162200128190836,-0.0209590332284661,0.002842003581642
-0.0149543628173551,-0.0380653819859133,-0.0282020339269674,0.00354437635182306
0.00520513507610357,-0.047168185025628,-0.0327147650310891,0.0043633443606874
0.0189949725322343,-0.0412228685423901,-0.0320031993203468,0.004292688897757
0.00744937465451871,-0.0276387086525264,-0.0254041574030665,0.00300404262978679
-0.0129870104434646,-0.0283349263272073,-0.0181989566507825,0.00144937473582217
-0.00933279046618601,-0.0451829068660112,-0.0143714061958019,0.000744037208604016
0.0220866080408116,-0.0574715810467864,-0.0108008118763519,0.00111248524074387
0.0600368220663809,-0.0472686467162046,-0.0026248239460427,0.00169955920879096
0.0739891943087824,0.00223655833149317,0.010929201582578,0.00117433043046931
0.0324385846224042,0.0923962852886719,0.0299978161281655,-0.00122929099168512
-0.0349862746939299,0.163618369913369,0.0439237430368397,-0.00538822568457431
-0.0551764862243869,0.154009798656574,0.0348815406772051,-0.00880382230124638
-0.0369087077426153,0.0760908662776111,0.00525345495765243,-0.00682735732545901
-0.0238437702005602,-0.00999912501460143,-0.020919272683079,0.00202913495237172
-0.0105634377417628,-0.0410226982254025,-0.024130158920718,0.0123353792561055
0.00518610810740473,-0.012208908055461,-0.0107519506302684,0.0161374368439633
0.00831671284243589,0.0278512344312445,0.00229081181204579,0.0113398787296589
-0.00126129157674958,0.0552291122412313,0.0110752892720359,0.00295923187814086
-0.00927783584340011,0.0648808219658642,0.0160783366949952,-0.00338000121098318
-0.00802385143238113,0.0506078227928125,0.0127097511576997,-0.00580432563595108
-0.00240835052001681,0.0304295836597148,0.00300085142088211,-0.00540227210093048
0.00114270162762378,0.0247426711393219,-0.00328139058759402,-0.00434110206821015
0.00577424172505469,0.0274475915319304,-0.00270969769750177,-0.00439377554859384
0.0180455146247754,0.0269255485249619,0.000660405729085033,-0.00575931861088731
0.032064050169265,0.0212152292323028,0.00373713550504003,-0.00713397850309025
0.0400527055273033,0.01464780129527,0.0069196361109311,-0.00724202140603182
0.0438255394957835,0.008778522530208,0.0114711044839189,-0.00593111708639968
0.0314024066950396,-0.0039898194446949,0.0162119969266614,-0.00368227201824662
-0.00526159676442302,-0.0189068607606499,0.0166393939512904,-0.00131127755530911
-0.0265704533568397,-0.0131992177131331,0.0150395899525525,-0.000370235916288409
-0.0123015304374975,-0.00143531136413661,0.0150681394984703,-0.00182624564636275
-0.0061114370658985,-0.0140722915466973,0.013396157161903,-0.00435998531119985
-0.0322718536419551,-0.0255428108950612,0.00881575082133595,-0.00544840981820764
-0.061138089218183,-0.0101164503067608,0.00434651908676106,-0.00327259189678131
-0.0565819604006116,0.0159117442881862,0.00196790484660748,0.00171578282981165
-0.0240808958697808,0.0356936281853427,-1.06331714223931e-05,0.00714289953628775
0.00176013973049392,0.0537998625800599,0.00166028833295592,0.0106420368901262
0.00963067261972144,0.0838157517954678,0.0107401441317884,0.0110112727034299
0.00535647043348208,0.114723927048237,0.0175923470795344,0.00938193329251843
-0.00387773807472941,0.111589470993956,0.0152436333353563,0.00764036532750289
-0.00678010102504894,0.0699602057219978,0.0103434461806351,0.00510724820886615
-0.0042378897789193,0.0287898622439482,0.0104038318111725,0.000143827846793544
0.00226711442716843,0.00568508687125527,0.0148804823473308,-0.00619452439289003
0.0187781818439926,-0.0132225073354473,0.0169995866019593,-0.011224264519217
0.0340237329831184,-0.0200695784661141,0.017376017899284,-0.0132314393615171
0.0266740477605033,-0.0103486579123788,0.0215631218892978,-0.0124351451245739
0.00271052247880921,-0.0158810004374012,0.0275635906829645,-0.0102606458327383
-0.00423621643810523,-0.0416085088389384,0.034836948394815,-0.00713173995216941
0.0187143069466961,-0.0517433662263754,0.041231641395361,-0.00302404831272443
0.0454639129101953,-0.0310471046934056,0.0356140398374208,0.00073020307376748
0.057845956503038,0.00584344223288887,0.0247616745024262,0.00272294783598488
0.0603777735473182,0.0354364479013595,0.023484638372477,0.0026840385325409
0.0520937167291882,0.0400264422007901,0.0218532925979197,0.00143693706087866
0.0328553636176807,0.0314769706529907,0.0144195530488914,0.00116119446562649
0.00628737633627102,0.0178747870991484,0.0010225416404649,0.00316956206953597
-0.0256779942213872,-0.0176103370350329,-0.0183253694675784,0.00699036539934827
-0.0613697714888622,-0.0492277298199769,-0.0199781360026424,0.0109285557103081
-0.08820815029869,-0.0431702798077325,-0.00503426480690695,0.011063548083987
-0.0648886624735694,-0.0254683434925943,-0.00318294415276178,0.00583867303637146
0.00671239525718988,-0.019420258103867,-0.0138045038980259,-0.000605018996087354
0.0589568315131921,-0.0171615610061848,-0.0171583762670595,-0.00445751560105042
0.0691585077032693,-0.0162987557649728,-0.0105626842595364,-0.00636216975969088
0.0671469513199208,-0.021175499365761,-0.00476290295181687,-0.00800314039460756
0.0609248858266417,-0.0366099080191939,-0.012579222391096,-0.00850526195172327
0.0369653211818303,-0.0516359644898124,-0.0308968755730921,-0.00514783643550497
-0.00050412911130647,-0.0313045048359532,-0.0357905110017821,0.00238558129160279
-0.0427512637298022,0.0111363243504619,-0.0265834601578583,0.00967827088263395
-0.086258595031195,0.0147721441169518,-0.0244306791210828,0.0122527685813679
-0.0965164107443857,-0.0199358198102338,-0.0289044690378659,0.0100736952004964
-0.0613879489473813,-0.0483413848736969,-0.0290886132052565,0.00572825574321239
-0.0241438718414956,-0.0520625275367017,-0.0248615007054937,0.00107351182341653
0.00594605280665512,-0.0320990120045021,-0.0193108951328833,-0.00361917398545805
0.0407780824417004,0.0155608674390502,-0.0167242369526385,-0.00800727516159936
0.0667423038565671,0.0557908972611209,-0.0214080051614133,-0.0103767965853992
0.0724932955288583,0.0181685134339897,-0.031955598019371,-0.0093382320621853
0.0583450411869105,-0.0745368076882592,-0.0462332676960433,-0.00514079285820636
0.0508213227686364,-0.11919804358139,-0.0538191644203065,0.00102551372258819
0.0567207663852684,-0.0856105388444426,-0.0399832801671577,0.00603994546908324
0.055894068834676,-0.0272817059726679,-0.0154253265984301,0.00576468915438799
0.0308897219679217,0.0246588006030178,-0.00107697933794127,-7.80748026774037e-05
-0.0327619048240883,0.0477505177889797,0.000677345121331031,-0.00693594975802852
-0.0774754424497845,0.017572153685572,-0.000261235585040344,-0.00984013509974362
-0.0639060968027442,-0.0258245917205848,0.0023159545128273,-0.00778065795479041
-0.0448286998595393,-0.0325786478797987,0.00442796409074652,-0.00382216450863001
-0.0402468321376899,-0.00202163605540137,0.00384161268049329,-0.00121697044917427
-0.0420661636984776,0.0464707485819256,0.0052588408047691,-0.000768941188359864
-0.0496724146662185,0.064448545381256,0.0032173514006722,-0.000966171536944617
-0.0485882679708637,0.0136560491932403,-0.0122525814319606,0.000692896781711838
-0.0344571698596968,-0.060748889941849,-0.0320704830432491,0.00510673870483654
-0.0247323472950551,-0.08557477699451,-0.0405832055503436,0.00994941650081858
-0.0245843364769808,-0.047420196625203,-0.0349442877727438,0.011529625244022
-0.0108041504053896,0.000608266820250399,-0.0260587106138304,0.00862440659744559
0.0158703979441136,0.00739414629925823,-0.0234537120703088,0.00331367602626795
0.021701444272787,-0.00646591462084629,-0.0238786839438456,-0.0020031411804336
-0.00325679916103894,0.000571417561186015,-0.0235712203063557,-0.00595321175313147
-0.0306519790779162,0.012970388622732,-0.0232942183843619,-0.00777383213592598
-0.0355444342896888,0.00489856387883293,-0.0228950019704658,-0.00772741168635007
-0.0213665700226621,-0.00269984176807687,-0.0188827878038399,-0.00672246732140052
-0.00340173441101123,0.0132340738808868,-0.0107819200151553,-0.00570032343099492
0.00294610676562238,0.0347275806602531,-0.00565263018677292,-0.00516702510282916
-0.00858021276221074,0.049804850427507,-0.00369727958129937,-0.00444685470808368
-0.0245948734730369,0.0647868798850639,0.00417750872752855,-0.00285833755511303
-0.0294978772924923,0.0685484182140848,0.0189543060796274,-0.00100272289307223
-0.0231921040080086,0.0619821633056446,0.0335059614891525,0.000356743706061337
-0.0170658970308297,0.0714351699541648,0.0450441078919281,0.00120068695614632
-0.0185897312177029,0.0973485609286451,0.0524302433625376,0.00172896977676128
-0.0205513162317528,0.106068611952639,0.0520271830551569,0.00217239763277881
-0.0166298440175264,0.0840375773700036,0.0446673080146774,0.00277301023052386
-0.00854379876474743,0.0479102653449746,0.0341571122757972,0.00364330120940663
0.00574091209739905,0.0146643803888679,0.0245622156148617,0.00462598286532942
0.0214265514806043,-0.003304471944377,0.0212521659273875,0.00528092522703032
0.0322261214041391,0.00631333919562935,0.0238399942100569,0.00487809910802483
0.0381551564015311,0.0371760005368592,0.0254805094093536,0.00270068695298789
0.0397445647035299,0.0609896200765288,0.0221002621611519,-0.000803071047446038
0.0272166794735818,0.0572917860979583,0.0142806529600593,-0.0039342081571446
-0.00980085496968148,0.0223843123985344,0.000160414612953498,-0.00472802637930058
-0.039221208980968,-0.0198609889040553,-0.0148224827709609,-0.00235991976707476
-0.0381763804377904,-0.0312284788925569,-0.0170913729976594,0.00154154755661463
-0.0273357535454222,-0.0151767509873121,-0.0095354130173471,0.00411814560309914
-0.00974414715976459,-0.00440820183895959,-0.00214502673268227,0.00412987176335256
0.0148529313252574,-0.010744294891563,0.00557222805346857,0.00253257103423522
0.0255004211363009,-0.0207929048466398,0.0178066453262147,0.000671519600795593
0.0189890122905616,-0.0198759539215527,0.0347678762855261,-0.00124716603533498
0.0131518992791476,-0.0165571440785774,0.0481578785015362,-0.00323316971838708
0.0120034811846982,-0.0233442057908045,0.0483177562906054,-0.00416125759646913
0.00963372076261923,-0.0331537436273936,0.036412073247651,-0.00306949841308917
0.0128911506179061,-0.0398042841761259,0.0262963166084152,-0.00066726723347362
0.0267000727402007,-0.0471342479043487,0.0245786144473555,0.00113782705332681
0.0479123462766092,-0.0539710147347649,0.0224781516274032,0.00167562847329776
0.0626815076967064,-0.0491855514957657,0.0204604287218269,0.00250690910912823
0.0551132165963774,-0.0238271731582345,0.0238095992513288,0.00420876747713399
0.0389462920713761,0.0179450785698184,0.0251745703409087,0.00477293154946496
0.0319054246209972,0.0426434575792494,0.0199584227930084,0.00306436460101217
0.0289499016259277,0.0301370081187223,0.0164300931430121,0.000945510941177348
0.0202464082423717,0.0350145238474167,0.0204789966016697,0.000368624793939336
0.00644924159512118,0.0771303782418103,0.0230407994687253,0.00075331554717699
-0.00457547137010905,0.0797655615991624,0.0180353744100599,0.000558030679006179
-0.0157084195145229,0.023745666072412,0.0107460339124962,-0.000552635602080785
-0.033455000625134,-0.0246174109664532,0.00204225778887228,-0.00185850511986588
-0.0402015332888194,-0.0328602382002791,-0.00767131781179384,-0.00251485963541929
-0.0178248772435198,-0.0174686736275779,-0.0109203189118751,-0.00191118615686388
0.0118408471371112,-0.000387417486002767,-0.00521744524558935,-7.59972542405997e-05
0.0213249222122065,0.0114314381922318,0.000429582252449108,0.00191641669977394
0.0168450504319991,0.0172869767394747,-0.000353081629541604,0.00277379205934627
0.0123109588455987,0.0105638524715656,-0.00439797435073947,0.00217863629288753
0.0131390361593172,-0.00824545716051103,-0.0066946682590763,0.00100530715626156
0.0172796886653019,-0.0246972527656015,-0.00655758291277822,0.000346135673927495
0.0182723646645607,-0.0311336516359892,-0.00520761878907577,0.000340720006933381
0.0186760019637734,-0.0340057878796152,-0.00206787739445369,0.000301947211934443
0.021132340999712,-0.0342594876337745,0.00252224121346176,3.26012701072763e-05
0.0175612823778795,-0.0290676773634518,0.00688466568711477,7.86469995051644e-05
0.00828109103928896,-0.0219551958551514,0.00610388955394757,0.000502025362574242
0.00696662018502212,-0.0153500894310419,0.000205179459047505,0.000821899497918173
0.0129792555398364,-0.00632624309414187,-0.0040151446195727,0.000950922929179834
0.0150272436719851,0.0056871325711153,-0.00601658080301549,0.00123643744220165
0.0111716566001845,0.0152679747031978,-0.00651577656092446,0.00166923766130847
0.00845451223778661,0.0171967538606576,-0.00474320128161197,0.00167849737678757
0.0101529003954169,0.0161373505712974,-0.00116904114499982,0.000840410362459543
0.0100435496933225,0.0191769779349013,0.00153508814886379,-0.000691541982949837
0.00533963190896579,0.0230043575252605,-0.000380402608553324,-0.00214403582867263
-0.00155651994927603,0.0254031094322918,-0.0032488078724884,-0.00263517153850789
-0.00906943296845037,0.0292565527704571,-0.00440684448460073,-0.00220114286679714
-0.0114768215700674,0.0313374393539973,-0.00871340337251235,-0.00124453654884446
-0.00322705507603751,0.0263738504084665,-0.0162361917645467,0.000522597155276071
0.0110854913423795,0.0195741956408761,-0.0179701947600323,0.00316127977042633
0.0206913456510184,0.0202514569916331,-0.0135963725073581,0.00522783979500362
0.0196954156449521,0.0269852153776008,-0.011893579741382,0.004902051212843
0.0122781204457182,0.0299540851896259,-0.0142106057684096,0.00281702816695129
0.00903893083635478,0.0225609789251251,-0.0197993132415148,0.000677294906050576
0.00847766867318811,0.0114629585210676,-0.0304674470911599,-0.00300792334043343
-0.0045225591587226,0.00341517114405383,-0.044298316237014,-0.00944551642539918
-0.0265518258136905,-0.00896300574528355,-0.0497239038036289,-0.0122683401678063
-0.0415164665093316,-0.0273179429033922,-0.0368306505532902,-0.00422172466586604
-0.0489672257056243,-0.0432125894375719,-0.0189365190533441,0.00938278282091753
-0.0474269737356623,-0.0533964771054584,-0.012519810983983,0.0157546631552316
-0.0256936884204995,-0.0573195310250464,-0.00953878942323731,0.0110445885416328
0.00751016547252681,-0.0494196622972908,-0.0028021087699838,0.00285735638347271
0.0297228982273796,-0.0305366696752613,0.00187374721881214,-0.000999090140393887
0.0341891095979594,-0.00920661760476374,0.00647473052230992,-6.31990764016991e-05
0.0269375398762982,0.0110668692204335,0.0129972187340863,0.00135056716848867
0.0153706711852503,0.0266597265025625,0.0168814595368018,1.38282533225266e-05
0.0039385909953366,0.0313186282842189,0.0172479380807008,-0.00383137211585395
-0.00185122671848118,0.0192961293327516,0.0119988285376174,-0.00759054032319726
0.00286118378509063,-0.00359203148243512,0.00160157755408661,-0.00846524358806649
0.0150725524944812,-0.0160880054489577,-0.00643909946400991,-0.00634930676795
0.0298507962052686,-0.00921637388279181,-0.00782804838993928,-0.00438849824468461
0.0357928022718309,-0.00304444274601265,-0.00892952689502427,-0.00490752778348617
0.0258954211055357,-0.0199718841949146,-0.0180229394934499,-0.00535009054402364
0.0122419529863054,-0.0451855838340659,-0.0278671360214561,-0.00182683005286441
0.000293254899232452,-0.0457941521642662,-0.0287421302872801,0.00461331382433946
-0.0119618800483892,-0.0219843373952771,-0.0251699857004794,0.00968765864846995
-0.0181774263358081,0.00250921658963396,-0.0219093867448668,0.0108255597435392
-0.0156900799462014,0.00985719402621593,-0.0192110261672952,0.00829384823821873
-0.00723802859714107,0.00167773988324119,-0.0192389340881538,0.0041263661107711
0.00162486942143516,-0.00710595117236275,-0.018112664039893,0.000755954462118071
0.0026041917647479,-0.00653617097662682,-0.00880703644435187,-0.000845984550947304
-0.00466107840199617,0.00679986930147885,0.00332527450812898,-0.00181322255495892
-0.00696650313286442,0.022630000424306,0.00974995391977165,-0.00325033413359469
0.00253068377500626,0.0232338144400056,0.00965744928137997,-0.00468832179064673
0.0120359978030304,0.0084119892690247,0.00737293583187136,-0.0046504166808207
0.0155442971271812,-0.0113935035650355,0.00782081263593969,-0.0025600900135232
0.0145164046848798,-0.0251642680068414,0.011631842387128,-0.000176095722856665
0.00797818125852598,-0.0239558041765625,0.0180393108022512,0.000328972064697742
0.000245749196276047,-0.00905519895708591,0.021265969029832,-0.00115492556945956
-0.00258180079338273,0.00993921127863894,0.0146761862131245,-0.00270782946706413
0.00163261257509059,0.0159562856082043,0.00305204283651082,-0.0024464924180427
0.0118493564493534,0.00446291511568648,-0.00644932620884298,-0.000378626361502071
0.0220550802130023,-0.0113944595244017,-0.0107330601142475,0.00204529438677418
0.0230737816180243,-0.0194452937126652,-0.00887707972069575,0.00331574049170394
0.0139148026552582,-0.0135454551301318,-0.00679332921010913,0.00308476467044397
0.00556401154813055,-0.00168712528055492,-0.00964458191616109,0.00235069700194545
0.00793028807067445,0.00612421777638399,-0.0142067479258262,0.00212154315826858
0.016825768050886,0.0122641510354746,-0.0148923663343749,0.00260692333084859
0.0200989982204714,0.0122792407190919,-0.0120386852582983,0.00321233791860829
0.0141965579882214,-0.00246198942357936,-0.00930676338082093,0.0029758691283591
0.00463288046911249,-0.0191779481560864,-0.00569660144269891,0.00139162591513845
-0.00134468069274528,-0.0168646407115039,0.00160917046282669,-0.00139117826211177
0.0035437198684416,-0.000322022446924697,0.00846159589347762,-0.00448347830058078
0.0121889951837139,0.0242438332354042,0.0114138000638703,-0.00643076405595857
0.012871762533256,0.0537167502411903,0.0132474870893439,-0.00640866513439638
0.0178540910943011,0.0529179795001068,0.0140963516246243,-0.00501022943293303
0.0343625937371723,0.0138106307450727,0.013450323546909,-0.00381649874751903
0.0466289423801282,-0.0203905789320466,0.0111921264501732,-0.00359755244031711
0.0429542805291444,-0.0342260368702926,0.00660106539608972,-0.00357480845911687
0.0241684285645648,-0.0475831262783671,-0.000156232439123071,-0.00277818828478611
-0.0241931081604758,-0.0641152124380455,-0.00761202532203939,-0.000474445028294911
-0.0968778852008109,-0.0739437921053244,-0.0141169580208663,0.00357012690037838
-0.119404674594537,-0.0775895880844279,-0.020268238017345,0.00834269669200169
-0.0687350243675904,-0.0791479561634464,-0.024448328624168,0.0114381277869975
-0.0157355253087882,-0.0798999557069348,-0.0231880078938733,0.0100102033757096
0.0018643453081514,-0.0775820718064084,-0.0170872125348199,0.00377250180810206
0.00361466222964353,-0.0690175524187804,-0.0110283004927508,-0.0031013310224486
0.0101778383022753,-0.0604584835004734,-0.00887678565766277,-0.00594142297320896
0.0267676467770472,-0.0554861293165085,-0.00594411122060404,-0.00433732431081135
0.0504879959327354,-0.0424587116366059,0.00388661909571787,-0.000958453401901031
0.0625253193460362,0.00115986125435749,0.0211063470156054,0.00173823427178744
0.0421199377144325,0.0758414680582359,0.0399614055835403,0.00230551450783836
0.00632049568458416,0.147464775918946,0.0505151853476423,0.000321737677431822
-0.0157622834188354,0.17160613255886,0.050114119000879,-0.00277737363030443
-0.0219741652180353,0.120609936893632,0.0430580452733525,-0.00453764727591762
-0.0234288524718417,0.0327061758036811,0.0332186786394341,-0.00396555338823682
-0.0268265834660142,-0.0217619901405138,0.0231828351901496,-0.00201568314858139
-0.033698814606947,-0.0261886542255098,0.0141935976830104,-0.000374262365389846
-0.0353797534389614,-0.0250249295849837,0.00315537188220885,-0.000140213596254749
-0.0189682956996853,-0.0512215981856841,-0.0117693768762389,-0.00084276332665784
-0.00387222221608417,-0.0811572388067625,-0.0252469356946681,-0.00123636455139273
-0.0104344412797212,-0.0870291285372535,-0.0309874603284723,-0.000601420589499868
-0.0195799654824483,-0.0718679548367275,-0.0304972103166662,0.000941372290184328
-0.0153185734442656,-0.0489002208959942,-0.0304148159760548,0.00269119116593265
-0.00846119576320305,-0.0295489507536752,-0.0314687306396081,0.00419122420830611
-0.0109149972522726,-0.0187869463547111,-0.0322135055602527,0.00557980970900577
-0.0197671079160624,-0.0124499894871661,-0.0305556220009966,0.0068755640429933
-0.0318382353595668,-0.0055040045788185,-0.0218227402155276,0.00735565311678981
-0.0406272515486457,0.0119907397947692,-0.00529125456244862,0.00611134584777603
-0.0421820280258088,0.0508788921761478,0.0146660946707239,0.00300624627751194
-0.0446389199850114,0.0890298636831088,0.0300933368040365,-0.00120314438258818
-0.0352865361016199,0.0896196334646323,0.0308716830807636,-0.00493555465072075
-0.00016626723582077,0.0515244745051607,0.019230543426734,-0.00621626680321569
0.0338802595043965,0.00762542896786719,0.0128582108196246,-0.00513524565497763
0.0536484038100347,0.00172241010727353,0.0166659303493526,-0.00476149913309329
0.0634670115199124,0.0274642257710987,0.0153921826686005,-0.00670541340740539
0.0436836377722338,0.0244353493570434,-0.00306122807160703,-0.0083531724764711
0.00772454352687011,-0.0181814010211555,-0.0306150158341539,-0.00613121956275675
-0.00938664478350019,-0.0512310728639414,-0.0445089128582099,0.000374130039001426
-0.00659610964744719,-0.0385838507384755,-0.0369695993190051,0.00766589994119417
0.00867912471189246,0.00645684164742459,-0.022276408686984,0.0114812859117613
0.0305123706300559,0.0475361819492357,-0.00985661058426033,0.0104262703861008
0.0277503622602835,0.0878681903326827,-0.00102219632774313,0.00654495778666694
-0.0179029510710305,0.131529436425209,0.000716338376273849,0.00323274933841861
-0.0472812433250644,0.140782113269449,0.00185564380907708,0.00153900814213474
-0.0199805945090536,0.0972944182359014,0.00785756191541436,-0.00140496954766075
0.0134761900320869,0.0296794787092283,0.00881044777636253,-0.00687790335682735
0.0150549746543393,-0.0162169255540988,0.0058003500722028,-0.0111352119313942
7.69177558292283e-05,-0.0216680519974968,0.00583230119814266,-0.0106873189355501
-0.00982754714472206,-0.000455922735697424,0.00600592556041625,-0.00625412949275218
-0.0123233918978371,0.017812942631262,0.00431589091993848,-0.000803393825520145
-0.0139912835905223,0.0129619337450828,0.00147408467993979,0.00291623997366485
-0.019135557466132,0.00121838478491969,-0.00120047260898343,0.00360868248531593
-0.0270333312431675,-0.00251225897785628,-0.00427708983732831,0.00214363243660987
-0.0201651334046521,-0.0027277224748226,-0.007243347323205,-0.000174689351462944
0.00869140351251376,-0.00132119513489824,-0.0092601291103078,-0.00267262407116205
0.0409487418642917,-0.00166469415214174,-0.0157392490907221,-0.00440058296780514
0.0710525514356714,-0.00550887804641885,-0.0296657456020163,-0.00425801906626246
0.103719975463777,-0.0067984974370482,-0.0397373071994517,-0.00181170781953521
0.124025155032165,-0.00247631303292135,-0.0334041104186756,0.00160316337920698
0.117810781130738,0.00682711487766233,-0.0163140399307354,0.00372940106926724
0.0844894786715905,0.0184782782451496,-0.00341377876043924,0.00372216173942296
0.0243143908676558,0.0314309181432304,0.00168216812611252,0.0022303387010814
-0.0390007774479059,0.0431736558091538,0.00431961074547619,0.00044159576811101
-0.0722884776834054,0.0477031226711421,0.00420052301438199,-0.000887662452258589
-0.100606047045343,0.044862266846757,0.00302997585868474,-0.00189991326649497
-0.141637357295322,0.0328596249677591,0.00363718226894985,-0.00276383603718319
-0.116981799978605,0.0180761453759402,0.00420400874217869,-0.00374077109022276
-0.0120143907814967,0.0179915340359259,0.00863962035046963,-0.00553853847146776
0.0550216353180018,0.0236632365633433,0.0167563889162672,-0.00807721166019346
0.0403178865401244,0.00838326777928658,0.0215879535077358,-0.00957367991035782
0.0121619716294705,-0.0139615784718569,0.022459317695238,-0.00825442904859725
0.00353270442043955,-0.0141599273135723,0.0216534007252824,-0.00441759319450317
-0.00610975867258993,-0.00583091891643152,0.0195652085344561,0.000244843235957793
-0.0247241310529543,-0.0142225707557594,0.0125266556065965,0.00430787602697556
-0.0381026468785885,-0.0437152883631382,-0.00242225305961984,0.0069293714755235
-0.0368193954246967,-0.0750101004843628,-0.0160902875628815,0.00775637602828605
-0.0279338403218307,-0.0800037141677527,-0.0193027029525321,0.00735331196902755
-0.0270891348666486,-0.063215664604991,-0.0176834747574884,0.00622354170899898
-0.0352360609168253,-0.0558621497181003,-0.0208877570470597,0.00447945196844157
-0.0322759851326357,-0.0717057063528384,-0.030028145268358,0.00286339680887754
-0.00645280534098386,-0.0972131019358575,-0.0369045805264322,0.00204176398417853
0.0305220839471517,-0.10391072416715,-0.0335038105815756,0.0018776140875562
0.0507032832913543,-0.0628450199365474,-0.0198073738684331,0.00166759299267924
0.0271255250838269,0.0412029268502568,0.00277122644999753,0.000446606831952143
-0.0354633354775658,0.181617911488105,0.0286602514311917,-0.00249376826304817
-0.0904997323052453,0.246462226313131,0.0404158342573456,-0.0063739750443142
-0.0962491613157295,0.158746520418042,0.0273709828985515,-0.00868512344125769
-0.065590110245507,0.0180963522719389,0.00356113320129575,-0.00766584336044807
-0.0344240232602476,-0.0571112337727089,-0.00979129306904895,-0.00406449749441516
-0.0087116797467554,-0.0716627458767689,-0.0100361927397218,-9.30869004062175e-05
0.0100620176856606,-0.0678301491532336,-0.00674966672758165,0.00246179070385467
0.00589737626371076,-0.0554464717589098,-0.00366285554790426,0.00329742414359837
-0.0155630414215683,-0.0294810087229434,-0.00549213178019656,0.00298524470477404
-0.0328748886403216,-0.00547557186772723,-0.0139583980342446,0.00221811966095935
-0.0416218790401411,-0.00447105363399057,-0.0191673176101692,0.00168336501161431
-0.0420605879279519,-0.0114901477845179,-0.0146677253531289,0.00142629378871051
-0.0306129718621117,-0.00714881933820358,-0.00550152917886273,0.000645581693913113
-0.017274558648978,-0.00966584804787001,-0.00238785164472621,-0.000827304952573232
-0.0102228201446357,-0.0347254985344349,-0.00706484619952881,-0.00143253292175723
-0.00575002235112862,-0.0557805928802049,-0.0114946344051603,4.26312516678723e-05
-0.00551949987726259,-0.0427306074554586,-0.00964155043939546,0.00251227872469616
-0.01074189396896,-0.00302357289173178,-0.00295437933665353,0.00402204258045536
-0.0143936373319984,0.0327690780019758,0.00254273843872128,0.00388232728988232
-0.0118064600438232,0.0404479823484682,0.00613992018418863,0.00268936604730316
-0.00556620478627687,0.0264224658519931,0.0114490769595204,0.00119315335951851
0.000890995464296255,0.0129587690908731,0.0152678740316897,-0.000100665838574235
0.005574741426799,0.00818531475426564,0.0151233768454828,-0.000818254774585317
0.00608198233767559,0.0130843106588986,0.0168405196158345,-0.000879058007256828
0.0103643851701635,0.02499642597081,0.0211553601567344,-0.000786704380124296
0.0237244496624893,0.0344226767035012,0.0224157829896481,-0.00108888395225254
0.034466868428404,0.0362870237523678,0.0212146874220114,-0.0015724089560986
0.0362133953384815,0.0359372723514147,0.0229832726694253,-0.00171120860386107
0.0309617463182262,0.0374720379944261,0.0265061821373318,-0.00159339205163447
0.0213024066842754,0.0370387297565505,0.0286932527453089,-0.00184592718146659
0.0120755687294671,0.0267533946983181,0.0243505573429977,-0.00290239995177687
0.00172433841082031,0.00613953236041841,0.0115552076197727,-0.00380083520354024
-0.0132713466801588,-0.0181745092020471,-0.00126567016612106,-0.00285460308306921
-0.026244958154531,-0.0420745459460534,-0.0135954661452022,-3.42728662232894e-05
-0.0279481961349919,-0.0522539937262475,-0.0263656461682063,0.00338587702903641
-0.0159767100969886,-0.0451526675817344,-0.0296168617314354,0.00617612026891648
0.00691192556911513,-0.0481587502052997,-0.0201051074246925,0.00713534938202092
0.0289311703488894,-0.0652043920246828,-0.00929391600099943,0.00612258613762089
0.0383407012300161,-0.0561403204882979,-0.00242519892090206,0.00461656095165478
0.0426375581219862,-0.0066196637572393,0.0100770571532515,0.00345893974566996
0.0464283087838959,0.054212217890779,0.0301815867591303,0.00143443511765186
0.0354685721393113,0.101195876241731,0.0463759226753189,-0.002655922301289
0.00391974913710915,0.110945841158193,0.0454949260524967,-0.0069508162923977
-0.0263893130567329,0.0480157240898808,0.0216822642668178,-0.0075838514736941
-0.0296694689838448,-0.0580005307590356,-0.00568063130259303,-0.00306684424666647
-0.0124602779210615,-0.121044652180384,-0.0128828897065006,0.00349885054111506
0.0024231616378175,-0.125655367623103,-0.00946717750240038,0.00704044610660926
0.0106814385960319,-0.115196536750557,-0.0124585267229289,0.0058917678072427
0.0140480338419873,-0.106939938271032,-0.0188370826958047,0.00246887467838251
0.0157531804474013,-0.095528433740366,-0.0221580528589641,-0.000497352076186359
0.0211389082594441,-0.0761142706996045,-0.0212416316326309,-0.00163231525399307
0.022817802863396,-0.0380785838414172,-0.0106240638637481,-0.000906270986274803
0.0163224019445936,0.0268755154890546,0.0137431705008509,0.000130309481802122
0.00857939617133003,0.0912236856175006,0.0320332393292248,-0.000857009086352802
0.00835011018094536,0.0988590496803905,0.0226935383325303,-0.0042323077076087
0.0108467345939754,0.0575775730072719,0.0054134082478947,-0.00716950311718088
0.00277418399127825,0.0298928042952309,0.00136024461852554,-0.00709680342543673
-0.00996935292108581,0.0403661440646923,0.00817288441422133,-0.0040544302344184
-0.0149807346692047,0.0677906575495934,0.0205701393343859,0.000735489438250686
-0.0140449389672345,0.0719130827929889,0.027978440554402,0.00524097410382065
-0.0106243815688139,0.0508094005961474,0.0315069898897891,0.00683892520572118
-0.00635972490532238,0.030182589834971,0.0352122957710342,0.00484639807261676
-0.00588372549638438,0.00743919839262841,0.0325063587593346,0.00214755155917073
-0.00760310835366011,-0.019155671801565,0.0257993608258476,0.0027803886923033
-0.00084174132082494,-0.0358504640535145,0.0185501677368175,0.00763160409273144
0.0158218027373964,-0.037809697199774,0.00782333967098414,0.0129778724824671
0.0299392520103194,-0.0296625985054079,0.000134407785899196,0.0137695868512097
0.0397537436386544,-0.0192383290878224,0.00554658816689766,0.00805090443519249
0.0480046537767287,-0.0165504941443314,0.0146264505065027,-0.0019419052787271
0.042271738772591,-0.0271503034073265,0.0128572833733675,-0.0117885015073931
0.0236449827631386,-0.0331825441143686,0.0112687759784385,-0.0174290140520553
0.00384298556214614,-0.0072951004099721,0.0229864508315838,-0.0172669685632722
-0.0162527360563204,0.0415860588684224,0.0375179842339955,-0.0129392044381404
-0.0280836238308855,0.0733520618779464,0.0413480728009799,-0.0074078971357377
-0.0263519512087531,0.0690727007273843,0.0384746202972748,-0.00230510745676577
-0.0200266601879253,0.0498064040826943,0.0379992328293004,0.00219945379401482
-0.0118050192983697,0.0376266683740952,0.0389191640764957,0.00576036882118759
0.00171865204745091,0.0339159218100236,0.0396535395819909,0.0078257043407394
0.00553404265487172,0.0381493330553812,0.040523266397125,0.00840017232019318
-0.00823863053107956,0.0569183069978171,0.0414358017638785,0.00795833435621599
-0.00528530529434489,0.0826025502294156,0.0435146305965291,0.00707149156383768
0.0209070518182562,0.0880433454286856,0.0448980411294071,0.00564699418474917
0.0286653952174268,0.0676217088910028,0.0416246063186475,0.00308446705596145
0.0195281854976479,0.049003093039576,0.0358822205775781,-0.000859979762792628
0.0197242496437943,0.0497385301686849,0.0310610214032505,-0.00655481543089223
0.00631018465746471,0.0539631914063661,0.0243669198100745,-0.0128900298341146
-0.0233176462319266,0.0449385310798283,0.0127784811490359,-0.0146684649270913
-0.019153857587153,0.0199167687874453,-0.0110147095360491,-0.00782111894419621
0.0186727927926382,-0.0129732749680269,-0.040232501351274,0.00332956655853551
0.0420404330032923,-0.0281172424103408,-0.0461533790387415,0.00891728907829778
0.036156134303371,-0.0155534411770138,-0.0261228580877091,0.00419571086427664
0.0207046094213548,0.00133081881461404,-0.00914803882465934,-0.00483590642677705
0.00755861138406284,-0.00489139885975814,-0.013773353614293,-0.00843309481548093
-0.00405438125001547,-0.0340989290280618,-0.030111120230289,-0.00322433081146884
-0.0100310401683672,-0.0568723471802494,-0.0370489688808223,0.00563853390694914
-0.00590927526812875,-0.0525900271202551,-0.0276206203266786,0.010656801364765
0.00428936093371706,-0.0341689546000843,-0.010430573026625,0.0104053686305863
0.0136558578920182,-0.022576834399288,0.00273222406218754,0.00968045272532706
0.0150655746428926,-0.0211773329431676,0.0045035783357049,0.0119141779162677
0.0111665023092652,-0.0217091966121191,-0.00103140404268584,0.0152566425561116
0.0128659536161145,-0.0195779928650943,-0.00581764964079837,0.0148211829964532
0.0157399858207739,-0.0174943788047473,-0.00969211052678857,0.00816455518546197
0.0131271497677947,-0.0167273023302468,-0.0137146245184902,-0.00207942605244272
0.0100729010024533,-0.0149729514283049,-0.015839575102435,-0.0116336601938966
0.00940773838730012,-0.0138150153625418,-0.0180133040447509,-0.0176851002313851
0.00420320760431054,-0.0133225555534297,-0.0254857261314524,-0.0193531080895406
-0.0038809216442154,-0.00809006416060552,-0.0332505395146914,-0.0172054058169629
-0.0024540741407607,-0.00330954908007767,-0.0338294295303994,-0.0126353189304387
0.00186243930463455,-0.00709216618727631,-0.0322237898512419,-0.00724315506520438
-0.00983430947801809,-0.0159849824573265,-0.0322229262778377,-0.00227790671226267
-0.0237591135352335,-0.0201333033383306,-0.0287711394654527,0.000986352808975504
-0.0115362435242967,-0.0152931667213025,-0.0225748534771608,0.00190677537417407
0.0111375170036684,-0.00848330185154251,-0.0191764499872052,0.00173172427232061
0.0194210604006769,-0.00332142655045992,-0.0187586331372731,0.00284147680429298
0.0207993165622933,-0.000508498122679186,-0.0171106261418532,0.00643497388123008
0.0203988373986393,-0.00517817764744851,-0.00937008492488163,0.0105058229056573
0.0162206216869684,-0.0142152695742085,-0.000696264328983051,0.0118086440981989
0.0151698500458745,-0.0227775077282717,-0.00186936082874151,0.0100562693045289
0.0166264525667394,-0.030918550752155,-0.00669800419002839,0.00734337731391991
0.0141723108436718,-0.0338711851560988,-0.00342916728422361,0.00476119669154289
0.0106811489435129,-0.0293036398304062,0.00452780462225351,0.00199538044911171
0.00833092247183438,-0.0247467786647926,0.0101356726296695,-0.00152309934394841
0.00587722853400692,-0.02827159976293,0.014534377744231,-0.00549718101875431
0.00878310312279034,-0.0376136323363895,0.0217696230341591,-0.0083296616522418
0.0182658519684145,-0.0419005003955682,0.0318815262709316,-0.0088377581154292
0.0220069511364111,-0.032734594800104,0.0387207929039009,-0.00767623257429768
0.0185958984648504,-0.016568995451341,0.0366781229238241,-0.00619610869715647
0.0192424777532587,-0.00514925285899297,0.0305116430190477,-0.00475423219355639
0.022757997009242,-0.000190859652098765,0.0272230010709896,-0.00252454644400288
0.022245170888703,0.00260620858046106,0.0280617667582903,0.000726454713416216
0.0182621859525723,0.00867809176187704,0.031639207609602,0.00304002861157517
0.0131814598470101,0.0166831370894227,0.0353561185011771,0.00237808954796924
0.00164950888967735,0.0254536156835731,0.0399201229299206,-0.000694984949910499
-0.00828616085103215,0.0397246760907514,0.0435557281274693,-0.00366814774246879
-0.0133699841651412,0.040780336600751,0.0366810207180765,-0.00443097445102969
-0.0352181848721547,0.00608231729270276,0.0199236806596938,-0.00240362584964637
-0.0501627489564266,-0.034176218125452,0.00716649253197449,0.00116484998548151
-0.0215530038619397,-0.0389224064795877,0.00487528306314687,0.00305713033804156
0.0142932713261804,-0.0187417069684733,0.00766818257176145,0.00138581317784901
0.0111639217878165,-0.00405932731740544,0.0095361136046413,-0.00200855496707917
-0.0179087538054145,-0.00281408447330657,0.00716007881259484,-0.00490604122416391
-0.027932114220642,-0.00369981316033239,0.00395948542418438,-0.0061302621287504
0.00214348820364804,-0.00475154199693552,0.00284958786668402,-0.00441877660778421
0.0426767259182328,-0.0141143954852206,-0.00256624608799224,7.71613802789204e-05
0.0568115119261783,-0.0255770842362502,-0.0120386663337018,0.00521521098033013
0.0457181742292802,-0.0330310216251173,-0.0179240609477096,0.00803146567878191
0.0266745056837049,-0.0513485240218083,-0.022666339402817,0.00666267499331622
0.0183376266841005,-0.0784524196435712,-0.0280162718577035,0.00247761858505819
0.030502799026784,-0.0817630279032841,-0.0254652695656427,-0.00159526355789556
0.0309808684793756,-0.0542741494241362,-0.0190155567606629,-0.00394966458048455
-0.0151967041399689,0.00305822089328416,-0.0177039250878324,-0.00397637481895072
-0.0744498337023897,0.0665615778599879,-0.0179359768974224,-0.00185693184060598
-0.0841738099662735,0.0764277287258183,-0.0178195202480235,0.000981909177751307
-0.0452190255997627,0.0416073540276797,-0.0234693612927064,0.00289586125884861
-0.0113358565832103,0.00645736842020667,-0.0361610234802248,0.00331368050871699
-0.00373640686457394,-0.0183272256288424,-0.0457885007815016,0.00299344021569966
-0.000989078903791647,-0.02048591893507,-0.0460648947187431,0.00268199017949078
0.00229821822211355,0.00846633949079157,-0.0423757476799359,0.00197251202125947
-0.000546956819645972,0.0361928053037319,-0.0404160503265659,0.000669192183695043
-0.00185289190288299,0.0204591825149002,-0.043025837762872,0.000422534589649351
-1.50350782640637e-05,-0.0245075214766086,-0.0469480899569496,0.00241678722863572
-0.00252463797374232,-0.0555190321432553,-0.0445472844866829,0.00478411967525121
-0.00529721456863903,-0.0579245511655122,-0.0418262259098806,0.00526321280427494
-0.00439632863071089,-0.0496179392667251,-0.048828637694781,0.00434894266600211
-0.00651819594063493,-0.0441759136200135,-0.0568157433836535,0.00413683245024681
-0.014560179883307,-0.0218899430638194,-0.0533925005422265,0.00473655520790721
-0.0241542347016492,0.0284497610341835,-0.0399654790667002,0.00357111352088649
-0.0250093759974784,0.0679567018144583,-0.0263984427562496,-0.000738076264843029
-0.0163799641107392,0.0592189893551006,-0.0247211799939565,-0.00618190363469171
-0.0120905022969209,0.0241233388738533,-0.0321432502645242,-0.00950652740950697
-0.0168351019394452,0.00208894461193664,-0.0328877961893006,-0.00937766270844878
-0.0194951835247193,-0.00235487789848426,-0.0216737197443468,-0.0074297682171903
-0.0141821391530357,-0.00687927426243232,-0.0063549557595928,-0.00586380471582362
-0.0102135025082307,-0.0179239892283633,0.00326763220989715,-0.00489482012445337
-0.0109269383934526,-0.0246974367207278,0.00646527468889351,-0.00340313576086907
-0.00944004794782026,-0.0207407969532611,0.00697724282507527,-0.00088773113931412
-0.00666774616127529,-0.0201280867739369,0.00254887138285984,0.00170893954261241
-0.00789680192902086,-0.0282017551890826,-0.00618370732996877,0.00344182446631124
-0.0118798906210232,-0.0337874509995936,-0.0144408802103005,0.00483647744550424
-0.013436956805164,-0.0466252289315876,-0.0201945458457982,0.00653661254520114
-0.0135691827027027,-0.0635204704164843,-0.0191799595815897,0.00796404095396527
-0.0175200879936651,-0.069377592396484,-0.0166562136009112,0.00771013326447387
-0.0187549112733219,-0.081531626320001,-0.0253574936540699,0.00537397778476303
-0.00910543367878311,-0.095936197728606,-0.0346555721034057,0.00275191381113736
0.00333115948846579,-0.0848197156139221,-0.0278806427332893,0.0012886227062931
0.00626699754675249,-0.0607346195731758,-0.0111989731442673,-7.06033660646281e-05
-0.00360860968397965,-0.0477196463997026,0.00808325718346323,-0.00294415094174061
-0.0202087079517643,-0.0571293353242048,0.0196521517744721,-0.00650048518305185
-0.0311248232794502,-0.0826187599742066,0.0128079363090671,-0.00763575451740436
-0.0120691879170135,-0.0803789943617384,0.00434568469048764,-0.00513355058118335
0.0268162108212281,-0.0119588862971347,0.0172845150807555,-0.00176585009021392
0.0173044003854923,0.111017057597973,0.0478978192566063,-0.00092386785256931
-0.0470548355915572,0.212964068816102,0.0705788400312248,-0.00289582535659601
-0.0952704122687559,0.234356412159277,0.0763511738878691,-0.00519049744882046
-0.0891779182283392,0.18892595631494,0.0698131938888011,-0.00567550067467016
-0.0380915861199069,0.12026764745291,0.0499661801418671,-0.00411365707302057
0.0134089623542353,0.0713444225361446,0.0318776864992419,-0.00155223788381437
0.0273131356107949,0.0285783087108152,0.023582440595484,8.78657354827016e-05
0.0205360677951875,-0.0370198288990245,0.0120972959996099,-0.000494236896273047
0.0169042608152607,-0.0948189280889703,-0.0044180156299877,-0.00222904965505126
0.0194874181493577,-0.112068623734771,-0.0195923095461765,-0.00304278493545053
0.0284528145132471,-0.0983446158462078,-0.0327576414765645,-0.0019046813033796
0.0392033916062351,-0.0728248950459008,-0.040444516150443,0.000937851860329578
0.0389027492687387,-0.0462345765539113,-0.0365721743797097,0.0043339241698724
0.020713002137872,-0.0234377685051496,-0.0238343840751799,0.00694715630527042
0.00113861231191198,-0.00299258009420184,-0.011027220700823,0.00775505523186606
-0.00454586144146427,0.0144076500315626,-0.00224684085927802,0.0063097207408206
-0.00650930310509279,0.0275276960661642,0.0028861089042987,0.00288564619507601
-0.0254565956484727,0.0411979079018566,0.00607082887176773,-0.00137366868831089
-0.0576531489071665,0.0614875854091885,0.0120537922515626,-0.0051421159524254
-0.0647579742079704,0.0797932341627771,0.0186913493380666,-0.00789524673570518
-0.0368610087698463,0.0711070693329151,0.0161989933243557,-0.00903059595385738
-0.0115027952106085,0.0306742149256534,0.00569544851272938,-0.00689503615278126
-0.00432175818207452,-0.00122869832052579,-0.00147511925057376,-0.00113098270271849
-2.06023532787359e-05,0.00929637203164983,-0.00146469465517204,0.00459190298907876
0.0079313692855304,0.0408738741044607,0.00155714662064804,0.0062530370699566
0.0134402730276948,0.062812473366995,0.00596830074522016,0.00415107271904127
0.0134300759849966,0.0709043264013714,0.00972076656458042,0.00142117432381257
0.0110377399325616,0.0699647876908107,0.00588523484623574,0.000711853917830148
0.0106895901694611,0.0714454735944931,-0.0012627782666934,0.00274840723930235
0.0155195691233473,0.0774092557753379,-0.000206791324999035,0.00541914798291261
0.0221822109004005,0.0673811453592617,0.00183696727336761,0.00500406185014882
0.0261129299583297,0.0439097570569627,-0.00261030969108725,0.000921153249621546
0.0276681406992071,0.0468255181565903,0.0034258138651172,-0.00418906882744949
0.0239510690235736,0.0586824831657154,0.0195924914054953,-0.00905596969152964
0.0106183176717842,0.0191109725707156,0.0120187239531553,-0.0119431183975951
-0.00720756018599931,-0.0385942597874791,-0.0168371709962277,-0.00896665644401953
-0.0179007635908937,-0.0464432413170673,-0.025140160909668,-0.000789640034630473
-0.0144652409282838,-0.0208916657496383,-0.0062735852220804,0.00595862549911968
-0.00385700242550134,-0.00635548441160377,0.0112541021626792,0.00684493185724307
0.00184008653359924,-0.00977434319782251,0.0155566260617376,0.00383099861255143
-0.00106410774931857,-0.0220933841727382,0.0155490708114238,0.000924886235005981
-0.00495173353680893,-0.0357130588983229,0.0164164651960149,1.01266672352428e-05
0.00167930770470197,-0.0404415665080248,0.0194293545852385,0.00101476790158918
0.0119144393764535,-0.0240374581300462,0.0269353864558413,0.00264699397819989
0.0116513703967764,0.00958728822679712,0.0378913876329367,0.00304389216908258
0.00485624163992327,0.0359782138853045,0.0484279112971102,0.00143975461868498
-0.00379416918139755,0.0460999002005324,0.0492136598497787,-0.000616926726027576
-0.0181848599434963,0.0390298501592593,0.035382077755541,-0.00057763943807361
-0.037553608076503,0.00982802831081298,0.0192583456933904,0.00223675311226604
-0.051446603111938,-0.0288002188102765,0.0100174477403939,0.0057135746555648
-0.0461527360108376,-0.0487273276004358,0.0071083319836634,0.00735772210561991
-0.025912599218884,-0.0333697836254011,0.0158515452622361,0.00613007921645496
-0.00620374974230008,-0.0114717681974719,0.0274561214077223,0.00228122791172167
0.0131247913171468,-0.0167993027666209,0.0227643975850134,-0.00235465297513753
0.03096749669252,-0.032745210121698,0.0106253999101651,-0.00546512516441418
0.0326934474458755,-0.0350904391601759,0.006276040992778,-0.0064006800897147
0.0200857775394009,-0.0313661871188273,0.00445202056545666,-0.00559083738096614
0.0125313655479394,-0.0310003884617319,0.00200881332539668,-0.00343184643600148
0.0096210510211486,-0.0226210648323141,0.000703857686107828,-0.00091097220886904
0.00684845124653649,-0.00458043248304016,-0.0028890693059384,0.000830559835157751
0.0140113048242481,0.00873717688417566,-0.00417991464826132,0.00161782078132724
0.0166944138262068,0.0184337827249178,0.00224373751718363,0.00161482401454902
-0.00257634783199037,0.0209675541247247,0.0111053501853293,0.00107845385668055
-0.0275353989073923,-0.00226601001031537,0.0154671540433239,0.000912106971719692
-0.0410165749610496,-0.0477193115772544,0.0106980720432308,0.00193268538782345
-0.0523599121589083,-0.0841245736830707,0.00260308807681402,0.0042128226571478
-0.0654734528024292,-0.09107734572807,0.00168032629162513,0.00665808000611076
-0.0640546550804308,-0.0777021861202196,0.0062701241170821,0.00748357104998006
-0.0639221341371179,-0.0539170272314263,0.0118997369915113,0.00647396000059536
-0.0859234190957978,-0.0193203395423841,0.0192782208135627,0.00491843818445312
-0.0853528829695574,0.0210026832653454,0.0276013089254466,0.00310177717384423
-0.0251020214099477,0.0579425228783485,0.0325331017767007,0.000349944867695532
0.0491363555075144,0.0791136379277052,0.0272206327921322,-0.00311502503771257
0.0833329993098798,0.0845585394779744,0.0134198608455714,-0.00606005854174205
0.0801622823171692,0.0971014939218412,0.0048855376312907,-0.0073584188679884
0.0590827111696051,0.0974621304313132,0.00194811893338925,-0.00667350586979467
0.0244830188803948,0.0502162865603107,-0.00816961170968259,-0.00424315836174549
-0.0114535636150352,-0.00700856120320224,-0.0208887864571439,-0.000821086212218903
-0.031535837162898,-0.0350812955406701,-0.0247811347879563,0.00191011392547905
-0.0380207403097503,-0.0460297497605929,-0.021343665953345,0.00240724422774374
-0.0400241832030112,-0.0508336648405653,-0.017358793710948,0.000724367703800532
-0.0384501428155004,-0.0499736719635517,-0.0175180648323034,-0.00191290915251535
-0.0335115842195561,-0.0507386848817268,-0.0199574433012725,-0.00380916667372764
-0.0297516117731732,-0.0592681122070651,-0.0179670018317695,-0.00351158301856651
-0.0265445542689647,-0.0663317544823282,-0.0100699742261892,-0.00165172882034313
-0.0103963326168398,-0.0580223887483122,-0.0026519254887636,-0.000569136802063076
0.0149411250510722,-0.0362200439227181,0.00106546290323642,-0.000665929536400066
0.0219307866519351,-0.00602056287000854,0.00783328978745054,7.01348832146502e-06
0.0131136672781889,0.0389684421401314,0.023183220417532,0.00158454619202927
0.00870695058814029,0.0839645063552316,0.0392243714434413,0.00182329153380808
0.00267830187037476,0.089465044371801,0.0429482047168218,9.62602514324208e-05
-0.00690228718367953,0.0499955034779942,0.033317969167289,-0.00190820979709061
-0.00971459331947485,0.00723863277405463,0.0225682935755733,-0.002586786427062
-0.00846275406394211,-0.00607426229073002,0.0187986991202138,-0.00156094691249094
-0.00601094915353598,0.00281638474905396,0.0186871525457595,0.000298578507337093
0.00225497563685062,0.00899764128328242,0.0166642947193105,0.00185492112593035
0.0128218173980565,0.00206928860504504,0.0118313533320771,0.00253048395219728
0.0169756274992576,-0.0102995751704191,0.00815643017103559,0.0018367865431417
0.0153742754517197,-0.018180411955069,0.00680385190003516,-0.00036616418033546
0.0116286032638666,-0.0139216001848021,0.00577619152925301,-0.00353921810688839
0.00460630462549906,0.0014880041059504,0.00514762372812052,-0.00753114843220916
-0.00332289685670362,0.0173121531091034,0.00662334852090926,-0.0116845117503193
-0.0065456698463874,0.0208819888432261,0.0118119752700886,-0.0135299716509001
-0.00253861876914387,0.00952755296833156,0.0162829641989438,-0.0108700219510297
0.00482461414657633,-0.000841333067656297,0.0164051542387899,-0.00434520069142886
0.0103821763965899,0.00029892220802488,0.017049429061506,0.00261702621987254
0.0134928995770025,0.00580114022618511,0.0203215019694795,0.00702340385357307
0.0136501394423628,0.00942259777150116,0.0245907922290348,0.00870228517124252
0.0140057175013194,0.0110754810029448,0.0295931241874506,0.0089519512923457
0.0191665698836715,0.0112478904470155,0.0328489253667934,0.00863727429404298
0.0236013405605274,0.0100633509615459,0.0299212281983813,0.00783056665302503
0.0217165087788271,0.00779053663257317,0.0194947152353146,0.00638535199966134
0.0179352578846159,0.00413848268739094,0.007207416701341,0.00420626494747685
0.0163730290682523,0.00105410965697558,0.00029701154817325,0.00107909617444077
0.0160328085604234,0.000823638546142867,-0.00236495200658415,-0.0027793734790019
0.0151031778884103,0.000795763294111107,-0.00283652224458316,-0.00603115811004443
0.01422417622983,-0.00127057449198923,-0.0016996529080644,-0.00723500338797726
0.0151621183135246,-0.00235701145431831,-0.00293674818759331,-0.00638813371525131
0.015249037920809,-0.00157450213710406,-0.00521835039675194,-0.00429451827828259
0.0119665107364954,-0.000901131005513877,-0.00707045932013252,-0.00158788061089029
0.00892592617297072,0.000923182565707734,-0.00821903814667918,0.000770285332996915
0.00975903775337721,0.00206514391507579,-0.00685400865754338,0.00206151749709807
0.0135543553030098,-0.000148358069208209,-0.00687055549681397,0.00259059341511735
0.0155053606138778,-0.00293279679905136,-0.0109604427454556,0.0031800661168409
0.0141688000706705,-0.00425736376787507,-0.0138733543010661,0.00428514564042471
0.0135516100318565,-0.00476821466417643,-0.0122244381347712,0.00520890121062371
0.0136068970034071,-0.00700983433388004,-0.0102174474903106,0.00525037452403593
0.0104472787451057,-0.010659168807519,-0.0132352751618415,0.00499815897075634
0.00476864281426503,-0.0133065557574467,-0.0215213327704421,0.00504896903292511
0.000508238426243167,-0.0142756966775976,-0.031594563229062,0.00496253734851655
0.00140523458174816,-0.0124821323327847,-0.0422791311731399,0.00443561478500783
0.00695070399958481,-0.0103282164777568,-0.0507155022495124,0.00362180467994704
0.0120422508522648,-0.00991112941988825,-0.0527838526921995,0.0024727667450638
0.0142831001911606,-0.0108533378453517,-0.0499957842664845,0.00128522925738502
0.013149946637281,-0.011920766119272,-0.0444217602013754,0.000578425293190573
0.00978836041127209,-0.00974639849551628,-0.035954486378784,0.000394386302360599
0.00925194322743675,-0.00315991106324778,-0.0273784115746202,0.000388837456918852
0.0133501310492714,0.00579012293046582,-0.0218702508306978,0.000174598000316453
0.0158348196063813,0.00855555440732673,-0.0217906655477051,-0.00058981858261326
0.0118297270310393,-0.00514222318649407,-0.0255631593853386,-0.00200929864755371
0.00713348687624653,-0.0256374623676413,-0.0246846495745894,-0.00326835323471248
0.010952472461304,-0.031394001346175,-0.0167625176449254,-0.00331119376787968
0.0191806221618493,-0.0231266171319764,-0.00857295718716098,-0.00190784135826843
0.0228052326449143,-0.0173215408165153,-0.00494599654609214,0.00024787455376903
0.0243808241206848,-0.0163406811899734,-0.0059203257036664,0.00154448621603035
0.0280013284637677,-0.0105595905132677,-0.0081243785051371,0.00112534640828705
0.0269231575016668,-0.00397045118786239,-0.0101647032273355,0.000429122225420331
0.0156030958090074,-0.00548036423062859,-0.0132784669105024,0.0015614019682079
0.00386637330414264,-0.00567569314769292,-0.0157337823004213,0.00435386238344279
0.00118248898693276,-0.000648549233000801,-0.0152089139743664,0.00613705539512605
0.00604289277140206,0.00104298387814369,-0.0147793398327754,0.0051045338020809
0.00964064020489132,0.000327673759826835,-0.0194003609159197,0.0021599433169885
0.00418407010202393,0.00108846124429522,-0.0240069285215005,-0.0010278324748402
-0.00118085092114181,0.00469604995850075,-0.0229272286157727,-0.00356716942626036
0.000756112259934924,0.00914256495417911,-0.0214052625087417,-0.00504581326937464
0.00470269457862129,0.00808198477592342,-0.0248296730467599,-0.00553754429628538
0.0109003841997745,0.0010363797683989,-0.0358384175792804,-0.00554833343215699
0.0171550079842697,-0.00634052782617806,-0.0485278744306314,-0.00559819488842408
0.0161851138189724,-0.010829039037662,-0.0496390726272052,-0.00580102067839393
0.00571509716743268,-0.0128594147837451,-0.0386489947756857,-0.00574359692045995
-0.00987393816784761,-0.0146939957807816,-0.021582256659719,-0.00505393728319918
-0.0224257541624034,-0.0168054697577686,-0.00230054869735187,-0.00334401260173805
-0.0247754409811173,-0.0168998079842364,0.0107412030837509,-0.000619851021730922
-0.0171728443981701,-0.0142201258883983,0.0118425239093151,0.00220447859561423
-0.00589653341052829,-0.00827558087546376,0.00673205711698386,0.00410489676036233
0.00530622424771602,-0.000915089519323313,0.00385941874229678,0.004476997727439
0.0132456939811358,0.00471803007576125,0.00414737776063251,0.00336400893483988
0.0147337256678051,0.00936479043054396,0.00314788546168095,0.00125710587010623
0.0126683726803747,0.0111574786396536,-0.00138502703195975,-0.0011181357035404
0.00967758975871032,0.0105250128102347,-0.00575261910669946,-0.00307649980554263
0.00365667169235107,0.0172843772048516,-0.00704117842292057,-0.00452010234367912
-0.00324815763638947,0.0316665163701761,-0.00427678447471105,-0.00539162066781597
-0.00532104048714872,0.0374969034924677,0.00157286682778765,-0.0054895067163241
-0.00446565782378173,0.020628524443361,0.000444864060578214,-0.00473084366942086
-0.00574622565071239,-0.00396919996365251,-0.00745639084531884,-0.00299534082648711
-0.00987133879223656,-0.0166684340343508,-0.0102806317267752,-0.000660792805553188
-0.016266238929751,-0.023305925466518,-0.00692522662418309,0.000886177934441394
-0.0228529083378728,-0.0162847212859364,0.00142564564742908,0.000413175992260142
-0.0260694926477008,0.00497783048290282,0.00921985469570471,-0.00185188582823065
-0.023737532457996,0.00856255348288484,0.00531301609175003,-0.00463798442949267
-0.018884618466675,-0.00810235827027846,-0.00518001860713428,-0.0062028290458425
-0.0174333167534491,-0.0163168387946271,-0.00744476327154918,-0.00561520227151441
-0.0177477589011947,-0.00898323826394942,-0.000720804134828675,-0.00361738824545652
-0.0129519366676987,0.0012150099599952,0.00288399566936926,-0.000988032471063018
-0.00622046302353733,0.00691056201497233,-0.00155306859973234,0.00188775837151465
-0.00564616864636188,0.00820904493951311,-0.00480179589237256,0.00423315040068697
-0.0123340923481201,0.00837084545106957,0.00313718466208922,0.00512045423694116
-0.0199473120792477,0.0104633646286912,0.0201016910385558,0.00370151144267301
-0.0197490304255911,0.00823829726932934,0.0313497419012314,0.000472275820453083
-0.0118669438550779,4.41629856433351e-05,0.0329726303216638,-0.00225448427383399
-0.00709827336443892,-0.0118470592320007,0.0284769829007444,-0.00292688910322312
-0.0104658891042052,-0.0317354688319505,0.0133830457465251,-0.00124264535594856
-0.0110283701900389,-0.0436969978767106,-0.000659030884806899,0.0024516733133266
0.000483572525716392,-0.0300717153590509,0.00360835639344568,0.00565946590111872
0.00920255072393503,-0.00681944100072794,0.015663925051447,0.00591650580332975
0.0030454341501984,0.00806625000775051,0.018186790263643,0.00418025576358864
-0.00424195354252457,0.0160562218389474,0.0140416163996206,0.00271512286966064
-0.00452120529662878,0.020821338028496,0.0123431428856502,0.00174384493549565
-0.00380059465148847,0.0235656495151293,0.0145239983295331,0.00012859900535216
-0.00522915264788711,0.0238552993220361,0.019877091189902,-0.00222746472618677
-0.00793788924025179,0.0133137909058009,0.0250970961475444,-0.00444844698095479
-0.0071872657354435,-0.0119199609506336,0.0229257609586583,-0.0057139889206944
0.00233126874791641,-0.0282980365631038,0.0162349073649534,-0.00559656783410308
0.0163972990376877,-0.00923393788404926,0.0130381038564837,-0.00499325730253437
0.0207754837321932,0.0153180272410002,0.00725014454953922,-0.00518642304940932
0.00789344756749145,-0.0169092146135251,-0.0105432378764602,-0.00391553555296447
0.00149857867535633,-0.0737855041246979,-0.0252797215895494,0.00276611073717288
0.0190119818368676,-0.0520446957515851,-0.0228642728121902,0.0116004595060295
0.0346097163140015,0.0438304011825536,-0.019861427987893,0.0148599481090806
0.0327388354612741,0.100679310150187,-0.0236447863390936,0.0121692188252888
0.0223887182659832,0.0730873514949826,-0.021635029820558,0.00844445965415066
0.00521169488809377,0.0234962077587924,-0.0122923350060705,0.0060150504010936
-0.0123514886930082,0.0062485335263308,-0.000468663445335193,0.005264236359346
-0.0248831459698425,0.0185471209130399,0.00989878668354806,0.0053286092000849
-0.0305295389793592,0.0271286044099385,0.0120555227383345,0.00394263847280652
-0.0175747198208158,0.0185032626327028,0.00665079635367597,0.000233259456056695
0.00424703400979448,0.0049077131570143,-0.00339962525144886,-0.00413777434510616
0.0133512334205274,-0.0124823778146983,-0.0126970708461416,-0.00657699720559946
0.0139887640510542,-0.0375953064940462,-0.0096852251666425,-0.00657743855080455
0.0154401654383938,-0.057483832642684,0.000325987130880806,-0.00639806343650353
0.0165857557268398,-0.0544570820370354,0.00120365395395496,-0.00748366238606007
0.0188926902475501,-0.0419690390201498,-0.00767350385972026,-0.0078766495579676
0.0187296628943338,-0.0395233414338867,-0.0188909683723953,-0.00479093718656905
0.0115249528896174,-0.0334509159184551,-0.0247836634514914,0.00117802184566516
0.00562439248602688,-0.0172031827698218,-0.0210065929631916,0.00622848907032917
0.00243349637777827,-0.0144272498698423,-0.020457501381048,0.00795476278857414
-0.000695086925154229,-0.0191078465865809,-0.0251213704237469,0.0079741080528145
0.00210580310187078,0.003677924187157,-0.0156307687835812,0.00817919655532656
0.00769131309261102,0.0418914481987191,-0.000141341645202405,0.00765225829395804
0.00427026649256951,0.0546191769353026,-0.00284060363514388,0.00611349845774722
-0.0094638772065591,0.0379710924022899,-0.0197947097828943,0.00580899089662994
-0.0214596677813195,0.0141316988320894,-0.0317843222319518,0.00770718117079222
-0.0214242703878405,0.00171527058256205,-0.023678480183911,0.00931854962430036
-0.0148654588910293,0.015225092467565,0.00598493244797309,0.00667314141135832
-0.0173410057255514,0.0363711795651316,0.0297746724763163,-0.00116891560710655
-0.0216958010127558,0.0217114487890728,0.021754168512292,-0.00967120789515221
-0.00424575156214633,-0.0249727867535358,-5.65468261861241e-05,-0.0136733118327776
0.0214781407559764,-0.0587918732381366,-0.0109836676191295,-0.0131758435758352
0.022163880766236,-0.0771304999714148,-0.0194353446585337,-0.0110666602098752
0.00827086682533257,-0.109787613251534,-0.0267782396680333,-0.00763618496047191
0.00924564849612758,-0.142162264908637,-0.0259652753871557,-0.0021393478168115
0.0218575816428225,-0.133837259309308,-0.0230435312456039,0.00306849937513805
0.027709758371949,-0.0697920334601375,-0.0109667057295836,0.00431369462405519
0.0177105267094746,0.0253182725320124,0.0117084893426692,0.000704026089797636
-0.00202936492486882,0.0954811009061416,0.0291336824343207,-0.00475248443634116
-0.020615609951055,0.103828896421956,0.035550988509669,-0.00786787825535823
-0.0369454661380029,0.0760115890537602,0.0362106914339187,-0.00686864073944863
-0.0399491061094778,0.0450456420942908,0.0338617904566837,-0.00295313927163127
-0.0187800429774943,0.0135648262918616,0.0267268658983618,0.00161305330825429
0.00971027860600623,-0.00160207257439228,0.0181208242227716,0.00532652354456086
0.0151279013542234,-0.000239747249706171,0.0136289427407127,0.00749568775470604
-0.0120611905501806,-0.00727713400659133,0.0121457664472659,0.00790627129594494
-0.0344097584458297,-0.0165546842335004,0.0103579582021432,0.00703605624644993
-0.0215327329773676,-0.0103352596803492,0.00811819738434213,0.00506584370011095
0.00331204192979788,0.00844410388744786,0.00718422535142526,0.00146099491292898
0.0147750383295139,0.0252836089109243,0.00734080106126622,-0.00353698888412506
0.0128819555879876,0.0262862247055411,0.00628209175994465,-0.00814591387098745
0.002999037941266,0.00407411901265234,0.00311484720559023,-0.0102780886642643
-0.00522592316554988,-0.0167066929002953,0.000906568338606913,-0.00914043423460355
-0.00310872560591498,-0.0044747752536415,0.00392621538889793,-0.00632312960246978
0.0041263143978961,0.017550747886266,0.00868721789053525,-0.00447297798981994
0.00560792594018477,0.0219113396838965,0.0088820958799628,-0.00426152149661786
-0.00172666165410684,0.0222606805894554,0.00416753935578846,-0.00437660650973574
-0.0113452606151371,0.0261612240905444,-0.000141271615008521,-0.00308120929671586
-0.0156322906774612,0.0267770437698021,0.00192746117644363,9.83964883237874e-05
-0.0163705748847092,0.0308792399213652,0.00832376724284129,0.00340084159038349
-0.0156833889135819,0.0356457577553425,0.0120758296044558,0.0050402888812552
-0.009934869452017,0.0250413701924868,0.0116249949534104,0.00513835433609687
-0.00761690049724988,0.00323550998396651,0.0096290076161361,0.00484464245333526
-0.010819000813817,-0.00877452592580814,0.00824318622468677,0.00443680307347966
-0.00501814994079512,0.00594680017468906,0.0117850326869353,0.00331126370882163
0.00474579499923953,0.0410301997149018,0.0217318090355963,0.00140710084665316
-0.00104571929083191,0.0921091290268552,0.0315899858607754,-0.000860049282542675
-0.0204514265173807,0.139496154886577,0.0369810119656114,-0.00347308632425611
-0.0259281412283693,0.121457552557435,0.03683526202797,-0.00634407816841524
5.23459460253575e-05,0.0455248963976991,0.0302668514158381,-0.00796139108214921
0.0304992355384908,-0.0115201598686762,0.0247024974600806,-0.00684325342312937
0.0311557484136745,-0.0217656015916519,0.0238541223265987,-0.00405983564936832
0.0133791749710344,-0.00759290698595725,0.0193775579744447,-0.00161026278271081
-0.00505191463710989,0.00067746391151299,0.0119151279148141,0.000222958084084181
-0.0280590913287347,-0.00329769915519145,0.00810917493534461,0.00214213720969212
-0.0367932732150121,-0.00811271625458402,0.00575701007763126,0.00401452657535607
-0.00813711061902916,-0.00822162703531223,0.00381484864782002,0.00500513722397425
0.0299615040622867,0.0021579773445164,0.004508300560779,0.00504264386891099
0.0396481953830831,0.038373936453482,0.00969334342279838,0.00477378584979954
0.0258988563532907,0.0893722158190036,0.020779229783236,0.00406168908623434
0.0113367860392468,0.100114664193528,0.029021665331761,0.00242665856298469
0.00380903192988598,0.0612326779003177,0.0265961027892786,0.000731258530154197
-0.00114796499038086,0.0166627485394476,0.0215773029489537,0.000245591680351309
-0.00551059826079082,-0.0159443034898017,0.0218728635398825,0.00082268182784524
-0.00573090421141895,-0.036292114415294,0.0250123443914908,0.00142068285624102
-0.000175878110068067,-0.0375949710537954,0.0286493664508106,0.00129372935326284
0.0074963963959034,-0.0260366751240558,0.0325556761057029,0.000469514528529634
0.0155175305284509,-0.0167488560098715,0.0340675768794292,-0.000640331455950211
0.0256589778867946,-0.0100905192961955,0.0333136844456667,-0.00164235563087261
0.0313273191960163,0.00397681003085881,0.0356030257914359,-0.00219736177190284
0.0259993269711654,0.0279802256375056,0.0412889459099507,-0.00293775144365941
0.0195770464733715,0.0447533016915636,0.0423310403153632,-0.00464325975615731
0.020825084724883,0.0369483254621135,0.0348770539458644,-0.00633552675675432
0.0253044358913737,0.0200337619098581,0.0280679814099232,-0.00675017466306275
0.0274911444943293,0.0150019538995583,0.0278119319608343,-0.0061013774838542
0.0268456198850378,0.0141971172657252,0.0238706322219995,-0.00505800409985021
0.0265186193386999,0.00291938568294728,0.0150390208855881,-0.0033855327831377
0.0258234107984254,-0.00893028484537402,0.0148760110037208,-0.000471521687641349
0.0216866221893873,-0.00267851275092599,0.0226790124041412,0.00332923240796492
0.0176071487947762,0.0139825635697682,0.0240401023676605,0.00684147146863309
0.0183229128729661,0.0229185072730178,0.0137677674643707,0.00916716038252567
0.0254275266902168,0.0208964252907264,0.000903209060547482,0.0102988832878753
0.036250896769028,0.0138343379962254,-0.00474786293681221,0.0101488080472553
0.0413670151844941,0.00826084121085123,-0.00446334763006422,0.00827981816506846
0.0353590178230984,0.00683139457796209,-0.0044009733969341,0.0052461008640249
0.023179025367039,0.00647410341134069,-0.0040705801561159,0.00238801073942207
0.0134698673581066,0.00624368996412276,-0.00292628628720079,0.000901037531865552
0.0122088047105508,0.00789782948035734,-0.00220882389102975,0.000469687010814969
0.0152984946589135,0.0102527977488581,-0.000998003763222993,-0.000671600481095197
0.0145138827324488,0.0107465662818226,-0.002075135502758,-0.00271502457166549
0.0108663584019973,0.00820278185665768,-0.00718082653391186,-0.00409668350895625
0.00963929582745668,0.00290684606846867,-0.0132952085941624,-0.00431605024470931
0.0102021651913755,-0.00424339179598778,-0.0166868684975615,-0.00416362235021855
0.0116774465190508,-0.0081315338025105,-0.0141991759405013,-0.00400434297429208
0.0143665921509294,-0.00699484447840701,-0.00652915537830866,-0.00369339700048771
0.0166240035787514,-0.00766828569323436,1.93386101420001e-06,-0.00291619125402151
0.0188814632157735,-0.00936025388170822,0.00375011583626325,-0.00124124003064203
0.0215128103970592,-0.00702979843994421,0.00657634335245755,0.00125071712686905
0.0267487945905802,-0.00430395062960797,0.00616159494966798,0.00405918772663514
0.0304785266687856,-0.0043772700745967,0.0044657176978902,0.00644197130395341
0.0246155350961058,-0.00585081728209516,0.00461911646626005,0.00786664068589689
0.0182094684522683,-0.00997586291005269,0.00446652585960179,0.0082855735065969
0.019933423423777,-0.0143895434245119,0.00219557679268988,0.00781890851002358
0.0188794648036071,-0.0103966903483859,0.00136936556209521,0.00658779279601321
0.00778708173256073,0.00530257102031744,0.00462373276838226,0.00442262826589102
-0.00490702015758697,0.0294751144037287,0.00655088750192941,0.00158677920351999
-0.0121843677336633,0.04366116270145,0.000639184523789395,-0.000757347448715263
-0.00941485269351842,0.0274084555996889,-0.015360171457781,-0.00098063168087189
0.00467974409377799,-0.00504673320742435,-0.0346411748555057,0.00169472101361252
0.0152052870345075,-0.0221870393706021,-0.0435991768640716,0.00550360838936797
0.0128199990588705,-0.0152190474321939,-0.0408940387574713,0.00727272786059026
0.00963819150961175,0.00111715100374993,-0.0338037662923625,0.00527117289108994
0.00861564009719276,0.0110848706729195,-0.0243371433622981,0.000242287406316223
0.00379991883964755,0.0125665748139212,-0.014529529570047,-0.00521855125267204
0.00234842787426922,0.0107266701134989,-0.0065851796906782,-0.00818482092062736
0.00887848020278456,0.00562107216233838,-0.00297938836993348,-0.00755635709262414
0.0120369882193532,-0.00234240049128877,-0.00409126159509439,-0.00444825479773534
0.00365940757326875,-0.00637977615010535,-0.00468411156990186,-0.00087907738126085
-0.00806163031461847,-0.00412753067445614,-0.00188916071630475,0.00141118198716021
-0.0141406401941048,0.00171981675143532,0.0028754937199277,0.00199015980273146
-0.0154186413515244,0.00946106391575134,0.00648482293800536,0.00166811650578576
-0.0147947845597806,0.0166752032027731,0.00840081315036894,0.000873792688347755
-0.0135952383575134,0.0208549346133471,0.00951525625667242,-0.000641262990599594
-0.0159873767716967,0.018873723813542,0.0065476008402294,-0.00254910189442839
-0.021850157272272,0.00830808977970002,0.000396791844392848,-0.00406439136969218
-0.0174280314559562,-0.00473037154584832,-0.00347829977178077,-0.00471029421678826
0.0054380887444976,-0.00921108365003181,-0.00419320609310198,-0.00450964735545426
0.0302454282929649,-0.00326902508754208,-0.00445888661859399,-0.0039458512532571
0.0355796487878236,0.00802809648850243,-0.00583794906735571,-0.003268084624344
0.0211982939860894,0.0204817645694657,-0.00888586761585719,-0.00235606005514706
0.0048445580986061,0.026839402144006,-0.013455822364664,-0.00137775990291598
-0.00365924805713516,0.0256051950196942,-0.0148928956622588,-0.000688662113420235
-0.00907224949428443,0.0263879248165703,-0.0118948607622834,-0.000779906279108835
-0.0111949721610554,0.0297282421556256,-0.00859467336908922,-0.00177371373742703
-0.00693676724600964,0.030541044420131,-0.00332798307176636,-0.00299843968142509
-0.000442713910284151,0.0316213221579497,0.00152305471603617,-0.00418995425986349
0.00333758880716122,0.0287226280917523,-0.00328718378396937,-0.00526432052860108
-0.000448752282440986,0.018087533641966,-0.0103816789316096,-0.00495795821716095
-0.010175597463158,0.0145145406720363,-0.00563871011822744,-0.00293611789786648
-0.0200258302511486,0.0289718941063692,0.003474703621386,-0.0011762670619495
-0.0282843262225744,0.0408675396176227,0.00205946041519597,-0.000628437563149744
-0.0277748583536836,0.0221204053490412,-0.00735609608416531,-0.000463161259283554
-0.0138234847659837,-0.0213792697042838,-0.0142801799096865,-0.00059671788690629
-0.00600766349845555,-0.066715610722387,-0.0172970789237509,-0.00107268133642288
-0.0175575801024911,-0.0973661150900924,-0.0194795258306223,-0.00133239630449672
-0.0266847436261292,-0.113535840897854,-0.0220735191266607,-0.0014672157854816
-0.0182099470978448,-0.1250225574606,-0.0216328043443552,-0.00182313474573572
-0.00300256281368141,-0.119749508058711,-0.0142881691132297,-0.00235085249948287
0.00365679916908364,-0.0928441088356377,-0.00332049100500337,-0.00296680643507579
-0.000598109666846419,-0.0681345041139629,0.00346167082422255,-0.00341771035395253
-0.00991540343213566,-0.0491870493152672,0.00619017845324085,-0.00293039271441075
-0.0210166970804793,-0.0169992382368598,0.0130995471726056,-0.00146945900453344
-0.0198996503859751,0.0112202589886314,0.0142101841868553,7.63366446667975e-05
-0.00422865164469753,0.031448457668429,0.0050762582594609,0.00221928848949161
0.00591243352983947,0.0798728588852122,0.0115411566674434,0.00464674762289111
0.00548227666427769,0.121950427271309,0.0290809076914932,0.00426567252997158
0.00418554654204761,0.0978323625847857,0.0286844004343279,0.000925461649757395
0.00281079929545163,0.044221870138405,0.0171347055621468,-0.00181324823473436
-0.00658921483122547,0.028767876091171,0.00780356688335627,-0.00255038930833754
-0.0174205305558982,0.0367841983137298,-0.00381880725349606,-0.00182680432888824
-0.0190321704577555,0.0168168770496956,-0.0175331481339459,0.000413630714460063
-0.0225450269740086,-0.024072485648978,-0.0271795836225758,0.00344307632875074
-0.0328963909302634,-0.0389352718020865,-0.0321336397627809,0.00558791293563818
-0.0306193865272468,-0.0238224147478763,-0.0357492996034511,0.00616817640895247
-0.0137644626814622,-0.0197019405773042,-0.0378805672140387,0.00571168355657545
-0.0104991131010724,-0.0301283321095725,-0.0327687291020047,0.0047886855300303
-0.0284751859365,-0.0351996087187336,-0.0172773406704716,0.00344317155371609
-0.0395795343923339,-0.0388891319949916,-0.00171845454014749,0.00176980222233189
-0.0334965335508251,-0.0381899041824029,0.00530421678796066,0.000327152954735736
-0.0216711292632294,-0.0196780901165993,0.00873244957082172,-0.000434886511472492
-0.00320415089136616,0.00989907497600356,0.0121737539195306,-0.00080365703057116
0.0196514911522848,0.0272921847110445,0.0134848413517734,-0.00134913644883625
0.0305804565518164,0.0252500697925835,0.00993111453698734,-0.00202634101022103
0.0190301841345747,0.0173673597952635,0.00390769787345853,-0.00241517333507172
-0.0036315283269365,0.0121895142566764,0.00143519953289549,-0.00233813588144611
-0.0273694822471346,0.012889113281739,0.00221808162110696,-0.0015497339931752
-0.0476548881260484,0.022816299405203,0.00219478676667407,0.000349290355320448
-0.0451555000563006,0.0324847338562766,-0.00160524918971777,0.00318691134742448
-0.0189189964313687,0.0288002353449479,-0.00805434136622583,0.00589170383202557
0.000927495430116245,0.019878896054685,-0.0108795262654069,0.00709374228106205
-0.002629429254199,0.0181694671079464,-0.00712298173492132,0.00647792265966298
-0.0147246627036157,0.0229327355758621,-0.00106997138213638,0.00469293638031576
-0.0183365414785043,0.0342311973102164,0.000812286975013613,0.00197802110836626
-0.0170585279791669,0.0410265006666879,-0.00406256594047922,-0.00121623200719029
-0.0134842465837134,0.028724816425939,-0.0141488249083837,-0.00340425943779167
-0.00330135879635916,0.0144192266337267,-0.0219233847995487,-0.00282736228243028
0.00799624364425117,0.0176722433610106,-0.0188217946813672,0.00087850343245161
0.0106300109227503,0.0304363204489964,-0.00855868537678117,0.00497191361090359
0.00155552253238234,0.0497764698250367,0.00191547543629345,0.00539283860393173
-0.00528196057421606,0.0722326619046995,0.00949966169937693,0.0010920000226234
0.00405858390186917,0.0758284595381123,0.00861107759529626,-0.00464107756885808
0.0194124848755539,0.0579165690057166,0.00170396633471067,-0.00750119956212269
0.0291916844434354,0.031849596850188,-0.00430084544925561,-0.00634973079146601
0.0251996374488336,0.00345074958064677,-0.00855006032557702,-0.00363670242791888
0.00460769925967694,-0.0215522645446985,-0.00979935500219444,-0.00181192251029114
-0.00789266206631255,-0.0424114756694413,-0.00750333826706267,-0.000938521115076078
-0.0018619188123322,-0.0588515184822725,-0.0032015607212324,-0.000417802515389087
-0.0161703221830755,-0.0646497755649515,-0.00023023853757665,-0.000575017746072058
-0.0685033065453634,-0.0622703742919084,-0.00126980397425177,-0.00137845114241489
-0.0952374178255113,-0.0610054331807466,-0.00647269342973432,-0.00159180560653271
-0.0531519986654044,-0.0587895907324665,-0.0172102410409549,-0.000727290805933914
0.00096686455497573,-0.0514270143012138,-0.029830197483473,0.000348706556136065
0.0225176309155911,-0.0416788359636568,-0.0337222344752095,0.0011728696432448
0.0305440196620304,-0.0307672312473063,-0.0304069344405743,0.00190949085844573
0.0354568827200543,-0.021787987004203,-0.0333830165188663,0.00331184833065301
0.0284493971875964,-0.0153204909045835,-0.0384458971688587,0.00657432253177829
0.0104779109189041,-0.000775038528219946,-0.0314589479865025,0.0107895738398499
-0.0029114858716363,0.0228525131923442,-0.0169704247266008,0.012489294772238
-0.00224406292378707,0.0300517464678415,-0.00918545564132298,0.0093652557989652
0.00609260420186481,0.00760667225196771,-0.0116073724844685,0.00267163195422258
0.0148097942640513,-0.010671860330599,-0.0162157161179873,-0.0042717131387737
0.0161947087080945,0.00309657717818463,-0.0180432923295095,-0.00950577908669849
0.000901633233216364,0.0166286706308039,-0.0216139213105148,-0.0127167287255003
-0.0243006102537076,-0.00435333891389787,-0.0292516230595683,-0.0127946322572729
-0.0371361100673626,-0.038159809662889,-0.0341094065965575,-0.00901923649731948
-0.0289654125946109,-0.0546466734007086,-0.033272105892878,-0.00356982740420895
-0.0128849152317691,-0.0542834395682824,-0.0298418283464309,0.00021632438880779
-0.00428769428209873,-0.0483293217600678,-0.0228926322215922,0.00127696566482952
-0.00594895280508603,-0.0470961563766818,-0.0151971945107711,0.00162838547823856
-0.00773934107905367,-0.055132636435384,-0.0127609740180434,0.00390068670283329
0.00134436954453217,-0.0610820230149438,-0.0150350163462731,0.00766707356399924
0.0132618591374417,-0.0512659758815217,-0.0199205934979003,0.00995842542559606
0.00587404782349568,-0.0249314749414403,-0.0244027037641009,0.00908833161388198
-0.0194235833585075,0.0257043487082484,-0.0234735043148606,0.00583257037706163
-0.0347200292823412,0.0793532361213669,-0.0193430669705591,0.00210167292769428
-0.0292143526312913,0.0765907631557667,-0.0179080270299734,-0.000643958405584164
-0.0151212989144861,0.0265725989337748,-0.0174246837543585,-0.00190661244647161
-0.00610136128961425,-0.0120328709188125,-0.0164868553003797,-0.00167138567603949
-0.00760191121199634,-0.0264051520138138,-0.0183549717294968,-0.000222111020680874
-0.0107530824625175,-0.0305739199835966,-0.0192792994593856,0.00153077501464475
-0.00727444272038502,-0.028615361354962,-0.0146537463405289,0.00230577743602533
-0.000267627247707889,-0.0224688750510532,-0.00824564429544754,0.00139991337597849
0.00646399175364542,-0.0182082899077339,-0.00354807664562429,-0.00110563711311062
0.00574142513224777,-0.0195133376764072,-0.00118886804673837,-0.00438609295061896
-0.0105710859210221,-0.0291710527053029,-0.0028617658243966,-0.00672598259943506
-0.0316756995442315,-0.0435930657549503,-0.00726224791552298,-0.00617854274895038
-0.0379751283796299,-0.0459967400828422,-0.00787073311013993,-0.00253595185330327
-0.0303794563467232,-0.0303989493835007,-0.00564397077276583,0.00149564594342617
-0.0197117438276981,-0.00796826232876677,-0.00750296099815938,0.00308868106077283
-0.00974967884887475,0.0113320875087495,-0.00895934782182785,0.00276986426932768
-0.00705115914545059,0.0187601197558788,-0.00318330778534042,0.00264701561736603
-0.014088545030004,0.0214097252006169,0.00595998423205624,0.00267869440894949
-0.0241035930846742,0.0367447815161839,0.0143888638090434,0.00148100142314253
-0.0220416215549499,0.0469946357645861,0.0178172254501972,-0.000806930628131704
-0.0134262481217813,0.0268784950063506,0.010222147899069,-0.00228146795366571
-0.0130080257229983,-0.0163070466778566,-0.00619669880301576,-0.00166375725654143
-0.00184721181679382,-0.062314822721667,-0.0204969015328676,0.000488541841308469
0.0264775992373703,-0.0811109642376635,-0.0147406978861807,0.00253142534732299
0.0436389950008331,-0.0600654548491074,0.0150824564028737,0.00190025413996352
0.0383499747599274,0.00192297183920276,0.0489907899601171,-0.00300774599873334
0.0299304630793995,0.0765719537126737,0.0647157163229397,-0.010043473080312
0.02774267067286,0.0832583311828219,0.0554242960457147,-0.0145640072656075
0.0226023188135097,0.0291527932477162,0.0385359238300284,-0.0137243458958683
0.00535373857473311,-0.00620272591202001,0.0325110794067166,-0.00918620129097944
-0.0199925988175992,-0.0182794221121955,0.0308901761663542,-0.00462775837157269
-0.0324401290156886,-0.0195846798786035,0.0269990420856539,-0.00102413664271434
-0.0210794114681321,0.00698892030096725,0.0285863305193187,0.00220567119821578
-0.000181551749206465,0.0336010537074064,0.0311680421847347,0.00414103489324436
0.0119811729358766,0.0221472959829557,0.0264929527554879,0.00428458475389746
0.0119822217229382,0.00256037844738888,0.0243075711952514,0.00362442223168213
0.00751823307830311,0.00631639716451821,0.0295690108721729,0.00253647572792751
0.00283137326703981,0.0085378347143228,0.0269807207167426,0.000849648538292857
-0.00143131759882677,-0.00375519211915212,0.0134167060837804,-0.000192538493234231
-0.000450659181426432,-0.00690010452286565,0.0104957755850316,0.000360958114545203
0.00624200973541303,0.00140522544452106,0.0230056834193736,0.000763848343390299
0.0100861214067785,0.00196011979442863,0.029925790791874,-0.000593848180552249
0.00946901213655991,-0.0058108236661186,0.0232879126634339,-0.00331017616395419
0.0113964229493427,-0.0100743515869807,0.0174775705129509,-0.00661879552087391
0.0217549359497341,-0.00640980616800761,0.0208031612335369,-0.00937036311970837
0.0427191007161301,0.00370677048922855,0.0301742824909873,-0.0104483973174956
0.0628428236791816,0.00956781875124534,0.0377360223201264,-0.0101716057885564
0.0630228731180458,-0.00176646711570893,0.0348169807832884,-0.00868008629674285
0.0498408350374284,-0.0179525150547455,0.0232302566644543,-0.00440556646029236
0.0454762487266062,-0.0148808704333298,0.0113391809623697,0.0027927252100216
0.0469385567474213,0.00848565823221394,0.00586156886800548,0.00840887830411645
0.0389256029221654,0.0327690166324934,0.00676301225716981,0.00792141582000066
0.021771145014415,0.0448060526166984,0.0087822080549858,0.00304822618015477
0.00342042735355719,0.0495674609047076,0.00955378724805248,-0.000863121752283235
-0.010647395718556,0.0525009988110384,0.0101423153548097,-0.00103601858309703
-0.016670891095556,0.0446581965345278,0.00774335228658135,0.00129133072935616
-0.0155619273692797,0.0155186541750537,-0.00524152649965856,0.00421764581742494
-0.00815049025300125,-0.0202275880960669,-0.0217995295640233,0.00742240887943618
0.00465218131589153,-0.0342843321280617,-0.0229722228432664,0.00981049901081877
0.0189213060201933,-0.0185764005839438,-0.00993699943767833,0.0088676868608891
0.0324535682901063,0.0166854996348146,0.00521021011989834,0.00445112075415524
0.0418091378218569,0.0471045958025948,0.0166412883593643,-0.000740915133178014
0.0412220305245772,0.049487340721544,0.0194214171516459,-0.00414749589110525
0.0310601295012096,0.0278954867372545,0.0133694751157065,-0.0045448345116246
0.0222510730362142,0.00217580619689266,0.00930782959582765,-0.00229645847648308
0.0239290117189866,-0.0155609557176273,0.0175832613718664,0.000471301198758023
0.0252343093307186,-0.0281196832187028,0.0232286872940456,0.00140080142762256
0.0118503638193084,-0.0420931660773228,0.0136330985592872,0.00146730438798759
-0.00695808541665476,-0.049045526887157,0.00833916473440221,0.00323074647526711
-0.00979033723001121,-0.0374271644752091,0.0148196975020577,0.00512879920186452
0.00587940434371792,-0.0125045572206148,0.0197042702872008,0.0040057520868921
0.0193636456617109,0.00382986745120147,0.0161353088484458,0.000903383263528765
0.0210466152133201,-0.0144857320043124,0.00143104639052818,4.44791328166874e-05
0.0227643783098498,-0.0402930737158,-0.0144432522137785,0.00325138553935287
0.0328666315548635,-0.0215446409195979,-0.0193149522904176,0.00711961488668855
0.0436971480291015,0.0255926745932755,-0.0168354351198791,0.00746541705419998
0.0371001747489494,0.0534896498385987,-0.0180730885074478,0.0046887288601541
0.0116131420749791,0.0447937562258173,-0.0249304075400071,0.00264230985529277
-0.00860428044877015,0.0143046224601403,-0.0302669285862611,0.00362685711590081
-0.0103147834698638,-0.013257804107768,-0.0360572832250995,0.0060014109433475
4.49395663343725e-05,-0.0292171077904212,-0.0404015123226057,0.00650261879653429
0.0104402658357257,-0.0322392641117001,-0.035798505495462,0.00367927145856694
0.00569971362505854,-0.0226105030732187,-0.0280225953592746,-0.00121822220412674
-0.0171502448691316,-0.0181331921188505,-0.0237323432588409,-0.00548235133846893
-0.0377405579141569,-0.0385036068936134,-0.023202562816018,-0.00679719925734302
-0.0336562005722739,-0.0705624226173209,-0.0248440460719904,-0.00476221992540065
-0.00970280324434614,-0.0814540531306007,-0.0241153198864972,-0.00111385487798128
0.0103716222825929,-0.067037647536922,-0.0223600211329381,0.00164994717585654
0.0173841071403638,-0.0459590235817321,-0.0213976704686912,0.00238405955403052
0.0124678989894886,-0.0219072429177939,-0.0120868291347135,0.00172015905546213
-0.00297407776156071,0.0257400186884748,0.0118714832162758,0.000280226714753929
-0.0135107889125328,0.102096171676845,0.0398486018275611,-0.00184879848209769
-0.00676911726608643,0.153586524074544,0.0540247368662704,-0.00387364464009698
0.0128853047140614,0.134638370837382,0.0499135589133154,-0.00473494099853041
0.0317355954772464,0.0737993029825071,0.0381136173703481,-0.00441635694030871
0.0381253074892798,0.0214373183994217,0.0293371635180069,-0.00355055421500468
0.0348786164670389,-0.00336026825758859,0.0259504927790917,-0.00202492562357569
0.0296192769064162,-0.0175647537970345,0.022846971423091,0.000532715206863313
0.0251902143415414,-0.0471838080504763,0.0135754529685171,0.00326373283897683
0.0186324903271373,-0.0803933234203976,0.0033591502696195,0.0051677841386851
0.0101159385473949,-0.0928224785057597,-0.00131307047010503,0.0060324044642216
0.0141990647500903,-0.0907944530202049,-0.00617187261347077,0.00532959169226048
0.0339353506568149,-0.084253282182562,-0.0133895264329971,0.00243669493355453
0.050281880418408,-0.0684627636297072,-0.0154592451454055,-0.00171135348248576
0.0480350935471915,-0.0407328467309032,-0.00735681762390945,-0.00491709585978571
0.0305567496282686,-0.00462627002283307,0.00846595897654949,-0.00675914817224744
0.00579386442197989,0.0335013341914892,0.0259792968510699,-0.00960540157459279
-0.0293080506949057,0.0622673634438531,0.0372940818856957,-0.0129082445945688
-0.0531907451709133,0.0654625666484856,0.0379473641295193,-0.0105930949057396
-0.0351109418317527,0.0419970825296235,0.0330264607229817,-0.000579575726875
-0.00484177292440663,0.0282010727785362,0.033068081355316,0.00945739876470922
0.0025920381913129,0.0607851444895765,0.0438637320152858,0.0107772301042633
0.00876334150050082,0.132969007236261,0.0562780611934528,0.00306421148620839
0.0307730555196992,0.178279682991865,0.055584707596176,-0.00679935610284896
0.0444591173976733,0.134322767029591,0.042493648959387,-0.0122248357222482
0.0206965776921753,0.0486166575054969,0.0302217646489045,-0.0110187360542706
-0.0323345590579916,-0.00126395071602439,0.0258173516150022,-0.00455895964734885
-0.0613569341244376,-0.0137192878409904,0.0255670844262609,0.00336148083503739
-0.0335920099350348,-0.0178856630369006,0.0265219584631442,0.00808813515210359
0.0119210939306999,-0.019565949384925,0.0289119173468268,0.00777344468208044
0.0301741968905931,-0.00717054954516213,0.0293732045971237,0.00459987571911043
0.0278318921755066,0.0112260000523493,0.0274317641726588,0.00136349521288935
0.0273953438022206,0.0195808959177017,0.0277396520448244,-0.00180134470539037
0.0291437546120579,0.0209468780253233,0.028539605476425,-0.00578013418801723
0.0256862989532529,0.020487401152506,0.0257066465366039,-0.00898053555115485
0.019874856344754,0.0174142893165496,0.0192418671667997,-0.0086886441451281
0.0151628836571261,0.0234980457994402,0.0173214009367783,-0.00461233941588173
0.00722582751586206,0.0492689655243362,0.0273286542296769,0.00078838457905009
-0.00462318574886084,0.0633578067442316,0.0309939047429984,0.00474018658256983
-0.0107225009987072,0.0363370915931435,0.0106345642980291,0.006885715894868
-0.00805384076867319,0.00538213462327868,-0.0108221949183775,0.00821755284122524
-0.00605143028782156,0.00895489964631463,-0.0103880735706625,0.00809562150711086
-0.00853510155984359,0.0275805448061378,0.000100725682104195,0.0060200832226983
-0.0125397716761344,0.0395194137989612,0.00845207967118659,0.00355100381742544
-0.0160423868298,0.0474057943363797,0.0161592487274917,0.00181639505208189
