-0.13746,0.023012,-0.020458,-0.0090031
-0.13732,-0.020735,-0.016671,-0.0089494
-0.077804,-0.044291,-0.018142,-0.008737
0.0012501,-0.041026,-0.025879,-0.012016
0.044419,-0.0093449,-0.023252,-0.017207
0.047664,0.029543,-0.008251,-0.019547
0.039938,0.055181,0.0035259,-0.016289
0.036161,0.065364,0.0062758,-0.0081267
0.033183,0.052025,0.0058546,0.0022748
0.037084,0.027101,0.0015758,0.011421
0.048453,0.013827,-0.011031,0.018351
0.042252,0.0064225,-0.021327,0.02515
0.017871,-0.0058302,-0.020979,0.030233
0.0029317,-0.019602,-0.019667,0.02805
0.0047886,-0.02569,-0.021663,0.017936
0.011863,-0.017951,-0.020168,0.006223
0.0065427,-0.0044108,-0.012079,-0.0011045
-0.017205,0.0065667,-0.0025102,-0.0033031
-0.039063,0.019997,0.00093645,-0.0023663
-0.043566,0.037884,-0.0028917,0.00042254
-0.037176,0.043515,-0.0085522,0.004026
-0.023054,0.023967,-0.013956,0.0058811
0.0093048,-0.0023565,-0.016426,0.0029561
0.053723,-0.018748,-0.0090692,-0.0046779
0.086821,-0.031946,0.00886,-0.01246
0.10058,-0.044231,0.028917,-0.014833
0.093904,-0.049802,0.040544,-0.0092657
0.059105,-0.047771,0.040095,0.0025932
0.009188,-0.045776,0.03316,0.016539
-0.019707,-0.048008,0.024629,0.030725
-0.023608,-0.050671,0.010555,0.045789
-0.034671,-0.05724,-0.0041316,0.05761
-0.064822,-0.062401,-0.0070021,0.055551
-0.091903,-0.052266,-0.0043928,0.031913
-0.08365,-0.029325,-0.005176,-0.0065089
-0.029798,-0.01245,-0.005282,-0.042413
0.037893,-0.0096021,-0.0020862,-0.064084
0.089606,0.0018433,0.0027578,-0.071034
0.1205,0.019799,0.0056415,-0.069245
0.12412,0.015497,0.0057957,-0.065809
0.10839,-0.010173,0.006592,-0.062622
0.087958,-0.040734,0.0090817,-0.055494
0.069218,-0.058049,0.006661,-0.042656
0.058306,-0.053705,-0.0058674,-0.026288
0.041074,-0.033398,-0.020487,-0.0043226
0.0035224,0.0024514,-0.025015,0.026093
-0.030528,0.032282,-0.016371,0.057109
-0.037617,0.023466,-0.0050158,0.074659
-0.028298,-0.015051,-0.001826,0.074407
-0.017535,-0.046903,-0.0035295,0.064969
-0.01017,-0.04291,-0.00151,0.054297
-0.0079683,-0.018371,0.0056226,0.038895
-0.0052741,-0.033198,0.013431,0.013543
0.014127,-0.095859,0.017908,-0.014194
0.053028,-0.1326,0.018331,-0.03042
0.087633,-0.087967,0.013594,-0.030721
0.099453,0.020949,0.004538,-0.022918
0.098409,0.12152,-0.0042913,-0.016898
0.10207,0.1291,-0.0046055,-0.016427
0.1056,0.031608,0.0058705,-0.020803
0.09103,-0.087927,0.012408,-0.026291
0.058563,-0.15912,0.01335,-0.026605
0.046894,-0.16592,0.012719,-0.019375
0.074447,-0.090489,0.0013159,-0.0086819
0.05488,0.016845,-0.01029,0.00067589
-0.053363,0.022059,-0.006483,0.0075634
-0.11529,-0.10175,0.0048816,0.013115
-0.041781,-0.22596,0.017125,0.018069
0.091575,-0.24091,0.028849,0.023131
0.18646,-0.13439,0.0314,0.028796
0.2088,0.013025,0.022305,0.033607
0.16771,0.12707,0.0062231,0.035171
0.07894,0.22861,-0.0060686,0.032828
0.0045643,0.25519,-0.002917,0.027155
0.0070232,0.16927,-0.0012423,0.018824
0.03923,0.1091,-0.026705,0.010493
0.016711,0.056209,-0.0613,0.0055569
-0.085709,-0.077031,-0.071092,0.0039178
-0.23497,-0.16017,-0.052405,0.0027284
-0.33728,-0.10047,-0.021956,-0.00030845
-0.32651,-0.013351,0.0012945,-0.0052469
-0.24062,0.0035369,0.0075671,-0.0093641
-0.12564,0.018977,0.0002696,-0.0090784
-0.0030048,0.075387,-0.0090149,-0.0029534
0.080858,0.10219,-0.010179,0.0053921
0.093826,0.09025,-0.0060322,0.0083026
0.068911,0.091631,-0.004885,0.0026265
0.053964,0.1056,-0.0064725,-0.0063914
0.041918,0.096453,-0.0055061,-0.01394
0.021556,0.061476,-0.00092325,-0.021798
0.013478,0.023755,-0.0023681,-0.030647
0.0058296,-0.0013783,-0.020988,-0.035251
-0.023267,0.00060832,-0.048864,-0.032061
-0.055333,0.019752,-0.064551,-0.023396
-0.079317,0.016474,-0.059844,-0.012765
-0.10509,-0.011624,-0.045619,-0.0022448
-0.12344,-0.032121,-0.032533,0.0064199
-0.12187,-0.029789,-0.020942,0.01283
-0.10977,-0.009416,-0.010426,0.016376
-0.09709,0.015161,-0.0035421,0.01305
-0.079801,0.03648,0.00043927,0.0017128
-0.059634,0.068847,0.0023994,-0.010932
-0.049199,0.12769,0.00054018,-0.018301
-0.051265,0.18829,-0.00062545,-0.019463
-0.065016,0.21083,0.0016064,-0.0164
-0.083849,0.19973,0.0017913,-0.012314
-0.072548,0.15442,-0.00093165,-0.010728
-0.013672,0.04877,-0.00098371,-0.012516
0.055204,-0.072687,0.0093161,-0.014493
0.10633,-0.1277,0.027643,-0.013544
0.13481,-0.10683,0.034644,-0.011451
0.13129,-0.045006,0.021024,-0.01225
0.11929,0.026078,-0.00083039,-0.015286
0.12666,0.081252,-0.01662,-0.015646
0.13356,0.10507,-0.021469,-0.011086
0.10567,0.086721,-0.020517,-0.0037699
0.033597,0.049482,-0.012968,0.0034214
-0.052582,0.043193,0.0055318,0.0083843
-0.10474,0.048858,0.028982,0.010475
-0.11051,-0.0052861,0.050159,0.012491
-0.087769,-0.11059,0.065105,0.017574
-0.034993,-0.21483,0.07256,0.024098
0.046308,-0.28904,0.072192,0.027137
0.11156,-0.30473,0.06451,0.02423
0.14034,-0.28274,0.052227,0.018298
0.17494,-0.2571,0.039931,0.015264
0.21914,-0.21579,0.030128,0.018543
0.22586,-0.15419,0.019709,0.02405
0.17828,-0.066062,0.0061812,0.024287
0.094802,0.075095,-0.0089868,0.018615
0.0039485,0.25109,-0.019144,0.012287
-0.073794,0.34876,-0.019325,0.0078065
-0.11974,0.27637,-0.013171,0.0044347
-0.1189,0.12115,-0.0057711,0.0019326
-0.099726,0.0050774,0.0048952,0.00039656
-0.10476,-0.060835,0.022869,-0.0017339
-0.12106,-0.084763,0.039924,-0.0070531
-0.093168,-0.084046,0.046899,-0.015732
-0.014096,-0.092685,0.04839,-0.023767
0.058583,-0.1125,0.04861,-0.026459
0.098733,-0.12766,0.043852,-0.02275
0.12165,-0.094609,0.026381,-0.014458
0.11025,0.063939,-0.0063121,-0.0035775
0.041229,0.26373,-0.04352,0.0090615
-0.040226,0.2598,-0.067652,0.023071
-0.079146,0.05604,-0.059804,0.036091
-0.088729,-0.11035,-0.026801,0.043636
-0.096147,-0.15373,-0.00052131,0.041739
-0.085475,-0.12556,0.0069477,0.030369
-0.051804,-0.070396,0.0082362,0.014984
-0.032021,-0.041336,0.017298,0.0010385
-0.039747,-0.050755,0.028645,-0.011752
-0.055296,-0.061342,0.024936,-0.024249
-0.067047,-0.054148,0.0055898,-0.032715
-0.061153,-0.027304,-0.011523,-0.033332
-0.032177,0.0094776,-0.022923,-0.027829
-0.0084552,0.037117,-0.034986,-0.022639
-0.010486,0.072444,-0.036214,-0.022045
-0.036947,0.12345,-0.026542,-0.023672
-0.077813,0.12713,-0.021213,-0.02203
-0.1053,0.073424,-0.022285,-0.014461
-0.09542,0.028557,-0.024155,-0.0035278
-0.056962,0.016324,-0.020027,0.0047921
-0.019991,0.032473,-0.0081075,0.0063659
0.0073789,0.060206,0.0044707,0.0026192
0.04102,0.044198,0.012863,-0.00235
0.065165,-0.023896,0.017592,-0.0066157
0.051598,-0.070911,0.018947,-0.010069
0.023348,-0.039077,0.014126,-0.010993
0.013962,0.040755,0.0003377,-0.0067329
0.023532,0.086766,-0.0095584,0.00053095
0.041722,0.094385,-0.0018433,0.0029499
0.075637,0.11747,0.0088269,-0.0032076
0.12947,0.11796,0.013543,-0.011646
0.18155,0.03178,0.026002,-0.015553
0.20371,-0.082714,0.040599,-0.016789
0.1774,-0.15253,0.033314,-0.018347
0.12758,-0.18993,0.0092764,-0.015134
0.098615,-0.19473,-0.001786,-0.00093975
0.092982,-0.12238,-0.0010152,0.020495
0.070779,0.028069,-0.01783,0.038452
-0.010392,0.14938,-0.05213,0.045748
-0.14306,0.12322,-0.078022,0.040477
-0.27619,-0.0064305,-0.085781,0.023506
-0.355,-0.10147,-0.070605,0.0011779
-0.33439,-0.09369,-0.034148,-0.015196
-0.20797,-0.014212,0.00057422,-0.019767
-0.043859,0.029626,0.017563,-0.017375
0.068951,-0.015345,0.025293,-0.015197
0.11322,-0.069037,0.036491,-0.014949
0.11618,-0.048979,0.045595,-0.01368
0.096815,0.00081923,0.043223,-0.0099016
0.078425,0.0065359,0.03325,-0.0055813
0.082351,0.0014273,0.021487,-0.0016049
0.13039,0.028217,0.010367,0.0020224
0.18328,0.055484,0.00022664,0.0020756
0.14223,0.048604,-0.0079479,-0.0042376
0.035235,0.023735,-0.010872,-0.013184
-0.016581,0.018309,-0.0093271,-0.01835
-0.0060638,0.049075,-0.0080243,-0.017245
-0.00075324,0.08725,-0.01219,-0.011811
-0.0088947,0.073957,-0.022219,-0.0050657
-0.02219,0.011128,-0.030526,0.0028261
-0.055643,-0.040157,-0.031254,0.014787
-0.11947,-0.060926,-0.023869,0.031747
-0.205,-0.079198,-0.014432,0.049992
-0.23958,-0.097362,-0.010537,0.0656
-0.16738,-0.086054,-0.0088603,0.073353
-0.053749,-0.033056,-0.0046172,0.065418
0.021307,0.042518,-0.0083351,0.042111
0.04525,0.090236,-0.023315,0.0142
0.02564,0.075279,-0.031543,-0.011563
-0.027536,0.038067,-0.028478,-0.038272
-0.075734,0.017193,-0.023445,-0.065808
-0.075687,0.021195,-0.017851,-0.085423
-0.035793,0.063666,-0.0083176,-0.093868
-0.0056866,0.091937,0.0003432,-0.098154
-0.012907,0.042168,-0.0013025,-0.10147
-0.043604,-0.043134,-0.004857,-0.094753
-0.087993,-0.094058,0.0015741,-0.065025
-0.12083,-0.10738,0.010946,-0.010558
-0.097274,-0.10635,0.013439,0.054991
-0.03911,-0.077712,0.0065077,0.11322
-0.0073061,-0.00086214,-0.0080757,0.15146
-0.015527,0.071632,-0.019065,0.16483
-0.037057,0.084547,-0.019994,0.15247
-0.044963,0.10061,-0.018584,0.11834
-0.038856,0.14013,-0.0163,0.073004
-0.016321,0.1144,-0.011464,0.026451
0.032263,0.040111,-0.0091053,-0.016212
0.074172,-0.0086332,-0.011114,-0.04991
0.080979,-0.035193,-0.014754,-0.06886
0.068139,-0.053359,-0.018545,-0.072687
0.051424,-0.060469,-0.020031,-0.066921
0.036571,-0.050527,-0.016707,-0.056664
0.022512,-0.019749,-0.013835,-0.043819
0.013901,0.013191,-0.014322,-0.028823
0.01997,0.023873,-0.014153,-0.012492
0.022539,0.015855,-0.012195,0.0031198
0.0058746,0.01404,-0.010567,0.015384
-0.021714,0.024475,-0.012617,0.022833
-0.05173,0.032134,-0.019291,0.026202
-0.066559,0.029087,-0.024301,0.027933
-0.053589,0.020647,-0.02363,0.030684
-0.026555,0.014748,-0.018275,0.035579
-0.0035257,0.017279,-0.0069758,0.040782
0.012705,0.024849,0.0060902,0.042363
0.024508,0.019924,0.010552,0.038214
0.022538,-0.0077111,0.0061619,0.030214
0.0073225,-0.040589,0.0026985,0.021792
-0.00055185,-0.063039,0.0036895,0.014759
0.011508,-0.082841,0.0077288,0.0081523
0.034439,-0.09454,0.012869,0.00024921
0.045807,-0.084249,0.014374,-0.0077823
0.037604,-0.065665,0.011464,-0.013125
0.026999,-0.06597,0.0081995,-0.015062
0.025856,-0.079152,0.0070817,-0.014903
0.029569,-0.077001,0.010674,-0.015209
0.036273,-0.052906,0.016568,-0.01862
0.039963,-0.0094686,0.020196,-0.024635
0.031801,0.049634,0.022621,-0.030548
0.022938,0.098795,0.02066,-0.034089
0.026145,0.11165,0.013597,-0.032466
0.03653,0.090137,0.0097197,-0.024513
0.040013,0.050008,0.011885,-0.014413
0.023543,0.022266,0.017064,-0.0093643
0.01038,0.025977,0.019555,-0.012723
0.031968,0.018639,0.017409,-0.019972
0.084236,-0.034744,0.017173,-0.022607
0.16324,-0.082635,0.021938,-0.016017
0.2352,-0.084363,0.035992,-0.0030726
0.22472,-0.081512,0.063903,0.0085408
0.1304,-0.099717,0.097174,0.012376
0.047321,-0.12171,0.12125,0.0086087
0.054006,-0.11424,0.12891,0.0026783
0.14377,-0.035936,0.11489,-0.00091566
0.23104,0.087063,0.077272,-0.0021264
0.22958,0.17235,0.033925,-0.004044
0.1201,0.17797,0.0010291,-0.0092857
-0.036645,0.086593,-0.023964,-0.017961
-0.1329,-0.055571,-0.038818,-0.028049
-0.11553,-0.12038,-0.032749,-0.036297
-0.029507,-0.078782,-0.012366,-0.03958
0.015459,0.0042384,-0.0042571,-0.03627
-0.074178,0.084107,-0.0090349,-0.027578
-0.23201,0.10566,-0.00041251,-0.017477
-0.277,0.044053,0.020209,-0.0085861
-0.16382,-0.0030941,0.030636,-0.00075208
-0.0028795,0.056794,0.027841,0.005903
0.10606,0.13536,0.024967,0.010171
0.10986,0.11299,0.029489,0.010376
0.020155,0.024047,0.036557,0.0064812
-0.056087,-0.041794,0.034489,0.002757
-0.040592,-0.054144,0.021811,0.0035921
0.025162,-0.0017185,0.007006,0.006647
0.073804,0.10197,-0.0081921,0.0071109
0.078667,0.15554,-0.020091,0.0049492
0.033114,0.10529,-0.018827,0.0019342
-0.042973,0.024351,-0.0046264,-0.0013915
-0.096112,-0.035717,0.0083573,-0.0041602
-0.094689,-0.067579,0.0067633,-0.0048482
-0.073188,-0.086768,-0.0036814,-0.0025179
-0.065047,-0.121,-0.009871,0.002154
-0.047373,-0.14521,-0.01501,0.0075121
-0.018098,-0.13586,-0.025856,0.012274
-0.016712,-0.11754,-0.038608,0.015739
-0.038431,-0.093716,-0.048785,0.017411
-0.053823,-0.033798,-0.059492,0.017651
-0.064819,0.067731,-0.072541,0.017417
-0.074504,0.15625,-0.075788,0.016725
-0.080495,0.17539,-0.06003,0.014496
-0.097514,0.13547,-0.03588,0.0099612
-0.1418,0.067427,-0.017673,0.0040549
-0.1784,-0.0018692,-0.0082691,-0.0010866
-0.16504,-0.061189,-0.0027998,-0.0038898
-0.13114,-0.10761,-9.4611e-05,-0.0041171
-0.11567,-0.10782,-0.0039031,-0.002126
-0.1209,-0.063256,-0.013719,0.0014703
-0.12606,-0.032556,-0.021258,0.0051104
-0.10427,-0.010601,-0.02009,0.0066563
-0.05569,0.061169,-0.016073,0.0058332
0.0019329,0.13536,-0.016897,0.0052758
0.060193,0.11967,-0.019599,0.0070962
0.10564,0.04089,-0.023111,0.010274
0.12301,-0.019835,-0.024391,0.01267
0.13365,-0.050964,-0.011987,0.012578
0.15975,-0.071114,0.010078,0.0088104
0.17992,-0.064545,0.025371,0.0018459
0.17786,-0.038378,0.026009,-0.0053363
0.15511,-0.034997,0.015345,-0.008717
0.11403,-0.065452,0.0016802,-0.00664
0.069276,-0.094154,-0.011501,-0.00079486
0.0387,-0.077661,-0.020975,0.0054811
0.033685,-0.024217,-0.020825,0.0085489
0.05025,0.028908,-0.010653,0.0063811
0.071191,0.08291,0.0032955,0.00023991
0.061699,0.15219,0.012983,-0.0064481
0.011594,0.19423,0.020323,-0.011424
-0.012654,0.16181,0.031779,-0.015448
0.029656,0.090639,0.044985,-0.020056
0.078725,0.01484,0.05315,-0.023394
0.076691,-0.08769,0.050667,-0.020659
0.033129,-0.18548,0.031096,-0.0097091
-0.02178,-0.23395,0.00053345,0.0057692
-0.065117,-0.26225,-0.016334,0.018703
-0.060968,-0.25699,-0.007371,0.023693
0.0093102,-0.17552,0.015311,0.019847
0.089974,-0.059199,0.033592,0.01089
0.12506,0.035412,0.035055,0.0026813
0.11945,0.13704,0.022254,-0.0011644
0.06906,0.2645,0.010427,0.00038683
-0.026487,0.30876,0.011785,0.0077314
-0.10101,0.21327,0.024395,0.017344
-0.077946,0.11285,0.030974,0.019893
0.012054,0.10845,0.022644,0.010405
0.071402,0.11211,0.012595,-0.0044042
0.075765,0.048775,0.010068,-0.015662
0.041849,-0.033312,0.0039773,-0.020996
-0.0075495,-0.10314,-0.014146,-0.021259
-0.032505,-0.1634,-0.02561,-0.018152
-0.042712,-0.20389,-0.015806,-0.017224
-0.061767,-0.22879,-0.00028009,-0.024005
-0.075248,-0.22413,0.0098157,-0.036498
-0.080329,-0.14453,0.014091,-0.047476
-0.083683,-0.0029394,0.0089426,-0.050434
-0.084009,0.097514,-0.00059691,-0.043554
-0.096818,0.077338,-0.0069513,-0.02984
-0.12706,0.011028,-0.010014,-0.010587
-0.13991,0.017807,-0.014138,0.015927
-0.11791,0.073517,-0.019021,0.047821
-0.085577,0.11104,-0.018817,0.078983
-0.057087,0.12275,-0.015802,0.10166
-0.033806,0.10751,-0.012338,0.10769
-0.033978,0.070366,-0.0094851,0.093861
-0.056564,0.033492,-0.014094,0.066073
-0.065078,0.013715,-0.024887,0.033847
-0.047066,0.0063948,-0.034772,0.0013608
-0.030438,0.011784,-0.03955,-0.030887
-0.040976,0.026358,-0.038506,-0.058724
-0.069247,0.021132,-0.034392,-0.075467
-0.074255,-0.0018992,-0.027074,-0.078238
-0.040381,-0.012719,-0.018814,-0.068929
-0.0011008,-0.010232,-0.014198,-0.049883
0.022954,-0.014249,-0.012274,-0.024474
0.047392,-0.027695,-0.010865,0.00031115
0.080059,-0.036255,-0.010359,0.017816
0.10399,-0.039519,-0.010743,0.026591
0.11706,-0.04496,-0.011961,0.030588
0.13103,-0.049794,-0.013627,0.034039
0.123,-0.046344,-0.014626,0.037101
0.060478,-0.043931,-0.015661,0.037574
-0.046881,-0.0614,-0.014856,0.033414
-0.14466,-0.055346,-0.012434,0.024568
-0.17127,-0.0060995,-0.011397,0.014973
-0.12836,-0.010916,-0.009938,0.010322
-0.074236,-0.084703,-0.0085325,0.011955
-0.029936,-0.1153,-0.010783,0.015061
0.023032,-0.070591,-0.014279,0.015469
0.083173,0.00043778,-0.016796,0.01433
0.14739,0.069936,-0.017015,0.013458
0.21529,0.10212,-0.010526,0.011526
0.24947,0.083102,-0.00020532,0.0061289
0.2224,0.058361,0.0064801,-0.0036878
0.15686,0.035185,0.0078999,-0.016957
0.088417,-0.0026621,0.0086817,-0.030543
0.042392,-0.023921,0.012743,-0.040787
0.02405,-0.019106,0.013077,-0.045664
0.028295,-0.029974,0.0047459,-0.042565
0.041632,-0.076669,-0.0021323,-0.031216
0.022966,-0.12929,-0.00051016,-0.018848
-0.042115,-0.13362,0.0043413,-0.011704
-0.078476,-0.071915,0.0043212,-0.0077581
-0.025166,0.0046979,-0.00024146,-0.0021946
0.051748,0.065292,-0.00014649,0.0064978
0.070178,0.11148,0.0074579,0.013346
0.043315,0.11482,0.013007,0.01197
0.00061123,0.079069,0.0072309,0.004391
-0.055344,0.042256,-0.0031535,-0.0022177
-0.094539,0.024321,-0.0055969,-0.0064126
-0.090924,0.046357,-0.008035,-0.013116
-0.060394,0.080161,-0.021337,-0.02404
-0.028145,0.067223,-0.036018,-0.034096
-0.020056,0.022145,-0.040274,-0.038178
-0.041657,-0.018586,-0.032075,-0.035239
-0.069292,-0.040335,-0.01912,-0.026557
-0.088874,-0.032506,-0.012883,-0.014792
-0.089007,-0.002691,-0.014971,-0.003996
-0.069575,0.02834,-0.01893,0.0032481
-0.066076,0.033683,-0.020881,0.0066957
-0.087594,0.011365,-0.015881,0.0057111
-0.102,-0.0047348,0.0015176,-5.328e-05
-0.087871,0.017541,0.025094,-0.0081077
-0.050901,0.094574,0.037184,-0.013393
-0.017096,0.18375,0.03301,-0.012528
0.012868,0.18497,0.026293,-0.0075044
0.046067,0.08753,0.020899,-0.0026516
0.037049,-0.0078113,0.014295,-0.00010647
-0.033137,-0.042561,0.012525,0.00028591
-0.10622,-0.039494,0.016331,4.522e-05
-0.13956,-0.028909,0.016534,0.001007
-0.1455,-0.015319,0.0071736,0.003638
-0.13903,0.00089933,-0.0071971,0.0073224
-0.11524,0.009182,-0.018195,0.011729
-0.080026,0.010763,-0.023643,0.016511
-0.049472,0.015206,-0.025619,0.020378
-0.0305,0.014856,-0.026815,0.022274
-0.02664,0.0078684,-0.02483,0.022246
-0.034923,0.0048208,-0.01564,0.020251
-0.040206,0.0065348,-0.0034948,0.016262
-0.03098,0.01037,0.0087913,0.012066
-0.014785,0.011964,0.022021,0.010697
-0.0053653,0.0075135,0.036626,0.012633
-0.00057855,-0.0033192,0.049948,0.014961
0.011112,-0.013418,0.053074,0.015027
0.030947,-0.011541,0.043169,0.012988
0.049215,-0.010849,0.03185,0.010745
0.056679,-0.026699,0.028847,0.0097985
0.056881,-0.04238,0.030013,0.01003
0.064577,-0.042081,0.02776,0.0099583
0.08459,-0.0342,0.021869,0.0082556
0.10336,-0.031741,0.015728,0.0046308
0.10531,-0.021505,0.011182,-0.00032042
0.096441,0.00087407,0.012659,-0.005341
0.095112,-0.026521,0.024494,-0.0087128
0.088374,-0.11388,0.042746,-0.0088958
0.057267,-0.15042,0.056745,-0.0057906
0.035528,-0.07818,0.06164,-0.0013778
0.049164,0.016678,0.062494,0.0020911
0.059931,0.040786,0.06386,0.0039394
0.039841,0.016089,0.068724,0.0044734
0.011405,0.0010731,0.071073,0.0041799
0.002119,-0.0017713,0.052585,0.0040743
0.0089402,0.0097044,0.015653,0.0044872
0.0025952,0.063912,-0.018036,0.0037156
-0.015664,0.11734,-0.032389,-5.5605e-05
0.0053774,0.10054,-0.023578,-0.0066028
0.064605,0.032931,-0.0073628,-0.013053
0.10785,-0.049862,-0.00053772,-0.015193
0.1291,-0.13368,0.0014926,-0.011141
0.13328,-0.18476,0.0092962,-0.0038379
0.11959,-0.17848,0.014598,0.0017505
0.11071,-0.14938,0.01266,0.0035809
0.09898,-0.13486,0.016278,0.0022817
0.059233,-0.11642,0.02661,-0.0022194
0.0083803,-0.091138,0.031295,-0.010224
-0.032326,-0.097557,0.024492,-0.019276
-0.07231,-0.14001,0.015804,-0.024942
-0.10953,-0.15396,0.012751,-0.025098
-0.11655,-0.067461,0.0039664,-0.020962
-0.076099,0.065541,-0.011337,-0.014124
0.0017253,0.096617,-0.014562,-0.0067143
0.069051,0.041909,-0.0027677,-0.0027781
0.067659,0.047511,0.0095726,-0.0042172
0.017777,0.095061,0.015195,-0.0074542
0.0099383,0.07763,0.011489,-0.0071261
0.056963,0.025166,-0.0089264,-0.0010419
0.086936,-0.011838,-0.037039,0.0078705
0.078717,-0.06453,-0.049058,0.013473
0.046589,-0.079589,-0.045521,0.0128
-0.022598,0.044175,-0.04368,0.0093687
-0.12601,0.20673,-0.044703,0.0082165
-0.22382,0.22254,-0.045374,0.0099769
-0.27288,0.11422,-0.045029,0.013007
-0.2483,0.018057,-0.040636,0.01671
-0.15779,-0.021561,-0.037594,0.019328
-0.051978,-0.019814,-0.040328,0.018776
0.016501,0.0064179,-0.041976,0.014852
0.043321,0.027917,-0.03657,0.0083113
0.043699,0.015935,-0.025947,0.0012303
0.032917,-0.011504,-0.012244,-0.0041887
0.028675,-0.017518,0.0034625,-0.0078649
0.022227,-0.0089895,0.012881,-0.0096807
0.0019004,0.0020305,0.0069765,-0.0083613
-0.016954,0.011577,-0.010149,-0.0037715
-0.022721,0.006039,-0.024376,0.0022729
-0.031248,-0.017022,-0.029416,0.0070316
-0.054317,-0.038496,-0.02996,0.0088157
-0.069164,-0.015771,-0.028963,0.0080906
-0.069603,0.089951,-0.027389,0.0062274
-0.084045,0.20112,-0.025086,0.0042234
-0.1103,0.18834,-0.019335,0.0034836
-0.11339,0.099803,-0.010252,0.0053695
-0.081737,0.048243,-0.002891,0.0088709
-0.041257,0.025996,0.0010845,0.010579
-0.015144,0.00047171,0.0042705,0.0081983
0.0065015,-0.0011999,0.0023406,0.0037114
0.048146,0.035915,-0.0069426,0.00081676
0.10431,0.076423,-0.016468,0.00053268
0.13742,0.083281,-0.017615,0.0012183
0.12593,0.054544,-0.0030461,0.00087172
0.088566,0.024356,0.02287,-0.0010924
0.062923,0.018383,0.042873,-0.0034938
0.067495,0.036255,0.043775,-0.0045518
0.095262,0.063905,0.030845,-0.0037281
0.12238,0.07021,0.017501,-0.0029284
0.11213,0.023747,0.0067281,-0.0039906
0.069937,-0.041372,0.0040979,-0.0057463
0.050057,-0.060515,0.01529,-0.0061941
0.07267,-0.034927,0.028165,-0.0060168
0.098934,0.0074486,0.026278,-0.0070299
0.077633,0.04515,0.0076061,-0.0072305
0.0072314,0.026076,-0.015401,-0.0017029
-0.048153,-0.044037,-0.028493,0.0095247
-0.028507,-0.078212,-0.017191,0.020062
0.045021,-0.067255,0.019445,0.024247
0.11504,-0.067238,0.056744,0.020127
0.14709,-0.080156,0.067343,0.0083686
0.11039,-0.081934,0.042837,-0.007668
0.01884,-0.073729,0.0023977,-0.023065
-0.067248,-0.062494,-0.028562,-0.033192
-0.1145,-0.061919,-0.041544,-0.035359
-0.10779,-0.066267,-0.036614,-0.032144
-0.048749,-0.048101,-0.017231,-0.03201
0.018488,-0.015864,0.0047518,-0.039805
0.049143,0.029611,0.014495,-0.047586
0.040002,0.13136,0.0074694,-0.043783
0.016868,0.23953,-0.0016351,-0.027043
0.0070908,0.22467,0.0027967,-0.0037198
0.0068104,0.10659,0.0099637,0.01982
-0.0059214,-0.0019974,0.0051192,0.037919
-0.025503,-0.06159,-0.0051717,0.047215
-0.04055,-0.071528,-0.0096809,0.048922
-0.053353,-0.047275,-0.0086855,0.045453
-0.069023,-0.011993,-0.0087503,0.037765
-0.08473,0.030875,-0.017311,0.026175
-0.091274,0.081496,-0.035716,0.011108
-0.094693,0.10378,-0.046651,-0.00549
-0.10468,0.062167,-0.038268,-0.020535
-0.10238,0.00074689,-0.024553,-0.032302
-0.07232,-0.02485,-0.021249,-0.039855
-0.034162,-0.030021,-0.029079,-0.041527
-0.0072861,-0.049917,-0.03857,-0.036647
-0.0029275,-0.08496,-0.046154,-0.027961
-0.017659,-0.1054,-0.052652,-0.019784
-0.026337,-0.094641,-0.046143,-0.013742
-0.027874,-0.064846,-0.022688,-0.0090963
-0.041369,-0.020129,-0.0041958,-0.0052951
-0.06864,0.02405,-0.0031804,-0.0017178
-0.11299,0.038422,-0.0092036,0.0025992
-0.16987,0.032312,-0.0131,0.007719
-0.1989,0.022793,-0.014728,0.012086
-0.15862,0.0043948,-0.013324,0.013493
-0.062149,-0.017852,-0.0075458,0.011797
0.033629,-0.0262,-0.0026259,0.010007
0.093239,-0.019889,-0.0028004,0.0097804
0.11224,-0.01267,-0.0064087,0.0076215
0.09445,-0.0056181,-0.0093858,0.0012532
0.057761,0.01184,-0.0097435,-0.0044051
0.032171,0.044278,-0.0099189,-0.0044694
0.029604,0.085358,-0.014602,-0.00056326
0.031561,0.10008,-0.021374,0.0043382
0.021497,0.061633,-0.022135,0.0098816
0.0015212,0.0044394,-0.016996,0.015408
-0.015376,-0.039857,-0.011634,0.018955
-0.015319,-0.070172,-0.0079027,0.020527
0.0003838,-0.082134,-0.0049133,0.022842
0.021324,-0.080406,-0.0039736,0.025024
0.037955,-0.073876,-0.0051126,0.019566
0.047197,-0.062294,-0.005789,0.0036102
0.052309,-0.047821,-0.0059545,-0.013019
0.053137,-0.037259,-0.0051948,-0.019069
0.048792,-0.032575,-0.0010075,-0.014369
0.042933,-0.028945,0.0067479,-0.0075584
0.039843,-0.02444,0.015127,-0.0057621
0.039486,-0.021748,0.020068,-0.0085777
0.038515,-0.01791,0.018825,-0.010837
0.037313,-0.0047969,0.014012,-0.0080873
0.039324,0.013651,0.0099289,0.00074953
0.037783,0.023116,0.0074404,0.012537
0.0257,0.022805,0.0091098,0.020958
0.012015,0.019158,0.013602,0.02123
0.0052906,0.0079482,0.01326,0.014967
-0.0026196,-0.010172,0.010667,0.0087912
-0.019246,-0.023454,0.015671,0.0075173
-0.035427,-0.028125,0.025277,0.01064
-0.043045,-0.030738,0.027644,0.013755
-0.046906,-0.042821,0.016152,0.013313
-0.047964,-0.062361,0.00099924,0.011478
-0.036293,-0.073469,0.00053327,0.012915
-0.010139,-0.071086,0.011005,0.018589
0.018423,-0.057735,0.016742,0.025621
0.037064,-0.047483,0.015648,0.030076
0.044407,-0.056845,0.015272,0.028095
0.047828,-0.06297,0.018478,0.016738
0.050216,-0.023542,0.021548,-0.0029852
0.047066,0.026792,0.023522,-0.024161
0.030276,0.010893,0.02826,-0.03832
0.0015604,-0.051923,0.036316,-0.040998
-0.02236,-0.095517,0.042195,-0.031718
-0.035642,-0.093395,0.043833,-0.013373
-0.040575,-0.053077,0.043738,0.0071846
-0.025968,-0.0086082,0.042021,0.023699
0.019259,0.0068422,0.039839,0.034087
0.088746,-0.0073432,0.041519,0.037605
0.16838,-0.011703,0.048658,0.033323
0.24623,-0.003818,0.059536,0.022305
0.28422,-0.015097,0.069619,0.0069764
0.26188,-0.033645,0.073037,-0.012128
0.22052,-0.044818,0.068808,-0.031842
0.18059,-0.040796,0.060743,-0.043435
0.10845,-0.0075861,0.048713,-0.042384
-0.015631,0.040622,0.027268,-0.033402
-0.13508,0.085151,-0.00057695,-0.021123
-0.18418,0.12298,-0.024421,-0.0035981
-0.18761,0.12674,-0.038055,0.020474
-0.18824,0.067115,-0.040137,0.043874
-0.14891,-0.010258,-0.032316,0.054745
-0.035193,-0.037975,-0.015585,0.046607
0.086348,-0.031253,-0.0039616,0.023335
0.13983,-0.043196,-0.0074965,-0.0030592
0.14364,-0.047576,-0.0059019,-0.020911
0.14132,0.020293,0.013196,-0.027419
0.12434,0.10029,0.037149,-0.02685
0.08349,0.097366,0.050875,-0.022956
0.041524,0.05641,0.051768,-0.017357
0.018816,0.048627,0.047331,-0.013345
0.0041346,0.059521,0.037532,-0.014814
-0.027517,0.058103,0.017864,-0.020569
-0.064135,0.049382,-0.0051589,-0.024572
-0.0765,0.052096,-0.020604,-0.022147
-0.06815,0.071588,-0.029373,-0.013711
-0.054628,0.092048,-0.03937,-0.0030783
-0.040558,0.093923,-0.052328,0.0066788
-0.03452,0.078744,-0.063507,0.013385
-0.044269,0.062005,-0.067049,0.014026
-0.05947,0.049838,-0.059832,0.00778
-0.055128,0.039424,-0.04478,-0.0016258
-0.028608,0.026541,-0.031822,-0.0091623
-0.0074858,0.0096821,-0.027688,-0.012562
-0.0073281,-0.0064303,-0.026991,-0.012754
-0.024379,-0.021404,-0.024734,-0.011683
-0.047898,-0.036195,-0.022071,-0.010421
-0.062986,-0.049848,-0.018822,-0.0088433
-0.074689,-0.061353,-0.017041,-0.0071869
-0.09861,-0.070657,-0.018727,-0.0065575
-0.1266,-0.083643,-0.020261,-0.0065037
-0.14375,-0.080227,-0.020312,-0.0050142
-0.1381,-0.052289,-0.023461,-0.0019579
-0.10214,-0.033934,-0.030806,0.00069186
-0.069844,-0.022105,-0.033958,0.0015599
-0.073794,0.023648,-0.026098,0.00027324
-0.086975,0.098096,-0.013913,-0.0029479
-0.078381,0.12529,-0.0077193,-0.0068262
-0.04901,0.077811,-0.0067729,-0.0098251
-0.015998,0.020357,-0.0056054,-0.011359
-0.0088205,-0.0097681,-0.0032192,-0.011776
-0.038105,-0.037064,0.00046706,-0.011016
-0.066097,-0.09589,0.0048206,-0.0078259
-0.05453,-0.1573,0.0073973,-0.002045
-0.016855,-0.11811,0.0061236,0.0031471
0.014433,0.012894,-0.00031007,0.0046088
0.030249,0.068697,-0.0091361,0.003752
0.029083,-0.0036673,-0.013212,0.003985
0.010136,-0.086156,-0.0062823,0.0057438
-0.012511,-0.10925,0.0095454,0.0067158
-0.0090875,-0.10534,0.025173,0.0054699
0.024038,-0.094965,0.035048,0.002833
0.046758,-0.064455,0.035205,6.3974e-05
0.041919,-0.030136,0.02426,-0.0021409
0.042035,-0.01242,0.0096662,-0.0028999
0.070487,0.0037409,-0.00048124,-0.0018384
0.097916,0.011024,-0.0048787,0.0003944
0.088208,0.03029,-0.010265,0.0039725
0.046478,0.09588,-0.022344,0.0092921
0.0058762,0.13165,-0.030947,0.014112
-0.0076778,0.10241,-0.029658,0.014403
-0.0029471,0.056506,-0.027029,0.0087392
-0.015223,0.016514,-0.022144,0.00057354
-0.04784,0.0070386,-0.010367,-0.0046037
-0.056799,0.013398,0.0017152,-0.004345
-0.027438,0.002657,0.009958,-0.00052723
0.0092712,-0.0098403,0.016446,0.0039132
0.033255,0.0060129,0.017907,0.0071177
0.048888,0.055175,0.010214,0.0085207
0.054942,0.088093,0.00065393,0.0082189
0.027859,0.066669,-0.005769,0.0061346
-0.033807,0.047177,-0.016661,0.0028469
-0.065997,0.068437,-0.027068,-0.00015288
-0.019572,0.079976,-0.024886,-0.0014944
0.053167,0.056575,-0.015938,-0.00087458
0.077231,0.029142,-0.0109,0.00061789
0.05276,0.0125,-0.010198,0.0018071
0.022526,-0.005488,-0.010143,0.0027663
0.011295,-0.030303,-0.0081991,0.0041837
0.02747,-0.067172,-0.0017149,0.0060504
0.059246,-0.11325,0.0094827,0.008014
0.072993,-0.13822,0.018077,0.010055
0.059555,-0.12829,0.015877,0.011406
0.045633,-0.11319,0.010881,0.010817
0.048899,-0.11584,0.014633,0.0082869
0.053902,-0.10851,0.019282,0.0046574
0.047534,-0.048523,0.015212,0.0014334
0.037461,0.059134,0.0083759,0.00020571
0.019758,0.14412,0.0046605,-0.00047333
-0.023831,0.15305,0.0026897,-0.0039299
-0.075953,0.13511,0.0025961,-0.010257
-0.078569,0.141,0.0040617,-0.015983
-0.017669,0.13502,0.0055943,-0.017624
0.039418,0.082326,0.010928,-0.01446
0.030818,-0.0039243,0.023136,-0.0089602
-0.023338,-0.08867,0.038687,-0.0041145
-0.060434,-0.13215,0.050734,0.00041963
-0.03579,-0.12349,0.054982,0.0075729
0.034123,-0.081313,0.054227,0.016461
0.081401,-0.018484,0.052227,0.021003
0.084082,0.046724,0.04628,0.01731
0.082606,0.060784,0.031177,0.0093937
0.10916,-0.020289,0.01191,0.0046698
0.16564,-0.13977,0.0052404,0.0042112
0.22937,-0.18492,0.013889,0.00278
0.2421,-0.12524,0.016432,-0.00092041
0.1448,-0.015254,-0.0011142,-0.0013584
-0.033736,0.076269,-0.021257,0.003734
-0.18211,0.11303,-0.021645,0.007559
-0.22991,0.11453,-0.011225,0.0030436
-0.20474,0.10986,-0.0096391,-0.0081502
-0.16362,0.10301,-0.014907,-0.019157
-0.12751,0.079998,-0.013328,-0.02574
-0.097964,0.045138,-0.0021684,-0.026337
-0.092651,0.022983,0.010374,-0.020161
-0.10318,0.0023747,0.019257,-0.0092755
-0.065369,-0.040134,0.023459,0.0022383
0.026858,-0.08109,0.021488,0.010817
0.089849,-0.074546,0.014486,0.014186
0.075496,-0.02013,0.0051136,0.013147
0.015838,0.038927,-0.0061177,0.011401
-0.020626,0.071434,-0.021788,0.010686
-0.010755,0.077402,-0.042554,0.0093151
0.0064561,0.068172,-0.060864,0.0065233
0.0029036,0.049515,-0.067216,0.0035194
-0.016841,0.028113,-0.063091,0.0015238
-0.042793,0.016463,-0.061065,0.00073551
-0.073494,0.018543,-0.06363,0.00045394
-0.106,0.023558,-0.061402,0.00047304
-0.1245,0.02244,-0.051607,0.00092823
-0.11879,0.020544,-0.039786,0.0014542
-0.10093,0.026051,-0.03106,0.0012812
-0.087487,0.032756,-0.024126,-0.00015195
-0.08192,0.029364,-0.016861,-0.0024989
-0.078601,0.015762,-0.009726,-0.0053266
-0.077992,-0.00044438,-0.0028367,-0.0089972
-0.077619,-0.012402,0.0014128,-0.013113
-0.071545,-0.018385,0.00091841,-0.015675
-0.065602,-0.020783,-0.0021463,-0.01499
-0.061921,-0.025373,-0.0062043,-0.011009
-0.054314,-0.036496,-0.012773,-0.0049306
-0.042134,-0.045911,-0.021971,0.0013427
-0.035657,-0.038149,-0.03035,0.0058007
-0.038919,-0.0090044,-0.035705,0.007442
-0.036793,0.031358,-0.038107,0.0073342
-0.021558,0.063734,-0.036248,0.0071737
-0.0072677,0.07082,-0.028274,0.0060924
-0.0065199,0.06067,-0.014295,0.0023304
-0.0075083,0.041475,0.0028298,-0.0031396
0.0071622,0.0041017,0.018644,-0.0079426
0.031535,-0.036579,0.029205,-0.011025
0.04658,-0.058153,0.03442,-0.012615
0.050652,-0.064545,0.037246,-0.01268
0.060108,-0.066298,0.039216,-0.010687
0.080543,-0.069313,0.039875,-0.0073806
0.092384,-0.05075,0.037119,-0.0045341
0.073113,0.040973,0.028833,-0.0017715
0.047005,0.16006,0.019024,0.001841
0.044376,0.17873,0.010579,0.0047283
0.052063,0.090268,0.00020129,0.0051564
0.054665,-0.0046616,-0.0082647,0.0029981
0.043609,-0.058447,-0.0096103,0.0003576
0.016509,-0.079665,-0.00779,0.0013855
-0.0095541,-0.089305,-0.0021189,0.0075166
-0.004665,-0.10674,0.015471,0.013957
0.038415,-0.10808,0.038432,0.015012
0.089132,-0.080488,0.050895,0.011812
0.1192,-0.054647,0.052816,0.0088783
0.12098,-0.046059,0.049641,0.0061785
0.10701,-0.051999,0.04068,0.0018261
0.090997,-0.05519,0.029359,-0.0026626
0.06427,-0.020066,0.019762,-0.0044158
0.032665,0.038459,0.011881,-0.0026606
0.013845,0.058351,0.0031712,0.00057376
-0.017444,0.030306,-0.0060493,0.0014847
-0.079331,-0.017451,-0.0071588,-0.0028047
-0.11453,-0.056544,0.00051976,-0.010724
-0.068053,-0.06693,0.0092138,-0.016675
0.021177,-0.055548,0.013485,-0.016528
0.074474,-0.027489,0.01165,-0.010625
0.079184,0.0073789,0.0099406,-0.0017937
0.091512,0.023317,0.011603,0.0067955
0.14208,0.020102,0.012626,0.012969
0.19265,0.013444,0.0094224,0.016324
0.19683,0.012192,0.0033509,0.016244
0.15425,0.0013123,0.0012346,0.011595
0.095767,-0.056291,0.004557,0.0046139
0.042048,-0.13442,0.0057716,-0.0026381
0.00071078,-0.16109,0.0029854,-0.01146
-0.042908,-0.12821,0.0027643,-0.018726
-0.10767,-0.074111,0.0023624,-0.016008
-0.16413,-0.027558,-0.0071659,-0.00062796
-0.19472,-0.0066055,-0.023931,0.018724
-0.20133,0.0054369,-0.03852,0.030661
-0.14386,0.036124,-0.041698,0.032785
-0.038161,0.045457,-0.028807,0.03231
0.025147,-0.0042392,-0.0076245,0.033667
0.021713,-0.063604,0.0073693,0.031269
0.0027381,-0.087923,0.011652,0.019171
0.0021285,-0.094436,0.013312,-0.0014238
0.0071338,-0.095522,0.017119,-0.025152
-0.0018169,-0.084383,0.017105,-0.04548
-0.022149,-0.0645,0.0096367,-0.056657
-0.045058,-0.032356,-0.002082,-0.055986
-0.068001,0.027281,-0.013976,-0.044713
-0.089542,0.092855,-0.022594,-0.028556
-0.0923,0.12266,-0.025584,-0.014464
-0.055975,0.13248,-0.021933,-0.004104
-0.011928,0.13466,-0.016549,0.005591
-0.0055263,0.10012,-0.014187,0.015799
-0.022411,0.041098,-0.011496,0.023848
-0.032607,-0.0072495,-0.007682,0.027149
-0.02915,-0.044095,-0.0028278,0.026355
-0.0099284,-0.083525,0.0060638,0.023916
0.0080745,-0.12173,0.01492,0.020431
-0.0010506,-0.14346,0.021485,0.014192
-0.025762,-0.14067,0.029136,0.0050018
-0.044441,-0.10566,0.031835,-0.0040742
-0.064354,-0.047441,0.024236,-0.0094905
-0.083264,0.0039233,0.013248,-0.0097831
-0.081171,0.029605,0.013603,-0.0060667
-0.058619,0.038421,0.026742,-0.0010028
-0.036976,0.074155,0.03007,0.0032565
-0.037044,0.14993,0.010772,0.0065331
-0.045024,0.20484,-0.017763,0.0099897
-0.024463,0.18808,-0.038976,0.012854
0.018854,0.14304,-0.048698,0.011805
0.056806,0.12265,-0.045063,0.0055253
0.084524,0.073501,-0.028556,-0.0042533
0.10731,-0.014847,-0.010571,-0.015125
0.13072,-0.071367,-0.00015827,-0.0229
0.14367,-0.097885,0.001011,-0.022573
0.12303,-0.11486,-0.0028128,-0.014075
0.073342,-0.10256,0.0030852,-0.0045973
0.012427,-0.042409,0.020856,-0.0018049
-0.036032,0.046262,0.035487,-0.0040128
-0.033039,0.087324,0.047732,-0.0036812
0.02038,0.073085,0.055279,0.0012389
0.06337,0.11121,0.036702,0.007807
0.062198,0.18281,0.00018136,0.01325
0.042689,0.15064,-0.01878,0.015178
0.031678,0.05515,-0.010113,0.01226
0.042879,0.024347,0.0056378,0.0055527
0.051145,0.057109,0.010391,-0.0021181
0.0060951,0.11349,0.0079948,-0.0086931
-0.078385,0.17878,0.0057111,-0.014367
-0.14135,0.19397,-0.0045357,-0.01862
-0.15198,0.107,-0.024687,-0.018253
-0.11847,-0.028633,-0.037237,-0.011635
-0.063449,-0.11704,-0.033623,-0.0019001
-0.00044117,-0.1423,-0.02201,0.0054946
0.077684,-0.15495,-0.010165,0.006883
0.15826,-0.15154,-0.0037254,0.0034189
0.19195,-0.11212,-0.0043208,-0.00061989
0.15687,-0.076131,-0.010135,-0.0027115
0.084081,-0.043589,-0.017125,-0.003626
0.01436,0.052184,-0.02181,-0.0053966
-0.027373,0.19527,-0.024033,-0.0079257
-0.031716,0.2722,-0.023865,-0.0074606
-0.024428,0.24282,-0.023368,3.8846e-05
-0.042744,0.14849,-0.022429,0.011895
-0.084568,0.038907,-0.018067,0.017199
-0.13234,-0.021169,-0.013348,0.0077513
-0.16773,-0.019086,-0.011889,-0.011123
-0.16634,-0.014362,-0.0093382,-0.025389
-0.12568,-0.018169,-0.0044115,-0.026792
-0.065052,-0.0058143,-0.0013041,-0.019011
-0.009915,0.0065847,-0.0021971,-0.0098948
0.02336,-0.0041115,-0.0061889,-0.0031193
0.044243,-0.023188,-0.012341,0.0012221
0.069237,-0.019514,-0.018953,0.0040629
0.090804,-0.010325,-0.021877,0.0064351
0.092415,-0.036331,-0.021281,0.0086352
0.073598,-0.081318,-0.022148,0.010062
0.046225,-0.10665,-0.027207,0.010322
0.015643,-0.11631,-0.032752,0.010228
-0.023704,-0.11185,-0.034968,0.010687
-0.066902,-0.069755,-0.03246,0.011858
-0.10021,-0.0048269,-0.028713,0.01301
-0.10435,0.020743,-0.026251,0.012658
-0.067367,-0.0046324,-0.020057,0.0093846
-0.01511,-0.024986,-0.016325,0.0033048
0.019303,-0.023668,-0.01921,-0.002595
0.032398,-0.027087,-0.015696,-0.0049994
0.033273,-0.035323,-0.0051693,-0.0037948
0.034115,-0.035454,0.0015436,-0.0010153
0.043609,-0.025625,0.0051507,0.0013521
0.063915,-0.00059706,0.0081429,0.0015263
0.10117,0.025488,0.0073482,-0.00044403
0.12914,0.017495,0.0014529,-0.0017033
0.097156,-0.020275,-0.008995,-0.00062335
0.030001,-0.055911,-0.016894,0.0012105
0.0049764,-0.07361,-0.012046,0.0022797
0.038202,-0.063613,0.0013217,0.0031425
0.088913,-0.041684,0.010812,0.0052096
0.11081,-0.036005,0.015171,0.0090271
0.070809,-0.032258,0.017606,0.013588
-0.029966,-0.00046718,0.011547,0.017438
-0.14657,0.064633,-0.0045399,0.019307
-0.21723,0.11883,-0.018155,0.017031
-0.20247,0.10189,-0.020993,0.0093172
-0.1216,0.026115,-0.016594,-0.00070374
-0.049793,-0.048273,-0.009809,-0.007659
-0.021328,-0.082013,0.00069523,-0.010691
0.0013753,-0.081062,0.015379,-0.013531
0.044236,-0.074114,0.0293,-0.018534
0.093634,-0.06633,0.038736,-0.024295
0.11852,-0.049241,0.044579,-0.026353
0.099364,-0.026888,0.047386,-0.021168
0.056869,-0.010471,0.046802,-0.010304
0.021637,-0.0071238,0.045366,0.001863
-8.0732e-06,-0.012783,0.044598,0.011585
-0.0088201,-0.010536,0.041664,0.017299
-0.012595,0.0021045,0.035103,0.019572
-0.019118,0.0067887,0.028888,0.017914
-0.030199,0.0011447,0.024426,0.01113
-0.048589,0.0093709,0.015648,0.00093951
-0.061471,0.045285,7.7692e-05,-0.0088873
-0.057465,0.078255,-0.016426,-0.014471
-0.047142,0.085724,-0.026443,-0.012853
-0.039584,0.095596,-0.02422,-0.0046758
-0.024432,0.11189,-0.0083982,0.0050474
0.0031524,0.092872,0.012138,0.010464
0.017263,0.033893,0.026504,0.010272
0.0038876,-0.022103,0.032995,0.008701
-0.014285,-0.055345,0.03481,0.009738
-0.021349,-0.075301,0.03597,0.012353
-0.017445,-0.088794,0.038515,0.01224
-0.010093,-0.098686,0.041004,0.0061423
-0.012716,-0.098877,0.037327,-0.0047945
-0.019413,-0.083425,0.021565,-0.014526
-0.0086115,-0.060403,0.0015203,-0.019041
0.019667,-0.04403,-0.0076468,-0.021321
0.04183,-0.033505,-0.0027402,-0.024946
0.043741,-0.0024176,0.005162,-0.028479
0.030378,0.042482,0.00482,-0.02678
0.018699,0.051521,0.0023499,-0.016903
0.028183,0.028632,0.007149,-0.0050188
0.05171,0.044557,0.012108,-0.00085138
0.066932,0.10483,0.010319,-0.0037712
0.076402,0.10089,0.0053233,-0.0030764
0.090458,0.001872,0.00024352,0.0091798
0.097339,-0.081326,-0.0035137,0.030933
0.071514,-0.096841,-0.0049919,0.051486
0.015289,-0.10074,-0.0064105,0.05717
-0.035051,-0.12218,-0.0088684,0.042467
-0.069352,-0.10943,-0.0127,0.017504
-0.095514,-0.0296,-0.017268,-0.0019237
-0.10139,0.027815,-0.019126,-0.0085115
-0.085167,-0.017728,-0.015746,-0.0061241
-0.068009,-0.093796,-0.0078314,-0.0039359
-0.068008,-0.090372,-0.0022265,-0.0075195
-0.077952,0.0092248,-0.0016841,-0.015601
-0.068156,0.11889,-0.00051824,-0.022902
-0.020099,0.13684,0.001506,-0.023036
0.046191,0.069777,0.0024867,-0.014877
0.09417,0.001445,0.00121,-0.0067877
0.10134,-0.022557,-0.0038705,-0.0060047
0.066533,-0.017741,-0.0081217,-0.008176
0.0019477,-0.010723,-0.0071837,-0.0067397
-0.068852,-0.0010279,-0.0041037,-0.0027524
-0.09908,0.0042059,-0.0017585,0.0019148
-0.072882,-0.0063527,0.00073891,0.008394
-0.040569,-0.031768,0.0037078,0.014133
-0.034108,-0.072914,0.0077679,0.013947
-0.040089,-0.096722,0.012787,0.0077475
-0.045762,-0.081277,0.016564,-5.7393e-05
-0.037339,-0.054548,0.016082,-0.0065194
-0.017764,-0.021468,0.0084643,-0.011111
-0.0055236,0.024315,-0.0018397,-0.012879
0.00082684,0.059666,-0.0067254,-0.011205
0.01529,0.090233,-0.0093299,-0.0069023
0.042668,0.13466,-0.017158,-0.00061351
0.055941,0.13465,-0.023073,0.0061384
0.044535,0.051066,-0.015888,0.010054
0.048679,-0.029556,-0.0045764,0.010055
0.078212,-0.03127,-0.0035138,0.010209
0.11353,0.0075841,-0.006851,0.014538
0.15415,0.031659,-0.0034221,0.02178
0.18513,0.059613,0.0036057,0.027094
0.19085,0.11536,0.006911,0.025281
0.175,0.13948,0.0064811,0.015046
0.12218,0.076834,0.0058331,0.00075239
0.040564,-0.0049859,0.0037511,-0.011725
-0.037061,-0.030588,-0.0011369,-0.018888
-0.12181,-0.030106,-0.004595,-0.021054
-0.18293,-0.018081,-0.0070581,-0.021586
-0.14658,0.0062384,-0.0072868,-0.023431
-0.038177,-0.006587,0.0022403,-0.02624
0.042124,-0.046209,0.012761,-0.027093
0.034337,-0.067121,0.0091455,-0.02331
-0.015387,-0.081616,-0.0038645,-0.015406
-0.021035,-0.079815,-0.0089881,-0.007208
0.019006,-0.020989,-0.0044018,-0.0021451
0.070174,0.05652,-0.00073806,-0.00057045
0.11804,0.081343,0.00012071,0.00017217
0.13463,0.052441,-0.0018781,0.0033763
0.12011,0.0092224,-0.0032157,0.0091771
0.11229,-0.0063698,-0.00047917,0.014495
0.10871,0.017139,0.00020162,0.017404
0.082906,0.042616,-0.0030069,0.018602
0.06117,0.059621,-0.00099069,0.019164
0.068604,0.089851,0.012059,0.019201
0.061845,0.11783,0.02531,0.01742
0.023539,0.11012,0.02473,0.012225
-0.0020334,0.071625,0.011674,0.0044866
-0.0043346,0.044312,-0.0090594,-0.0022952
-0.010088,0.056364,-0.031136,-0.0048705
-0.037708,0.079484,-0.041436,-0.0027642
-0.087507,0.053201,-0.032693,0.0008063
-0.13494,-0.02545,-0.01034,0.00081665
-0.15514,-0.10121,0.0051501,-0.0054105
-0.15243,-0.14275,-0.0012847,-0.015207
-0.13619,-0.1403,-0.01596,-0.022448
-0.10271,-0.086912,-0.016459,-0.023234
-0.066071,-0.01018,-0.0035979,-0.018871
-0.04581,0.036052,0.0063516,-0.01347
-0.041236,0.021007,0.0069576,-0.0095149
-0.042293,-0.0090633,0.0059016,-0.0064982
-0.039427,0.018189,0.01217,-0.0032382
-0.038242,0.080362,0.019234,0.0004187
-0.052376,0.10965,0.015809,0.003999
-0.083914,0.092277,0.0049969,0.006535
-0.11308,0.056536,-0.0053437,0.0071824
-0.11645,0.022925,-0.010171,0.0062587
-0.10336,-0.0074177,-0.0093392,0.004053
-0.094257,-0.025661,-0.0051267,0.00072294
-0.07262,-0.026081,0.00050265,-0.0013864
-0.015238,-0.036749,0.002384,0.0015792
0.054114,-0.080769,0.0014729,0.0095838
0.089072,-0.12959,0.0043423,0.016048
0.085654,-0.14782,0.013028,0.013851
0.079328,-0.13425,0.023236,0.0036121
0.074564,-0.10845,0.029852,-0.0067266
0.053277,-0.08438,0.031139,-0.011273
0.020548,-0.047619,0.027734,-0.010848
-0.018521,0.025997,0.020149,-0.0078463
-0.070993,0.11874,0.0047515,-0.0026442
-0.12556,0.18015,-0.018077,0.0035073
-0.1538,0.18304,-0.033445,0.0071646
-0.14742,0.15438,-0.03214,0.0068628
-0.12848,0.12233,-0.028655,0.0047575
-0.12482,0.072361,-0.034738,0.0033124
-0.13264,0.017058,-0.044422,0.0035047
-0.11317,-0.030941,-0.047714,0.0047125
-0.050187,-0.080293,-0.042515,0.0060183
0.02736,-0.10675,-0.027533,0.0072252
0.089809,-0.10857,-0.0023957,0.0068404
0.12321,-0.10667,0.016788,0.0025343
0.11843,-0.10214,0.021726,-0.0053651
0.074106,-0.10011,0.020978,-0.013216
0.0096483,-0.092532,0.016548,-0.016759
-0.03143,-0.060386,0.0042294,-0.014116
-0.03307,-0.017613,-0.014729,-0.0068269
-0.027418,0.0063629,-0.028608,0.0014009
-0.030886,-0.001769,-0.025615,0.006875
-0.045204,-0.033279,-0.01156,0.0081918
-0.07805,-0.050354,-0.0046032,0.0069392
-0.092178,-0.044537,-0.0072649,0.0058996
-0.047499,-0.068727,-0.0089142,0.0066873
0.029884,-0.1357,-0.0075872,0.0093389
0.095619,-0.19289,-0.0018654,0.012866
0.13295,-0.21106,0.0065145,0.015287
0.15007,-0.19997,0.0083535,0.015633
0.15528,-0.16398,0.0055032,0.01495
0.14644,-0.099997,0.0064116,0.013347
0.12871,0.0079364,0.014504,0.0083882
0.11082,0.16976,0.018637,-0.001586
0.086003,0.33617,0.0040506,-0.013278
0.032396,0.42428,-0.019837,-0.020504
-0.020031,0.38727,-0.0374,-0.020182
0.0070066,0.2546,-0.038939,-0.014467
0.084276,0.084347,-0.020511,-0.0080181
0.099889,-0.075363,0.0056036,-0.0039874
0.053842,-0.17691,0.023058,-0.0021979
0.027046,-0.20949,0.020278,0.00034705
0.030021,-0.1883,0.0001937,0.0058482
0.022844,-0.13076,-0.015322,0.011898
-0.00080869,-0.088463,-0.0074275,0.014836
0.00087111,-0.085112,0.016855,0.014987
0.043323,-0.070613,0.034743,0.013659
0.058134,-0.049452,0.038307,0.0092454
0.019206,-0.070333,0.037198,0.0017809
0.010422,-0.10135,0.039099,-0.0047296
0.081579,-0.086508,0.040449,-0.0082735
0.18161,-0.01276,0.036636,-0.010181
0.23467,0.099378,0.029887,-0.01128
0.20556,0.18086,0.025137,-0.011847
0.12222,0.17218,0.021684,-0.012091
0.033628,0.11558,0.012581,-0.011776
-0.043015,0.06804,0.0026081,-0.010464
-0.093105,0.045053,0.0022383,-0.0067976
-0.090255,0.078624,0.0072218,-8.6109e-06
-0.040188,0.13962,0.011742,0.0073528
0.01841,0.14474,0.017288,0.010703
0.054194,0.099327,0.021336,0.0076964
0.06198,0.063597,0.017444,0.0013334
0.047928,0.038376,0.010919,-0.0027685
0.014473,0.0028813,0.01432,-0.0023395
-0.023676,-0.010709,0.019484,0.0010946
-0.037353,0.020151,0.016814,0.0053569
-0.036978,0.058634,0.016189,0.0078296
-0.069331,0.059535,0.016993,0.0064974
-0.13565,0.039725,0.0070319,0.0017152
-0.18354,0.05463,-0.010463,-0.0052619
-0.17646,0.064409,-0.018845,-0.011287
-0.13231,0.015297,-0.0094468,-0.012035
-0.082122,-0.027744,0.009157,-0.0085466
-0.042676,-0.013702,0.020696,-0.006671
-0.026772,0.024277,0.019427,-0.0090151
-0.021787,0.042552,0.012908,-0.012384
-0.017743,0.035549,0.0062891,-0.012369
-0.02114,0.026543,-0.0014594,-0.0078597
-0.019151,0.021178,-0.0070086,4.707e-05
-0.0096726,0.005019,-0.008096,0.011214
-0.010894,-0.025983,-0.0078495,0.023359
-0.030363,-0.058278,-0.0066806,0.028414
-0.067609,-0.069891,-0.0054761,0.020233
-0.11025,-0.060588,-0.010847,0.0051906
-0.13866,-0.063244,-0.027558,-0.0042836
-0.14677,-0.083095,-0.039401,-0.0042582
-0.11551,-0.084968,-0.025146,0.00039039
-0.024701,-0.069077,0.0076927,0.0036338
0.07918,-0.060751,0.032104,0.0023261
0.11896,-0.021236,0.031608,-0.003687
0.078009,0.067756,0.019405,-0.012401
0.0041444,0.10167,0.017347,-0.020044
-0.039,0.032253,0.024948,-0.023784
-0.033039,-0.038184,0.029117,-0.022966
-0.019083,-0.0459,0.023707,-0.017425
-0.024716,-0.02424,0.011603,-0.0082988
-0.043716,-0.010086,-0.0030686,0.001576
-0.070354,-0.015616,-0.018272,0.010737
-0.096405,-0.026286,-0.031021,0.01858
-0.11733,-0.037814,-0.035943,0.021458
-0.11521,-0.070408,-0.027861,0.016187
-0.060701,-0.1121,-0.017093,0.0060916
0.014465,-0.12007,-0.020736,-0.002335
0.043486,-0.077473,-0.033303,-0.0053762
0.019633,-0.0064106,-0.039156,-0.0033044
-0.010801,0.040478,-0.038325,-0.00050504
-0.022506,0.055244,-0.041936,-0.0030976
-0.026905,0.092251,-0.047608,-0.011452
-0.019721,0.12926,-0.040544,-0.018734
0.019581,0.11276,-0.023267,-0.019331
0.072103,0.075892,-0.010143,-0.012355
0.089028,0.055996,-0.0042306,0.0014598
0.060338,0.032719,-0.0031157,0.019293
0.023334,-0.016675,-0.0035468,0.034162
-0.00087355,-0.075602,0.002118,0.038878
-0.022607,-0.11019,0.017526,0.033383
-0.031102,-0.10864,0.03285,0.024789
-0.018039,-0.088785,0.035731,0.017276
-0.013758,-0.06201,0.02542,0.005449
-0.030459,-0.02036,0.0097428,-0.014935
-0.047677,0.021284,-0.0026574,-0.036029
-0.035474,0.038476,-0.0097667,-0.047066
0.017842,0.046669,-0.013542,-0.046355
0.073464,0.075085,-0.017747,-0.039107
0.097848,0.11469,-0.023073,-0.029195
0.092979,0.12774,-0.021505,-0.016498
0.052072,0.10814,-0.013383,-0.0021127
-0.0022783,0.085264,-0.009525,0.0097375
-0.023964,0.063202,-0.010384,0.018095
-0.013664,0.034857,-0.010687,0.025091
0.01303,0.028803,-0.0097306,0.02942
0.033018,0.04289,-0.0064377,0.029375
0.018961,0.025812,-0.0042899,0.02779
-0.0017993,-0.024058,-0.0029997,0.026663
0.0090416,-0.068204,0.0081007,0.022102
0.042652,-0.086508,0.027944,0.010267
0.074237,-0.079191,0.042973,-0.0053683
0.061075,-0.053187,0.046027,-0.018314
-0.024126,-0.024434,0.037962,-0.025585
-0.098652,-0.018785,0.024569,-0.025783
-0.06342,-0.027503,0.009349,-0.01729
0.036958,-0.044654,-0.0078056,-0.00097352
0.098886,-0.090855,-0.020985,0.017779
0.10324,-0.13283,-0.020942,0.03178
0.095858,-0.13228,-0.0044897,0.038272
0.10881,-0.093888,0.018879,0.039579
0.12677,-0.00015694,0.03443,0.036718
0.1085,0.12245,0.038597,0.028121
0.04883,0.16811,0.041304,0.014599
-0.01697,0.11905,0.047103,-0.0014762
-0.074551,0.081256,0.045406,-0.018136
-0.11149,0.088002,0.028044,-0.031478
-0.094522,0.065811,0.00019525,-0.037994
-0.04412,-0.010781,-0.025851,-0.037518
-0.0231,-0.093381,-0.037553,-0.03033
-0.032868,-0.12317,-0.031819,-0.016873
-0.018338,-0.079525,-0.023596,-0.001446
0.055966,-0.017803,-0.024367,0.010229
0.14382,-0.018183,-0.026671,0.01658
0.16141,-0.067892,-0.022391,0.01878
0.10828,-0.081369,-0.0086515,0.017154
0.044325,-0.044114,0.0077007,0.01282
0.00076578,-0.014394,0.017237,0.0086479
-0.019989,-0.013695,0.023334,0.0060761
-0.019589,-0.0096826,0.025572,0.0048245
-0.0016064,0.022804,0.020651,0.0049862
0.022896,0.051567,0.014353,0.0062387
0.035285,0.032174,0.0088123,0.0065406
0.016189,-0.010255,0.0035041,0.0032817
-0.019725,-0.017119,0.0027705,-0.0033552
-0.019751,0.0068591,0.0051049,-0.0074903
0.0063992,0.033673,0.00086413,-0.0026713
-0.00034545,0.084109,-0.012295,0.0081049
-0.027344,0.15269,-0.026057,0.014445
-0.033738,0.173,-0.035242,0.010855
-0.027759,0.11511,-0.034238,0.00011412
-0.042591,0.025261,-0.019675,-0.013463
-0.074317,-0.045245,-0.0074349,-0.027077
-0.086885,-0.062525,-0.01012,-0.036987
-0.08618,-0.024325,-0.015976,-0.039424
-0.085565,-0.0013823,-0.0097099,-0.03515
-0.070821,-0.035076,0.0065503,-0.029292
-0.043258,-0.071079,0.016327,-0.02547
-0.012896,-0.067339,0.010847,-0.022307
0.012103,-0.030661,-0.0011912,-0.018096
0.025912,0.013063,-0.010245,-0.014765
0.031447,0.054082,-0.013905,-0.012682
0.02646,0.097651,-0.012794,-0.0082758
0.006133,0.10943,-0.008877,0.00018006
-0.014899,0.071618,-0.004905,0.010372
-0.018511,0.019608,-0.0015174,0.019392
-0.0049616,-0.028625,0.0017007,0.024275
0.022024,-0.067326,7.9355e-05,0.022268
0.038043,-0.074898,-0.0073051,0.014893
0.012894,-0.047663,-0.012647,0.0083146
-0.032048,-0.013989,-0.0095443,0.0072546
-0.063289,-0.014751,0.0023323,0.0089616
-0.085957,-0.045696,0.013598,0.0075805
-0.10918,-0.06517,0.0080433,0.0028004
-0.11812,-0.090937,-0.011897,-0.0021745
-0.11081,-0.12327,-0.019955,-0.0075323
-0.099976,-0.089298,-0.0046965,-0.0166
-0.06414,-0.0057142,0.01732,-0.028749
0.012001,0.021087,0.028914,-0.036894
0.091976,-0.037015,0.030605,-0.034364
0.13508,-0.077806,0.031979,-0.021201
0.1273,-0.0141,0.034335,-0.003658
0.075293,0.081647,0.033411,0.010587
0.0051518,0.096652,0.026714,0.017149
-0.05767,0.041333,0.010439,0.016872
-0.10693,0.018164,-0.015119,0.014266
-0.14345,0.066327,-0.042109,0.013083
-0.152,0.096398,-0.056231,0.013352
-0.1093,0.068269,-0.047965,0.013621
-0.030575,0.039334,-0.027519,0.014361
0.051008,0.012906,-0.0049168,0.016635
0.13044,-0.024548,0.018072,0.01973
0.20355,-0.067664,0.036376,0.022046
0.24948,-0.12594,0.043997,0.022532
0.25751,-0.1676,0.03763,0.019594
0.21639,-0.15726,0.022846,0.0112
0.12436,-0.11889,0.01141,-0.0011951
0.029911,-0.076546,0.01038,-0.012755
-0.02839,-0.024951,0.015456,-0.019211
-0.02992,0.027131,0.016377,-0.017997
0.03233,0.051853,0.014699,-0.0093519
0.088199,0.055535,0.017966,0.0021711
0.08354,0.087356,0.018941,0.010982
0.042031,0.13234,0.0060212,0.014675
-0.0029885,0.11074,-0.013058,0.013973
-0.019108,0.026579,-0.016638,0.01101
0.0028112,-0.034217,-0.0050164,0.0073602
0.024628,-0.040049,0.00030702,0.0037484
0.019941,-0.039696,-0.0046275,0.0012177
-0.014633,-0.053427,-0.0070718,0.00031849
-0.074448,-0.046531,-0.0016472,0.00068742
-0.12796,-0.011285,0.0050993,0.0033823
-0.14543,0.00982,0.0083713,0.010657
-0.11688,0.0099866,0.0095261,0.019411
-0.054094,0.030498,0.0075537,0.02012
0.0064483,0.060377,0.0002951,0.0090021
0.024045,0.043867,-0.011634,-0.0052336
-0.0056925,-0.014545,-0.020134,-0.012197
-0.031854,-0.016117,-0.019719,-0.010709
-0.015108,0.075201,-0.01978,-0.0069224
0.022857,0.13463,-0.028943,-0.0074116
0.043902,0.095216,-0.041033,-0.013649
0.043912,0.051419,-0.045372,-0.020876
0.045768,0.02856,-0.037105,-0.02385
0.044409,-0.015955,-0.019875,-0.022363
0.016722,-0.039469,-0.0074985,-0.018111
-0.023149,-0.014934,-0.0055414,-0.010732
-0.050795,0.019315,-0.0018993,-0.0011444
-0.066074,0.043754,0.0058278,0.0071523
-0.0803,0.058721,0.0071264,0.012637
-0.10426,0.058901,-0.00025741,0.016605
-0.1299,0.056159,-0.0074264,0.01928
-0.13252,0.054973,-0.0027494,0.018717
-0.1033,0.031177,0.0087387,0.013542
-0.058585,-0.011948,0.0098942,0.0056046
-0.029679,-0.039972,0.0031436,-0.00089922
-0.030787,-0.041112,0.0047971,-0.0042404
-0.034079,-0.031107,0.014432,-0.0073189
-0.015564,-0.021145,0.019147,-0.012199
0.0076908,-0.0068933,0.016162,-0.016524
0.010079,0.016797,0.014664,-0.017842
0.0028586,0.052222,0.01946,-0.016639
0.0052577,0.096086,0.023873,-0.013915
0.0041649,0.12575,0.021824,-0.0095908
0.0043005,0.11212,0.016703,-0.0048908
0.021543,0.066836,0.01149,-0.0024607
0.033637,0.030252,-0.0036396,-0.0025502
0.019567,0.015157,-0.037361,-0.00278
-0.018474,0.013995,-0.072895,-0.001494
-0.072346,0.015113,-0.080448,0.0011828
-0.11726,-0.0073045,-0.058852,0.0047147
-0.11796,-0.051495,-0.033049,0.007939
-0.040984,-0.082768,-0.012071,0.0087433
0.11554,-0.099561,0.0094416,0.0059956
0.2497,-0.10616,0.02815,-0.00014058
0.24152,-0.077171,0.039999,-0.0080792
0.12955,-0.017491,0.04872,-0.01375
0.029449,0.0015078,0.055451,-0.013865
-0.014084,-0.058857,0.057625,-0.010194
-0.010923,-0.13415,0.057932,-0.0065862
0.0072218,-0.15552,0.055655,-0.0036671
0.02012,-0.11706,0.044801,0.00051167
0.020642,-0.065136,0.027445,0.006741
0.0079546,-0.055542,0.010973,0.013064
0.021356,-0.078183,-0.0029189,0.01605
0.081185,-0.044825,-0.01632,0.012739
0.13746,0.067157,-0.027581,0.0021389
0.14469,0.15382,-0.035373,-0.012295
0.10541,0.15485,-0.041864,-0.023611
0.040654,0.10207,-0.046369,-0.027121
-0.022163,0.042524,-0.045344,-0.022694
-0.066959,-0.0033699,-0.035468,-0.013921
-0.10008,-0.055933,-0.018105,-0.0056116
-0.11606,-0.1063,-0.0014013,0.0010041
-0.11044,-0.11407,0.0052461,0.0096726
-0.095244,-0.088803,0.0010098,0.024387
-0.067485,-0.061797,0.00029758,0.042615
-0.024381,-0.036827,0.0089535,0.05386
0.016806,-0.011309,0.016404,0.047648
0.047062,0.0055028,0.020734,0.025252
0.049982,0.0063586,0.025979,0.0011547
0.009041,-0.00048329,0.026814,-0.011139
-0.026156,-0.0054896,0.016705,-0.010876
5.7101e-05,0.0056758,-0.00091583,-0.0060441
0.061625,0.033263,-0.016369,-0.003936
0.094793,0.048358,-0.01799,-0.0074561
0.07685,0.046451,-0.0063847,-0.015976
0.04634,0.045831,0.0026899,-0.024938
0.037976,0.04508,0.0022843,-0.028223
0.03073,0.03327,-0.0017429,-0.023585
0.011793,-0.002804,-0.003835,-0.013258
0.0094082,-0.050933,0.0016694,-0.00090957
0.021894,-0.069471,0.015102,0.01122
0.019286,-0.053599,0.02492,0.022691
0.00022375,-0.028889,0.021452,0.03249
-0.023783,-0.0086596,0.0067245,0.038034
-0.051214,-0.00056882,-0.0087875,0.037425
-0.079084,-0.0026539,-0.018928,0.031229
-0.10163,-0.0021085,-0.021357,0.022447
-0.10022,0.011798,-0.011442,0.014688
-0.054223,0.037806,0.0054537,0.0086283
0.0048233,0.052641,0.016367,0.0031375
0.018376,0.048097,0.016701,-0.00014226
-0.021991,0.04888,0.014868,0.0014891
-0.075589,0.064555,0.018903,0.0070316
-0.096148,0.06861,0.021124,0.012544
-0.067479,0.033886,0.018565,0.015057
-0.020763,-0.041677,0.021154,0.013869
0.0034014,-0.11524,0.02634,0.0092507
0.023389,-0.14128,0.026101,0.0019436
0.079016,-0.14809,0.019387,-0.0062047
0.14141,-0.13519,0.0083915,-0.01336
0.16422,-0.082362,-0.0060363,-0.019471
0.13343,-0.027153,-0.025304,-0.025158
0.052305,0.040886,-0.043502,-0.030061
-0.030498,0.12335,-0.047532,-0.03388
-0.065953,0.14676,-0.029721,-0.036289
-0.065529,0.085684,-0.0027347,-0.035065
-0.065753,0.0085555,0.0081113,-0.02829
-0.071281,-0.020839,0.00079042,-0.016901
-0.069216,-0.0063907,-0.0062298,-0.0029741
-0.07441,0.0253,-0.007583,0.010525
-0.084028,0.050738,-0.0066728,0.020019
-0.076079,0.044006,-0.0034661,0.024534
-0.05411,0.0037589,-0.0017375,0.024663
-0.02124,-0.031098,-0.0076511,0.020607
0.013993,-0.033486,-0.017643,0.014041
0.038548,-0.024478,-0.023545,0.00724
0.057714,-0.030266,-0.023494,0.0011734
0.070832,-0.058027,-0.019309,-0.0044283
0.0733,-0.090559,-0.016171,-0.0099078
0.071821,-0.082307,-0.015443,-0.014334
0.064932,-0.018335,-0.0097443,-0.018092
0.048946,0.053443,0.00084782,-0.02355
0.038522,0.080362,0.0065441,-0.030056
0.044519,0.059617,0.0012587,-0.033717
0.052779,0.033187,-0.01208,-0.032427
0.035104,0.056532,-0.026059,-0.027659
-0.031616,0.12021,-0.037219,-0.021856
-0.1204,0.15156,-0.042354,-0.015927
-0.15836,0.14578,-0.039863,-0.0099162
-0.11261,0.11367,-0.032776,-0.0045257
-0.036517,0.023693,-0.022888,-0.0011763
-0.0003902,-0.071734,-0.014385,-0.00017638
-0.0080211,-0.096165,-0.0085696,0.00034821
-0.016881,-0.079938,-0.00087297,0.0023163
0.0050352,-0.07032,0.0093808,0.0057412
0.045398,-0.055535,0.01681,0.0097612
0.065893,-0.019541,0.017003,0.014433
0.050493,0.014502,0.016507,0.019557
0.0088153,0.016214,0.022589,0.022719
-0.035255,0.0078738,0.027418,0.021392
-0.054961,0.024391,0.018005,0.015829
-0.048924,0.047386,-0.0038535,0.0081353
-0.034393,0.040547,-0.023771,-0.00036001
-0.024721,0.005316,-0.034766,-0.0096427
-0.02152,-0.030451,-0.036021,-0.019179
-0.0042671,-0.054275,-0.024429,-0.025514
0.045224,-0.067167,-0.0098632,-0.022787
0.1192,-0.075139,-0.001545,-0.0093706
0.19903,-0.081583,0.010178,0.0081899
0.24458,-0.073413,0.025298,0.021081
0.22246,-0.051652,0.035063,0.025246
0.17778,-0.046512,0.043537,0.021953
0.17415,-0.069925,0.052639,0.015019
0.18955,-0.083288,0.05231,0.0089741
0.15988,-0.014103,0.03667,0.0069506
0.060265,0.1483,0.017177,0.0091799
-0.093156,0.26229,0.01138,0.013737
-0.25698,0.21088,0.015395,0.017537
-0.35101,0.077988,0.01332,0.017807
-0.29706,0.012885,-0.001919,0.013814
-0.13119,0.058893,-0.03489,0.0066299
0.014493,0.10983,-0.064191,-0.0012409
0.058113,0.063512,-0.057035,-0.0067056
0.021286,-0.03691,-0.025346,-0.0082256
0.00084375,-0.12088,0.0033192,-0.0066838
0.045525,-0.16842,0.024162,-0.004375
0.07989,-0.17763,0.036235,-0.0031721
0.037776,-0.16722,0.035825,-0.0027219
-0.035878,-0.15141,0.027442,-0.00010247
-0.059154,-0.11762,0.017861,0.0056587
-0.015211,-0.068636,0.0083246,0.0097718
0.06847,-0.028799,0.0014667,0.0072029
0.13586,0.0076538,-0.0024921,0.00055805
0.12371,0.057813,-0.0094087,-0.0014047
0.064154,0.088981,-0.018688,0.0060542
0.021738,0.069229,-0.023819,0.016652
0.0087706,0.034301,-0.022388,0.019777
0.031729,0.013528,-0.016064,0.012381
0.048787,0.0045129,-0.011222,8.2589e-07
-0.026193,0.033485,-0.01639,-0.009646
-0.17947,0.10961,-0.026577,-0.012522
-0.29385,0.18065,-0.029852,-0.010917
-0.30108,0.17319,-0.028436,-0.0093119
-0.23568,0.086748,-0.02767,-0.0092594
-0.14814,0.0023186,-0.023608,-0.0094836
-0.069496,-0.047449,-0.014736,-0.0089671
-0.032811,-0.084533,-0.0037559,-0.0088606
-0.043001,-0.11563,0.0095449,-0.010198
-0.061767,-0.12822,0.021803,-0.011449
-0.065113,-0.11017,0.022464,-0.010587
-0.059404,-0.072627,0.011332,-0.0072366
-0.030582,-0.040396,0.0010752,-0.0023589
0.021943,-0.024073,-0.0039838,0.0020864
0.043242,-0.015133,-0.0062552,0.0048652
0.0093572,-0.013011,-0.0067217,0.0062334
-0.034513,-0.015223,-0.009633,0.005863
-0.058302,0.0089406,-0.015787,0.0035181
-0.072049,0.073226,-0.01717,0.00057592
-0.083247,0.11508,-0.011946,-0.0013325
-0.092689,0.081557,-0.0069056,-0.0014538
-0.10377,0.039954,-0.00033446,8.9708e-06
-0.09964,0.027323,0.011694,0.0025734
-0.064861,-0.002745,0.020137,0.0055677
-0.017544,-0.012664,0.015405,0.0080784
0.040609,0.055864,0.0013978,0.010953
0.11435,0.12903,-0.008523,0.014721
0.16898,0.10319,-0.0055301,0.01455
0.16905,0.010878,0.0058776,0.0038257
0.12154,-0.04747,0.016749,-0.016496
0.07645,-0.042011,0.021747,-0.036346
0.063806,0.0050445,0.014397,-0.045711
0.06294,0.071896,-0.0030021,-0.042333
0.044175,0.11403,-0.014084,-0.031802
-0.0038588,0.1121,-0.014665,-0.022021
-0.066575,0.10475,-0.0094352,-0.014427
-0.10935,0.10248,0.0026572,-0.0043743
-0.095611,0.082519,0.015131,0.0094571
-0.021715,0.027022,0.019306,0.023366
0.066191,-0.052593,0.019262,0.034193
0.1191,-0.10692,0.023767,0.041182
0.14013,-0.098229,0.026665,0.044349
0.14957,-0.029441,0.021022,0.044011
0.14227,0.05328,0.017157,0.038794
0.12433,0.087584,0.020551,0.02431
0.11206,0.060122,0.020625,0.00027955
0.096461,0.014021,0.0085969,-0.024741
0.07972,-0.01825,-0.0081277,-0.041084
0.085942,-0.025117,-0.015369,-0.045004
0.10951,0.0048893,-0.0069116,-0.037439
0.11451,0.053212,0.0063368,-0.02292
0.087906,0.090021,0.011388,-0.0087279
0.052747,0.10772,0.011425,0.00022443
0.038517,0.091078,0.0087309,0.0036851
0.054054,0.022858,0.0053585,0.0044079
0.07068,-0.070803,0.008081,0.0052116
0.05222,-0.13784,0.011443,0.0050888
0.0057702,-0.15899,0.0083761,0.0028741
-0.021814,-0.16139,0.0050573,0.0017036
0.0041019,-0.18231,0.0056708,0.0043326
0.055171,-0.20736,0.0039168,0.01006
0.068725,-0.18355,0.00059654,0.016234
0.032,-0.10333,0.0063288,0.02011
-0.025478,0.0090331,0.015149,0.021172
-0.074961,0.098506,0.012425,0.021154
-0.095881,0.1251,0.0022824,0.020635
-0.067201,0.12146,-0.0018075,0.017194
0.016224,0.085614,0.00045884,0.0099365
0.09362,0.0090757,-0.0018349,0.003688
0.073266,-0.050824,-0.0069913,0.0049591
-0.051585,-0.052906,-0.0064334,0.012866
-0.18819,-0.034973,-0.0062608,0.016635
-0.24294,-0.047538,-0.013121,0.0075431
-0.18343,-0.080363,-0.016916,-0.0094641
-0.07041,-0.11018,-0.0080552,-0.021468
-0.0012339,-0.12121,0.0054946,-0.020738
-0.010105,-0.10982,0.013383,-0.0087031
-0.063865,-0.08471,0.011897,0.0068049
-0.10578,-0.041045,0.0024767,0.016436
-0.089979,-0.004903,-0.0053863,0.017101
-0.016854,-0.02031,-0.010047,0.012414
0.036538,-0.075287,-0.017227,0.0059239
0.0091915,-0.1056,-0.021053,-0.00087167
-0.056131,-0.049657,-0.015261,-0.0070736
-0.10398,0.077793,-0.010318,-0.012109
-0.13607,0.16497,-0.014534,-0.015131
-0.16156,0.12261,-0.018434,-0.013452
-0.17593,0.0058131,-0.02025,-0.0067054
-0.17666,-0.072483,-0.028374,-0.00090204
-0.164,-0.08599,-0.034337,-0.00013829
-0.1414,-0.076747,-0.029234,-0.00048298
-0.10433,-0.07159,-0.02151,0.0035088
-0.058735,-0.058808,-0.017462,0.011858
-0.03578,-0.019208,-0.014929,0.019478
-0.041893,0.068177,-0.014837,0.021702
-0.058002,0.19092,-0.017901,0.017679
-0.065067,0.25873,-0.018667,0.0077806
-0.019319,0.21766,-0.013174,-0.0075469
0.1062,0.12337,-0.0010464,-0.024782
0.26013,0.045723,0.013708,-0.038355
0.35868,0.0036887,0.02524,-0.04546
0.36694,-0.025596,0.033142,-0.046079
0.29888,-0.062199,0.040414,-0.041491
0.18882,-0.07561,0.043738,-0.036163
0.091002,-0.034565,0.035608,-0.033763
0.025135,0.022806,0.016827,-0.030356
-0.048067,0.062235,-0.0081244,-0.019287
-0.16048,0.079742,-0.036551,-0.0011826
-0.31129,0.028504,-0.051559,0.016256
-0.45754,-0.065452,-0.037697,0.026005
-0.46945,-0.085678,-0.012904,0.026136
-0.26689,-0.032404,0.0018435,0.018893
0.014323,0.0010803,0.007569,0.0075563
0.20904,-0.0178,0.010233,-0.0049048
0.30116,-0.049543,0.013479,-0.014732
0.33542,-0.052821,0.017532,-0.018391
0.33592,-0.023224,0.02299,-0.01567
0.31433,0.020978,0.030779,-0.010929
0.283,0.044444,0.037444,-0.0093272
0.24051,0.013907,0.041219,-0.011607
0.17696,-0.048952,0.042539,-0.015095
0.091993,-0.084771,0.041856,-0.017854
0.012771,-0.072367,0.039903,-0.019181
-0.025638,-0.033094,0.034087,-0.017555
-0.036516,0.022925,0.02375,-0.011651
-0.067822,0.06985,0.016258,-0.0029039
-0.13519,0.037195,0.016082,0.0059294
-0.17077,-0.061545,0.017612,0.013585
-0.11156,-0.11723,0.01857,0.020868
-0.026606,-0.091553,0.018983,0.027897
-0.00048608,-0.022747,0.014452,0.031781
-0.0087144,0.025755,0.011799,0.030067
-0.01929,-0.0003571,0.019192,0.023542
-0.053932,-0.034151,0.022046,0.014427
-0.10806,0.036826,0.0099872,0.005304
-0.12541,0.13827,0.0014938,-0.0013212
-0.049186,0.11566,0.0095305,-0.0040178
0.080062,-0.0060179,0.02113,-0.0028412
0.13826,-0.10871,0.024991,0.0004429
0.10109,-0.13887,0.025795,0.0036606
0.040232,-0.099733,0.0251,0.0061137
-0.014652,-0.0076221,0.012703,0.0087426
-0.041387,0.096304,-0.0093394,0.012972
0.0044348,0.15429,-0.021374,0.018265
0.088022,0.15113,-0.018881,0.022277
0.095499,0.11271,-0.012951,0.024028
-0.017332,0.061662,-0.0051682,0.024026
-0.15344,-0.0078793,0.0029976,0.021892
-0.18916,-0.062221,0.0077222,0.016679
-0.11364,-0.066668,0.013422,0.0092911
-0.022168,-0.062294,0.016968,0.0021375
0.0014244,-0.07459,0.0092326,-0.0033313
-0.028449,-0.09303,-0.0034975,-0.0069539
-0.025951,-0.10078,-0.0096085,-0.0079505
0.050128,-0.085987,-0.0091991,-0.0052623
0.14602,-0.052053,-0.0016682,0.00023673
0.18935,-0.0089861,0.012122,0.0061146
0.15479,0.022131,0.017003,0.011239
0.064045,0.056073,0.001743,0.016461
-0.04903,0.13514,-0.027728,0.021304
-0.14226,0.21023,-0.049829,0.022307
-0.16529,0.20707,-0.047119,0.016237
-0.13572,0.17958,-0.032503,0.0043073
-0.10811,0.15437,-0.027104,-0.008647
-0.088114,0.065964,-0.029229,-0.018386
-0.067819,-0.042202,-0.025565,-0.022893
-0.041737,-0.08184,-0.011823,-0.022288
-0.0043279,-0.060362,0.00093327,-0.018324
0.032357,-0.018697,-0.0039242,-0.012414
0.04643,0.0090823,-0.024911,-0.0047048
0.032557,0.0075853,-0.043261,0.0037918
0.010641,-0.0014595,-0.048194,0.010202
0.0090989,0.00040496,-0.043866,0.012402
0.029436,-0.0039533,-0.038032,0.011216
0.026453,-0.025821,-0.030403,0.0087844
-0.021577,-0.046135,-0.018757,0.0058022
-0.072323,-0.049518,-0.0082653,0.0012007
-0.088382,-0.043791,-0.0029673,-0.0062278
-0.082057,-0.044,-0.0043214,-0.015014
-0.079384,-0.045166,-0.01413,-0.021449
-0.081593,-0.029556,-0.025193,-0.023718
-0.077133,-0.002267,-0.024291,-0.022904
-0.053448,0.013919,-0.013814,-0.020861
-0.019885,0.029975,-0.0070241,-0.018131
-0.010478,0.053748,-0.0039103,-0.01377
-0.029188,0.043047,0.00027079,-0.0075686
-0.041914,0.00054513,0.0047146,-0.0010484
-0.023136,-0.014004,0.0086769,0.0045585
0.016519,0.0048303,0.0072703,0.0095278
0.062576,0.015904,-0.0034118,0.014028
0.10118,0.0028528,-0.016979,0.01702
0.10576,-0.032624,-0.026204,0.017009
0.06737,-0.080609,-0.027602,0.013461
0.0001521,-0.11822,-0.021441,0.0066977
-0.056523,-0.12663,-0.011985,-0.0035536
-0.072529,-0.10254,-0.0015229,-0.015791
-0.073897,-0.044669,0.0043116,-0.024693
-0.088238,0.01839,0.0048909,-0.026001
-0.074751,0.031999,0.0069146,-0.021257
0.0090152,0.010839,0.0065986,-0.014693
0.1217,-0.0054705,0.0025877,-0.0070893
0.21395,-0.018168,0.00093897,0.0020039
0.26409,-0.00028834,-0.0018044,0.0090726
0.24729,0.065118,-0.0062389,0.011034
0.18618,0.11297,-0.0038625,0.0092981
0.12516,0.10308,0.008087,0.0058308
0.069945,0.10709,0.024723,0.0018433
0.0044056,0.15667,0.034058,0.00042097
-0.074793,0.15658,0.030751,0.0038726
-0.13491,0.058339,0.028489,0.0091688
-0.12984,-0.069937,0.034152,0.010961
-0.049953,-0.15182,0.035459,0.0080282
0.055246,-0.18671,0.030663,0.0033725
0.11529,-0.20098,0.028377,-0.00081157
0.12431,-0.14653,0.023835,-0.0041343
0.13615,-0.047854,0.014676,-0.0052521
0.15593,-0.028588,0.0077669,-0.0043731
0.15262,-0.056306,0.0040158,-0.0063673
0.12762,-0.023079,0.0043449,-0.01401
0.091759,0.066946,0.0069553,-0.022259
0.063761,0.16037,0.0070167,-0.024767
0.060222,0.20413,0.0051929,-0.019827
0.050234,0.17757,-0.00018495,-0.0085264
0.0055408,0.13188,-0.0091951,0.0051543
-0.047113,0.10314,-0.016459,0.01295
-0.11997,0.073093,-0.013156,0.0086245
-0.24534,0.038365,-0.00018808,-0.0023706
-0.34117,0.0058688,0.0024096,-0.0066451
-0.31745,-0.027594,-0.0069445,0.00078737
-0.19896,-0.059036,-0.0042616,0.01132
-0.054269,-0.061112,0.014764,0.015967
0.065708,-0.020297,0.034225,0.014617
0.13432,0.025288,0.046869,0.011039
0.14665,0.045423,0.051875,0.0075318
0.1265,0.057807,0.047844,0.0037841
0.1027,0.093331,0.038829,-0.000171
0.069397,0.12388,0.029663,-0.0020605
0.02115,0.09747,0.021003,-0.002276
-0.026697,0.042157,0.015656,-0.0027813
-0.072875,0.012595,0.0077285,-0.0018054
-0.11969,0.0038066,-0.016158,0.0027255
-0.14962,-0.029943,-0.050548,0.0090788
-0.1393,-0.10448,-0.073851,0.013576
-0.0906,-0.17811,-0.072497,0.015066
-0.033952,-0.1983,-0.050411,0.015933
0.0069055,-0.14969,-0.021554,0.015796
0.023085,-0.063485,0.00040476,0.010975
0.011305,0.027926,0.0057491,0.0022446
-0.011804,0.10846,-0.0055396,-0.0055007
-0.020954,0.13992,-0.01794,-0.010096
-0.0133,0.10288,-0.014857,-0.01296
-0.010751,0.040526,0.00012638,-0.015551
-0.0241,-0.0096747,0.013155,-0.017647
-0.036597,-0.054391,0.019067,-0.017064
-0.048577,-0.092267,0.017865,-0.010176
-0.068438,-0.10464,0.014247,0.0039812
-0.06869,-0.083465,0.014128,0.018551
-0.040189,-0.03271,0.01156,0.025351
-0.03195,0.012967,-0.0015566,0.025823
-0.059118,0.018716,-0.017907,0.026572
-0.055863,0.0048606,-0.024169,0.029104
0.0093722,-0.0056814,-0.019986,0.029429
0.08346,-0.027096,-0.01595,0.024263
0.11885,-0.06253,-0.020069,0.015222
0.11747,-0.089545,-0.030446,0.0077405
0.098711,-0.055951,-0.037382,0.0056618
0.064019,0.050152,-0.036754,0.0067036
0.007238,0.10957,-0.032632,0.0057737
-0.045876,0.046844,-0.028166,0.00012424
-0.058222,-0.04714,-0.023643,-0.010199
-0.042383,-0.095497,-0.014091,-0.022898
-0.039627,-0.1103,0.0014616,-0.034115
-0.059638,-0.097985,0.012302,-0.040416
-0.072322,-0.06061,0.01541,-0.040389
-0.042801,-0.025656,0.018574,-0.033918
0.0085785,0.0020592,0.01977,-0.021984
0.025271,0.02676,0.010719,-0.0086578
0.012434,0.046385,-0.0047466,-0.00022311
0.01747,0.07367,-0.0099407,0.00024907
0.036422,0.096215,0.0030757,-0.0036756
0.045104,0.096469,0.019716,-0.0059141
0.052176,0.081549,0.026134,-0.0046407
0.067602,0.062617,0.02692,-0.00345
0.077,0.033011,0.022622,-0.0062495
0.064087,-0.029293,0.0078312,-0.011555
0.032151,-0.094311,-0.0050953,-0.013376
-0.0044598,-0.1031,-0.0075848,-0.0079406
-0.031533,-0.064209,-0.01224,0.0037147
-0.049539,-0.023506,-0.021777,0.017258
-0.068446,-0.011883,-0.026164,0.026053
-0.087646,-0.056318,-0.024301,0.02545
-0.10208,-0.13097,-0.017161,0.017867
-0.1028,-0.16991,-0.0021775,0.010021
-0.05615,-0.15498,0.0151,0.0045311
0.039507,-0.09222,0.023612,-0.001283
0.12136,0.0043368,0.021672,-0.009518
0.15973,0.07106,0.017073,-0.019415
0.16296,0.063953,0.018094,-0.028285
0.12228,0.051835,0.022775,-0.034128
0.048702,0.10112,0.020575,-0.037407
-0.010768,0.14811,0.016527,-0.038763
-0.02494,0.12237,0.024239,-0.037827
0.020869,0.045873,0.0376,-0.032135
0.11453,-0.028598,0.044984,-0.017665
0.18597,-0.050133,0.047178,0.0040787
0.183,-0.0034314,0.044183,0.02556
0.13209,0.05875,0.033472,0.042059
0.093048,0.067167,0.018775,0.052864
0.074858,0.010722,0.0083483,0.056544
0.048764,-0.040691,0.0058778,0.051018
0.020589,-0.044913,0.0016785,0.037274
-0.019811,-0.040587,-0.01233,0.020727
-0.13675,-0.01335,-0.033777,0.0070303
-0.29745,0.057171,-0.050988,-0.0019117
-0.349,0.089049,-0.047258,-0.007316
-0.23371,0.036953,-0.026707,-0.01084
-0.046542,-0.026053,-0.012121,-0.012694
0.089655,-0.02227,-0.010356,-0.012071
0.12577,0.023894,-0.0076771,-0.0091756
0.094034,0.059635,0.0030555,-0.0055873
0.061658,0.087302,0.016883,-0.0024686
0.065267,0.083379,0.028829,3.7376e-05
0.076515,0.01926,0.035543,0.002293
0.059489,-0.060716,0.035932,0.0048041
0.0084406,-0.10245,0.030657,0.007272
-0.048693,-0.099797,0.020926,0.008939
-0.069944,-0.069696,0.0077455,0.0099715
-0.057872,-0.03041,-0.0065259,0.010449
-0.041796,0.011283,-0.015766,0.0094162
-0.035671,0.0521,-0.019105,0.0070794
-0.052108,0.059231,-0.019767,0.0055167
-0.075774,0.049503,-0.018511,0.0057165
-0.079642,0.11117,-0.016942,0.0058798
-0.080691,0.2331,-0.016485,0.0036509
-0.07537,0.29001,-0.019223,-0.00051566
-0.031207,0.21352,-0.023597,-0.0037188
0.0099754,0.074063,-0.023648,-0.0045368
-0.020597,-0.022328,-0.019164,-0.0040322
-0.10331,-0.09776,-0.019553,-0.0030935
-0.17061,-0.19606,-0.029631,-0.0019152
-0.18048,-0.24728,-0.034804,-0.0012324
-0.12615,-0.2094,-0.027127,-0.0015855
-0.045559,-0.12662,-0.016392,-0.0026688
0.017601,-0.049122,-0.0042255,-0.0044862
0.055594,-0.013853,0.013643,-0.0077482
0.076162,-0.033426,0.029034,-0.012437
0.087676,-0.075344,0.031178,-0.016215
0.094238,-0.070928,0.022753,-0.016433
0.095149,0.044866,0.0095653,-0.013263
0.087223,0.21119,-0.0044101,-0.0078005
0.084886,0.26051,-0.014554,-0.00087131
0.10147,0.14811,-0.024476,0.0047998
0.11774,-0.017024,-0.033465,0.0058851
0.1177,-0.12353,-0.028401,0.0012961
0.11356,-0.1446,-0.012476,-0.0072179
0.13365,-0.099405,0.00028913,-0.015619
0.15622,-0.010727,0.0076943,-0.020194
0.12133,0.042326,0.0076803,-0.020286
0.049829,0.010982,0.0010379,-0.017152
0.010295,-0.03261,-0.0015957,-0.01168
0.0030511,-0.028288,0.0077288,-0.0045424
-0.021729,-0.015157,0.024658,0.0027062
-0.065927,-0.038385,0.036555,0.0087852
-0.079509,-0.054932,0.036035,0.013895
-0.052345,-0.012017,0.023543,0.017902
-0.027949,0.040562,0.0059891,0.019766
-0.033138,0.042754,-0.0042995,0.018855
-0.051877,0.036299,-0.0013212,0.014565
-0.061381,0.051357,0.0048199,0.006431
-0.055863,0.031472,-0.0031826,-0.00356
-0.029398,-0.037325,-0.022164,-0.011741
0.010106,-0.068257,-0.027798,-0.016572
0.035978,-0.017947,-0.013583,-0.01831
0.052952,0.027006,0.0033816,-0.016619
0.075171,0.00533,0.011784,-0.011477
0.085947,-0.030989,0.010375,-0.0048558
0.074335,-0.02441,-0.00028733,0.00058244
0.043644,0.0178,-0.014383,0.0046139
-0.0096865,0.040234,-0.023808,0.0092981
-0.072405,0.012216,-0.024226,0.014965
-0.10437,-0.031946,-0.013838,0.017837
-0.10049,-0.052094,0.0034368,0.013629
-0.10639,-0.046156,0.018927,0.0042332
-0.1356,-0.0308,0.025236,-0.0030005
-0.15675,-0.012851,0.019072,-0.0038
-0.15922,0.025345,0.0026065,-0.0001276
-0.15856,0.081635,-0.018898,0.0042231
-0.15165,0.10066,-0.035784,0.0067917
-0.12679,0.061761,-0.04041,0.0068942
-0.095127,0.013192,-0.034355,0.0059059
-0.069963,-0.019112,-0.024005,0.0055708
-0.049833,-0.046952,-0.016206,0.0056218
-0.027184,-0.061749,-0.015129,0.0050811
0.00094745,-0.034464,-0.018637,0.0035132
0.027961,0.017722,-0.018553,0.00044093
0.036838,0.028413,-0.013529,-0.0035339
0.026462,-0.015833,-0.0099343,-0.0064193
0.019533,-0.058439,-0.011566,-0.0064892
0.024246,-0.06585,-0.015704,-0.0032247
0.027634,-0.048408,-0.017302,0.0014148
0.02392,-0.019236,-0.01366,0.0022709
0.005135,0.0035844,-0.0044087,-0.0050257
-0.035249,0.0045791,0.0061055,-0.017846
-0.063228,-0.013906,0.017384,-0.027026
-0.053984,-0.034451,0.028453,-0.025203
-0.010805,-0.034482,0.036278,-0.013045
0.058102,-0.014089,0.041993,0.0021244
0.1098,0.012875,0.040151,0.012845
0.11329,0.036103,0.026828,0.017796
0.10074,0.042003,0.011646,0.02157
0.12914,0.029224,0.0022391,0.027776
0.1921,0.019066,-0.0036194,0.033225
0.19654,0.035399,-0.0068071,0.030643
0.10979,0.084528,-0.0090997,0.015944
0.01894,0.13322,-0.010962,-0.0092298
-0.034772,0.12285,-0.008456,-0.037579
-0.075472,0.041581,-0.0015252,-0.056998
-0.080052,-0.047212,0.0050243,-0.058765
-0.036211,-0.081599,0.007665,-0.045189
0.0085566,-0.062965,0.0085711,-0.025891
0.021149,-0.028319,0.0053962,-0.0089739
0.022253,-0.012586,-0.002876,0.0036171
0.050242,-0.017501,-0.0037485,0.014281
0.091102,-0.022521,0.0052495,0.025247
0.1054,-0.029945,0.011674,0.036438
0.1044,-0.042855,0.014407,0.044771
0.11833,-0.038297,0.019716,0.044126
0.14037,-0.013188,0.025875,0.031682
0.12245,0.023114,0.025162,0.014072
0.040922,0.054635,0.014914,0.001583
-0.056279,0.022751,0.0040159,-0.001918
-0.10475,-0.045144,0.0017728,-0.00072667
-0.088914,-0.036903,0.011646,-0.00053602
-0.064954,0.036748,0.028642,-0.003355
-0.096765,0.090314,0.037136,-0.0080522
-0.1575,0.11639,0.027298,-0.012119
-0.17719,0.13487,0.0099071,-0.013719
-0.12899,0.12802,-0.0018303,-0.012267
-0.024346,0.078525,-0.0065102,-0.0079811
0.09468,-0.0202,0.0018318,-0.0026085
0.16646,-0.11937,0.019774,0.0023635
0.15133,-0.13829,0.024525,0.0072134
0.068592,-0.086386,0.01108,0.011223
-0.024836,-0.02136,-0.00079536,0.012741
-0.084856,0.0083393,0.001076,0.011976
-0.091165,-0.015222,0.0092527,0.011762
-0.071579,-0.053989,0.014457,0.014206
-0.079961,-0.082061,0.010569,0.017668
-0.10256,-0.090926,-0.0045303,0.020588
-0.080878,-0.046176,-0.0174,0.023167
-0.021962,0.05046,-0.015252,0.024063
0.017427,0.11695,-0.0071311,0.020601
0.027348,0.09567,-0.0062171,0.012047
0.029142,0.038689,-0.005115,0.00025876
0.017331,0.017088,0.0034886,-0.011689
-0.017362,0.028338,0.0059946,-0.019734
-0.048453,0.036532,-0.0038651,-0.021372
-0.044108,0.02933,-0.0079084,-0.01941
-0.018606,0.0069019,0.005709,-0.019594
-0.0068339,-0.027167,0.021536,-0.024654
-0.0025033,-0.05429,0.023021,-0.031123
0.020184,-0.060979,0.014784,-0.031219
0.047128,-0.057409,0.008406,-0.020845
0.052603,-0.06518,0.0097492,-0.0049642
0.044709,-0.085238,0.018357,0.0080467
0.040036,-0.091155,0.026142,0.014335
0.039737,-0.071731,0.025084,0.016316
0.040518,-0.051847,0.016573,0.01897
0.035637,-0.035701,0.0047081,0.023389
0.023373,-0.00059823,-0.0095499,0.026065
0.016716,0.021283,-0.018892,0.024208
0.010781,0.00061362,-0.018898,0.016264
-0.0080893,-0.019396,-0.016397,0.0025526
-0.027494,-0.0023095,-0.015597,-0.011648
-0.039202,0.044569,-0.019853,-0.020787
-0.04215,0.087879,-0.029683,-0.024104
-0.028192,0.10251,-0.036123,-0.023193
-0.0093291,0.099993,-0.035805,-0.019663
-0.01754,0.062361,-0.031245,-0.016711
-0.063512,-0.037711,-0.022869,-0.016962
-0.10677,-0.13362,-0.015025,-0.017366
-0.099876,-0.16378,-0.012996,-0.012924
-0.06732,-0.15803,-0.017677,-0.0043852
-0.047253,-0.14852,-0.024092,0.0031969
-0.02008,-0.13611,-0.024989,0.0064727
0.026027,-0.12303,-0.014325,0.00516
0.081297,-0.08594,0.0029849,0.0023432
0.13808,0.0094579,0.011058,0.003291
0.17017,0.12079,0.0046387,0.0091235
0.15425,0.18398,-0.0073534,0.014329
0.083744,0.18994,-0.010224,0.01275
-0.015453,0.14552,-0.0013146,0.0029189
-0.067844,0.073682,0.0014686,-0.010953
-0.043614,0.023234,-0.012217,-0.020176
0.0036816,0.033127,-0.027457,-0.01897
0.028666,0.080427,-0.029754,-0.011391
0.033927,0.10377,-0.030127,-0.0050246
0.031641,0.087873,-0.040953,-0.00097258
0.016358,0.036782,-0.051243,0.0037039
-0.0083098,-0.044703,-0.051069,0.0086196
-0.032166,-0.10685,-0.048638,0.011094
-0.057343,-0.10406,-0.045132,0.010876
-0.080363,-0.043984,-0.033792,0.010066
-0.08764,0.024759,-0.023055,0.0094295
-0.061836,0.055382,-0.019779,0.0072408
-0.012055,0.051117,-0.015008,0.0018996
0.027259,0.040014,-0.0045372,-0.0059749
0.05596,0.038723,0.0041291,-0.014053
0.096907,0.04147,0.0075481,-0.01895
0.13869,0.030494,0.0074856,-0.017371
0.1586,0.017322,0.006359,-0.0094633
0.15138,0.018798,0.0090941,-0.00011889
0.10875,0.024118,0.015379,0.0049602
0.046009,0.034765,0.017896,0.0043229
0.0098993,0.063913,0.014668,0.0012466
0.0055786,0.085002,0.013132,0.00061829
-0.0026042,0.062961,0.01885,0.004761
-0.040668,0.024371,0.025373,0.010895
-0.10524,0.014996,0.020449,0.013975
-0.14842,0.018054,0.002554,0.011601
-0.12905,0.010206,-0.019494,0.006107
-0.076184,0.03264,-0.034076,0.0015094
-0.047182,0.083382,-0.03349,-0.0012379
-0.047306,0.081978,-0.023534,-0.0032729
-0.047436,0.01195,-0.013025,-0.0049896
-0.032474,-0.058881,-0.0025591,-0.0067285
-0.0016909,-0.081977,0.0056919,-0.0084717
0.040664,-0.074184,0.0071521,-0.0088188
0.07587,-0.07411,0.0074277,-0.0068259
0.077876,-0.078299,0.01555,-0.0035877
0.052931,-0.073114,0.0286,-0.00079559
0.036703,-0.072645,0.03875,0.00080064
0.063678,-0.085642,0.044671,0.0010513
0.11826,-0.09862,0.046318,5.9008e-05
0.13376,-0.083549,0.04346,-0.0015069
0.076667,-0.023739,0.038376,-0.0026306
-0.020862,0.030979,0.032765,-0.002974
-0.11305,0.024265,0.029171,-0.0029075
-0.1822,0.0061865,0.029979,-0.0022414
-0.23749,0.011178,0.032872,-0.00070227
-0.26725,-0.011629,0.034796,0.0013664
-0.21498,-0.043992,0.037877,0.0043222
-0.077768,-0.0095301,0.040399,0.0085723
0.049486,0.070779,0.035375,0.013457
0.083015,0.097449,0.02455,0.018423
0.043368,0.028472,0.013433,0.02238
0.024155,-0.07993,-0.0038953,0.022058
0.083613,-0.15649,-0.024512,0.014279
0.18627,-0.18914,-0.023579,-5.9662e-06
0.24475,-0.1935,0.0048353,-0.015602
0.22546,-0.15218,0.034582,-0.027202
0.18323,-0.034819,0.046096,-0.032267
0.13799,0.10386,0.045292,-0.03063
0.039909,0.15239,0.040007,-0.024006
-0.080341,0.11961,0.028009,-0.015562
-0.13135,0.09586,0.01219,-0.0079382
-0.12557,0.10056,-0.0038817,-0.0013761
-0.13104,0.097922,-0.021209,0.0050264
-0.15249,0.06819,-0.034817,0.011393
-0.14147,0.040075,-0.042311,0.016691
-0.07459,-0.0031706,-0.043485,0.018808
0.0057639,-0.089815,-0.032076,0.017027
0.048964,-0.14697,-0.014363,0.013366
0.043651,-0.12504,-0.0038084,0.0098297
0.027971,-0.070871,0.0039328,0.0075546
0.049085,-0.045789,0.019634,0.0070943
0.084337,-0.058021,0.037226,0.0067764
0.077233,-0.063181,0.041315,0.0022303
0.04466,-0.02193,0.033206,-0.0090939
0.039506,0.036027,0.021399,-0.02186
0.05297,0.058254,0.0049165,-0.027084
0.036546,0.085978,-0.012366,-0.021957
-0.015947,0.13495,-0.02162,-0.010282
-0.066854,0.12652,-0.022669,0.0031052
-0.10361,0.07629,-0.022045,0.014513
-0.12653,0.048784,-0.025891,0.021849
-0.12651,0.025497,-0.032473,0.025985
-0.11629,-0.0026287,-0.031883,0.029162
-0.11581,0.00046429,-0.027722,0.030781
-0.11124,0.020447,-0.027176,0.026738
-0.069787,0.014533,-0.026095,0.014533
-0.0059977,-0.0061703,-0.02596,-0.0016543
0.027934,-0.01965,-0.026309,-0.013615
0.029446,-0.040307,-0.021731,-0.017357
0.031401,-0.083248,-0.011287,-0.016162
0.027782,-0.13391,0.0021638,-0.014701
-0.003494,-0.15042,0.0087566,-0.013463
-0.057285,-0.10932,0.0042895,-0.010561
-0.10403,-0.044152,-0.0030116,-0.0061502
-0.11725,0.019163,-0.0064733,-0.0020549
-0.099682,0.087078,-0.0032945,0.0016643
-0.052471,0.12783,0.0035453,0.0063363
0.027452,0.11104,0.0050597,0.011532
0.10751,0.084963,-0.00098178,0.015206
0.13682,0.090046,-0.006543,0.01603
0.099544,0.07285,-0.010586,0.013537
0.038712,-0.0049751,-0.018965,0.0080319
0.016541,-0.076433,-0.022415,0.0016301
0.03806,-0.085834,-0.014134,-0.0025526
0.045289,-0.053507,-0.004747,-0.0031555
0.01117,-0.020597,0.0014696,-0.0014236
-0.044017,0.00032092,0.0074643,0.0010697
-0.091195,0.021089,0.012319,0.0037492
-0.088798,0.025652,0.015003,0.0059068
-0.030013,0.01236,0.015588,0.0069183
0.046863,0.024509,0.013627,0.006886
0.10499,0.058329,0.012943,0.0052522
0.10816,0.051212,0.013613,0.0012
0.069416,-0.0016716,0.012355,-0.0044534
0.060529,-0.051072,0.015893,-0.010078
0.071769,-0.076096,0.024176,-0.015166
0.040606,-0.078783,0.024306,-0.020551
0.0066853,-0.074079,0.013143,-0.025905
0.023058,-0.0679,-0.0035742,-0.027813
0.024469,-0.048646,-0.019277,-0.02387
-0.046548,-0.013289,-0.020552,-0.017133
-0.11976,0.04262,-0.0069911,-0.012858
-0.11892,0.10777,0.00098917,-0.013557
-0.066727,0.13417,-0.0034275,-0.017801
-0.01974,0.094211,-0.0053707,-0.019453
0.0017984,0.035646,0.00065941,-0.011863
0.0017677,0.0099824,0.0045748,0.003607
-0.010447,0.0070993,0.0016963,0.019513
-0.010287,0.0086907,-0.002046,0.03047
0.0073091,0.014238,4.2632e-05,0.033953
0.0056041,0.030777,0.0050574,0.029416
-0.02236,0.05417,0.0064299,0.020118
-0.05056,0.059532,0.0049117,0.011302
-0.075564,0.039169,0.0051416,0.0047925
-0.093664,0.010768,0.0075575,-0.0022176
-0.097016,-0.024611,0.0080761,-0.012254
-0.099653,-0.07477,0.0035664,-0.023122
-0.1017,-0.12305,-0.00067546,-0.030061
-0.084699,-0.14993,0.0016911,-0.031208
-0.063445,-0.15325,0.0045918,-0.027858
-0.049781,-0.14038,0.0052528,-0.021011
-0.021953,-0.11768,0.0078288,-0.011269
0.020688,-0.092147,0.0082691,-0.000451
0.052756,-0.075568,-0.00094063,0.0086853
0.069128,-0.05005,-0.016251,0.014103
0.063619,0.0073962,-0.025154,0.015917
0.023865,0.078734,-0.023128,0.016014
-0.0055359,0.12171,-0.014068,0.017075
0.013651,0.068408,0.0017336,0.021123
0.05536,-0.059739,0.022737,0.025809
0.096989,-0.11196,0.036122,0.024058
0.12792,-0.036831,0.035911,0.012149
0.13359,0.057605,0.030548,-0.0039402
0.11281,0.11192,0.020973,-0.014787
0.074175,0.14337,0.0052425,-0.017087
0.025503,0.14616,-0.0097107,-0.012835
-0.026792,0.15316,-0.026552,-0.0047473
-0.0614,0.18581,-0.049048,0.0039985
-0.038827,0.16889,-0.061431,0.010052
0.029261,0.074104,-0.050943,0.01286
0.065952,-0.032735,-0.020429,0.015558
0.050907,-0.094407,0.016155,0.019751
0.039192,-0.082353,0.037575,0.022408
0.053824,-0.015818,0.03856,0.019967
0.060271,0.044938,0.032304,0.01235
0.046663,0.065605,0.026276,0.0023796
0.036825,0.043691,0.01912,-0.0076101
0.013767,0.0069196,0.013662,-0.016938
-0.028992,-0.0060181,0.011086,-0.022451
-0.04247,2.2344e-05,0.0091326,-0.020193
-0.0069915,0.00023468,0.01217,-0.015456
0.045265,-0.0042718,0.019961,-0.017155
0.078668,0.0022083,0.018935,-0.021079
0.080272,0.024291,0.0032093,-0.014245
0.060558,0.055628,-0.013023,0.0045608
0.05091,0.078794,-0.020602,0.02015
0.07223,0.064524,-0.026126,0.020159
0.099909,0.020422,-0.036822,0.011141
0.093903,-0.018288,-0.051229,0.0083084
0.055182,-0.034746,-0.053443,0.015231
0.0011611,-0.0021709,-0.036602,0.022136
-0.062789,0.089013,-0.018674,0.019327
-0.11865,0.1585,-0.0093363,0.0064077
-0.1682,0.13154,-0.0019496,-0.0098793
-0.21445,0.059694,0.0069586,-0.022637
-0.21,0.011097,0.017498,-0.027959
-0.13259,-0.020826,0.027959,-0.025985
-0.02796,-0.051754,0.031552,-0.020088
0.051617,-0.068767,0.027241,-0.013588
0.089868,-0.064204,0.022992,-0.0081211
0.10212,-0.055971,0.019913,-0.0029771
0.09598,-0.038328,0.012647,0.0035746
0.072394,0.0020445,0.0033941,0.010351
0.054354,0.025791,-0.0010337,0.013653
0.039261,0.01109,-0.0026191,0.012843
0.0028837,-0.015685,-0.007525,0.01058
-0.048528,-0.047201,-0.014288,0.0089997
-0.1014,-0.087628,-0.021037,0.0099071
-0.13002,-0.13177,-0.027306,0.013996
-0.10183,-0.17126,-0.028115,0.018803
-0.038522,-0.19265,-0.023674,0.019711
0.010892,-0.17956,-0.023016,0.013647
0.03713,-0.12323,-0.027858,0.0025892
0.057692,-0.035397,-0.025983,-0.008187
0.06102,0.035945,-0.011651,-0.014195
0.020966,0.04575,0.0037289,-0.013671
-0.030129,0.024266,0.011188,-0.0084785
-0.047566,0.02794,0.012718,-0.0025583
-0.042652,0.037495,0.010681,0.0012132
-0.044935,0.014096,0.008,0.0027492
-0.046804,-0.0236,0.004796,0.0044695
-0.018757,-0.054947,0.0019977,0.0089149
0.012756,-0.065213,0.0054501,0.015661
0.013036,-0.036812,0.014887,0.020839
0.011489,0.010158,0.022753,0.020621
0.02798,0.023015,0.02431,0.014327
0.033662,-0.020389,0.022887,0.004462
0.014464,-0.074396,0.020119,-0.0053538
0.0033316,-0.11043,0.015801,-0.012651
0.029099,-0.15835,0.014543,-0.016733
0.073231,-0.20268,0.01848,-0.017776
0.083354,-0.17904,0.015439,-0.016209
0.024675,-0.083881,-0.0084634,-0.012761
-0.060812,0.03654,-0.040462,-0.0079878
-0.11968,0.14558,-0.055226,-0.0036685
-0.16497,0.19517,-0.04443,-0.002666
-0.19863,0.12692,-0.015629,-0.0047392
-0.18269,-0.014887,0.01532,-0.0072982
-0.11235,-0.068435,0.029944,-0.0096883
-0.041378,-0.0044067,0.021052,-0.011772
-0.010823,0.041287,0.0042139,-0.011208
0.0099992,0.026281,-0.0014142,-0.0069613
0.054604,0.033356,0.0053554,-0.0016604
0.099631,0.11239,0.014748,0.0022609
0.11389,0.19168,0.017535,0.004622
0.10172,0.1795,0.0087043,0.0060714
0.082858,0.085108,-0.010474,0.0072577
0.056286,-0.017409,-0.025555,0.0079369
0.011155,-0.058967,-0.024978,0.0059216
-0.030442,-0.036853,-0.01629,-0.00064539
-0.043889,-0.0022528,-0.0087741,-0.010444
-0.050054,-0.0024164,-0.0064772,-0.020673
-0.066611,-0.053377,-0.0084662,-0.030349
-0.07592,-0.10989,-0.0081755,-0.038669
-0.05218,-0.1208,-0.0064285,-0.042405
0.0065548,-0.093741,-0.0078478,-0.038911
0.053357,-0.056774,-0.0061807,-0.028747
0.061736,-0.025612,0.004228,-0.015005
0.065726,-0.0027158,0.015633,-0.0014899
0.084059,0.016985,0.019889,0.0095298
0.09771,0.027303,0.018281,0.018151
0.095974,0.030385,0.014011,0.026162
0.088802,0.049887,0.0093599,0.035335
0.076515,0.076716,0.0063494,0.04313
0.056226,0.093695,0.0018768,0.041104
0.036954,0.11318,-0.0038209,0.025069
0.019657,0.12574,-0.0056518,0.0033617
0.007697,0.11597,-0.0038997,-0.011933
0.013382,0.10528,-0.0017176,-0.015788
0.019275,0.10806,-0.0068763,-0.010959
0.012222,0.085677,-0.022662,-0.0038549
0.0037415,0.014951,-0.032506,0.00028341
-0.016863,-0.06893,-0.023261,-7.7022e-05
-0.032529,-0.1276,-0.0072429,-0.0030239
-0.024245,-0.14626,-0.00044024,-0.0043297
-0.03876,-0.14385,-0.002001,-0.00085716
-0.083582,-0.13743,-0.0056017,0.0058629
-0.094289,-0.11084,-0.010266,0.012082
-0.054724,-0.060605,-0.014172,0.015977
-0.0093948,-0.016637,-0.015643,0.017296
0.026684,-0.014159,-0.015839,0.016288
0.056043,-0.035185,-0.017643,0.013532
0.057953,-0.0044651,-0.021214,0.0098538
0.032076,0.08931,-0.020772,0.0063664
0.0074196,0.14528,-0.01401,0.0036885
-0.0023388,0.10349,-0.005663,0.0021714
-0.0018563,0.028298,-0.0011081,0.0025629
0.00049347,-0.016396,0.0010244,0.0039529
-0.00062408,-0.031904,0.0030643,0.0037019
-0.0041582,-0.033209,0.003276,0.0019274
-0.017413,-0.028629,0.001096,0.0011066
-0.042307,-0.018488,-0.0027269,0.0011899
-0.061815,0.0074021,-0.0059133,0.00066374
-0.055843,0.035324,-0.0043192,-5.6106e-05
-0.023662,0.030671,0.0035758,-0.00012031
-0.0015009,-0.00081255,0.012745,0.0001572
-0.032328,-0.025095,0.018926,-0.00014184
-0.10211,-0.034711,0.020234,-0.0024234
-0.11856,-0.050454,0.019961,-0.0066784
-0.040306,-0.075921,0.026391,-0.010004
0.046738,-0.094308,0.034274,-0.010106
0.065184,-0.1028,0.036136,-0.0082024
0.02866,-0.086046,0.032337,-0.0059484
0.011187,-0.02524,0.022298,-0.0025443
0.057435,0.058612,0.0089657,0.0032055
0.12123,0.14157,-0.0012562,0.0084947
0.16102,0.1842,-0.0091006,0.008369
0.19419,0.12246,-0.02233,0.0039589
0.21852,-0.0081045,-0.031283,0.0010931
0.19208,-0.079975,-0.018546,0.0015109
0.1036,-0.028523,0.0088105,0.002449
0.0057351,0.097633,0.034666,0.0013063
-0.053838,0.19566,0.051303,-0.0026336
-0.1018,0.19975,0.052743,-0.0086974
-0.16931,0.13236,0.039172,-0.015934
-0.20206,0.06829,0.017694,-0.022072
-0.15112,0.025455,-0.0032074,-0.023268
-0.069316,-0.028867,-0.014657,-0.019878
-0.031577,-0.04707,-0.012866,-0.017722
-0.020723,0.0069843,-0.0031464,-0.018996
0.032272,0.026098,0.010112,-0.018345
0.11286,-0.044734,0.024079,-0.011017
0.14627,-0.1014,0.031048,0.00081126
0.11668,-0.06898,0.02469,0.012836
0.071568,0.017516,0.0062136,0.023875
0.055411,0.075337,-0.0077797,0.033013
0.075711,0.059623,-0.0024263,0.036751
0.094987,0.018198,0.012952,0.03196
0.074125,0.0029159,0.016717,0.019892
0.022348,-0.0092656,0.0050792,0.0063824
-0.037026,-0.0057537,-0.001954,-0.0029975
-0.089051,0.075217,-0.00054173,-0.0082475
-0.13308,0.15849,-0.0076178,-0.012576
-0.17721,0.11856,-0.020686,-0.016924
-0.18862,0.014661,-0.024551,-0.020004
-0.13512,-0.028276,-0.018439,-0.020412
-0.048257,-0.013659,-0.0089893,-0.017848
0.029946,0.0053734,4.6681e-05,-0.014016
0.080339,0.036658,0.0062308,-0.0106
0.090191,0.083195,0.0028188,-0.0066083
0.06781,0.079716,-0.013949,-0.00041534
0.039965,-0.0097468,-0.029274,0.0067324
0.025408,-0.10272,-0.025194,0.011308
0.028073,-0.10475,-0.014136,0.011257
0.032717,-0.046026,-0.019856,0.0089336
0.014021,-0.0044515,-0.034685,0.0095262
-0.03004,0.025891,-0.039856,0.015691
-0.079996,0.045622,-0.030867,0.023355
-0.12363,-0.0060804,-0.01121,0.024014
-0.14765,-0.099737,0.0063871,0.01446
-0.141,-0.1468,0.011355,0.0014374
-0.11274,-0.13765,0.0082667,-0.0081442
-0.07211,-0.11044,0.0090065,-0.015751
-0.0204,-0.07865,0.017111,-0.024842
0.032984,-0.028908,0.023903,-0.033665
0.066421,0.037652,0.02194,-0.037465
0.064533,0.095225,0.011948,-0.032206
0.045852,0.10431,0.0015444,-0.018968
0.046665,0.04647,-0.00043712,-0.0054643
0.068215,-0.045112,0.0063133,0.0017665
0.081429,-0.11965,0.010615,0.00374
0.070785,-0.14623,0.0047578,0.0059648
0.034807,-0.12165,-0.0040753,0.013192
-0.013708,-0.076212,-0.010583,0.024922
-0.041769,-0.048775,-0.022294,0.034016
-0.034315,-0.046126,-0.038348,0.033442
-0.012264,-0.051079,-0.04134,0.022868
-0.011077,-0.04093,-0.024905,0.0077164
-0.038584,-0.0097471,-0.004987,-0.0065745
-0.046715,0.011065,0.0041624,-0.018218
-0.012327,0.0020216,0.0055215,-0.026523
0.014221,-0.0098488,0.0087802,-0.030259
0.014929,-0.0020646,0.018949,-0.029389
0.020026,0.01708,0.027776,-0.023784
0.018373,0.029751,0.026,-0.011794
-0.012551,0.026715,0.019054,0.006962
-0.052587,0.027583,0.011907,0.029041
-0.078534,0.025618,0.0035745,0.047453
-0.089817,-0.016067,-0.0066185,0.055452
-0.093582,-0.072836,-0.010271,0.050654
-0.092006,-0.096256,0.0014421,0.035052
-0.071626,-0.088244,0.018163,0.014355
-0.035143,-0.070516,0.028067,-0.0043655
-0.015661,-0.038671,0.028133,-0.016635
-0.0061555,0.0073135,0.015521,-0.020849
0.035561,0.03057,-0.0053554,-0.018369
0.099415,0.015806,-0.021527,-0.014451
0.13623,-0.0039823,-0.02563,-0.014016
0.13499,-0.0076207,-0.021152,-0.016201
0.11363,-0.015222,-0.016216,-0.01576
0.072861,-0.048308,-0.013349,-0.0098193
0.018098,-0.079092,-0.0092598,-0.0013405
-0.038512,-0.073546,-0.0075827,0.0072409
-0.088386,-0.062767,-0.011527,0.017887
-0.099137,-0.080406,-0.016516,0.029491
-0.059822,-0.09043,-0.017226,0.036322
-0.011895,-0.044629,-0.0098101,0.035937
0.016066,0.02188,0.0011423,0.03193
0.019572,0.05589,0.0099585,0.028815
0.0009293,0.099693,0.017636,0.02727
-0.02234,0.14905,0.021442,0.025463
-0.024128,0.11516,0.019399,0.023454
-0.0099112,0.022889,0.0151,0.0212
-0.01636,0.0036425,0.0065982,0.013299
-0.050284,0.095093,-0.00633,-0.0034511
-0.085768,0.15953,-0.015083,-0.021157
-0.083429,0.07761,-0.016114,-0.029664
-0.032309,-0.068517,-0.011532,-0.028866
0.029236,-0.13079,-0.0037189,-0.026238
0.069889,-0.10264,0.0037546,-0.025958
0.081996,-0.063661,0.0084507,-0.026456
0.068327,-0.045206,0.0094598,-0.025705
0.0428,-0.035645,0.0056299,-0.023127
0.024216,-0.015283,-0.0007357,-0.018599
0.023473,0.016757,-0.0063401,-0.012551
0.035589,0.031252,-0.011473,-0.0059941
0.041629,0.025256,-0.016152,-0.00013411
0.014121,0.057849,-0.021291,0.0038464
-0.040817,0.13419,-0.025103,0.0054768
-0.068991,0.15407,-0.023429,0.0054165
-0.047285,0.10463,-0.018675,0.0048135
-0.0064012,0.080543,-0.013894,0.0040553
0.011859,0.095061,-0.010295,0.0024739
-0.010712,0.10042,-0.0084505,-5.5038e-05
-0.045298,0.086297,-0.0056915,-0.0027252
-0.061058,0.060848,0.00079909,-0.0052701
-0.053439,0.022595,0.0088256,-0.0080424
-0.031643,-0.028932,0.014013,-0.010951
-0.013704,-0.074039,0.018598,-0.013509
-0.0066809,-0.086004,0.0245,-0.015557
0.0050436,-0.067948,0.029706,-0.017053
0.03932,-0.049088,0.033365,-0.017853
0.078538,-0.042444,0.035649,-0.018006
0.11062,-0.042242,0.042473,-0.017911
0.15144,-0.026802,0.055507,-0.018379
0.18661,0.026178,0.063767,-0.019867
0.18836,0.059247,0.059649,-0.021294
0.17136,0.0099334,0.048707,-0.020492
0.18017,-0.070686,0.043,-0.016569
0.21569,-0.14367,0.052551,-0.010647
0.23684,-0.20004,0.07267,-0.0041521
0.21138,-0.18614,0.078846,0.0023061
0.10898,-0.12059,0.056816,0.009146
-0.068712,-0.037098,0.017651,0.016561
-0.25165,0.08778,-0.022326,0.022287
-0.3324,0.18512,-0.040375,0.021946
-0.23825,0.16805,-0.018905,0.013884
-0.047682,0.097834,0.01833,0.0031413
0.04793,0.078719,0.028771,-0.0034877
-0.021114,0.088799,0.0089991,-0.0046712
-0.11898,0.067214,-0.010006,-0.0042933
-0.099501,0.036247,-0.014436,-0.0057808
0.01166,0.0047448,-0.018437,-0.0082822
0.11091,-0.05201,-0.028233,-0.0095909
0.15019,-0.12691,-0.027631,-0.0094166
0.13631,-0.17508,-0.0047924,-0.0085219
0.10678,-0.15119,0.024642,-0.0077738
0.092997,-0.06939,0.032271,-0.0069018
0.091623,0.017606,0.014341,-0.0034219
0.077291,0.062002,-0.0045913,0.0036746
0.041014,0.065168,-0.0024792,0.010103
-0.0083341,0.08944,0.011621,0.011514
-0.059249,0.14091,0.011627,0.010766
-0.10367,0.16134,-0.0015854,0.014748
-0.14657,0.14432,-0.013225,0.025239
-0.20179,0.11171,-0.023596,0.036081
-0.26849,0.075258,-0.03538,0.04039
-0.29167,0.049358,-0.043593,0.03861
-0.24027,0.024137,-0.042637,0.034721
-0.1861,0.0094599,-0.036743,0.027628
-0.15691,0.0044207,-0.033735,0.014554
-0.081959,-0.056635,-0.034434,-0.0012522
0.043072,-0.13561,-0.038142,-0.014275
0.11731,-0.12401,-0.043628,-0.023395
0.080538,-0.045371,-0.04907,-0.030774
-9.6463e-05,0.02699,-0.054907,-0.035794
-0.041263,0.090705,-0.062269,-0.033524
-0.061972,0.15864,-0.069196,-0.021691
-0.10395,0.18864,-0.070293,-0.0042486
-0.13876,0.14112,-0.062845,0.012321
-0.13605,0.069415,-0.052082,0.023264
-0.11598,0.043082,-0.046095,0.027696
-0.11202,0.072127,-0.046569,0.027952
-0.11871,0.1036,-0.049664,0.026488
-0.10612,0.059334,-0.048944,0.023214
-0.078589,-0.033938,-0.042076,0.017489
-0.052807,-0.087954,-0.034232,0.010949
-0.035751,-0.095244,-0.027064,0.0057021
-0.027241,-0.093483,-0.017088,0.0018839
-0.016273,-0.088266,-0.0057556,-0.0015242
0.0032319,-0.071336,0.001001,-0.0046216
0.029617,-0.057166,0.0012451,-0.0062474
0.05825,-0.057022,-0.0021748,-0.0059046
0.079555,-0.046125,-0.0044194,-0.0048777
0.081381,-0.0088647,-0.0049141,-0.0045719
0.063126,0.014613,-0.0062274,-0.0050471
0.04089,-0.0054813,-0.0049102,-0.0058835
0.027275,-0.035874,0.002107,-0.0067565
0.021687,-0.043641,0.0082277,-0.0069846
0.022305,-0.034752,0.006451,-0.0060781
0.025937,-0.02256,-0.00018015,-0.0044366
0.027169,-0.01391,-0.0053431,-0.0027052
0.025368,-0.013168,-0.0061272,-0.0011121
0.023677,-0.015437,-0.0040634,0.00037804
0.024615,-0.012271,-0.0012801,0.0017511
0.025217,-0.0044949,0.0021761,0.0019815
0.021953,0.0019415,0.0022226,-0.0006733
0.019871,0.0040098,-0.0028799,-0.0057673
0.022784,0.0022417,-0.0061097,-0.010403
0.026914,-0.0001969,-0.0047037,-0.012747
0.030322,0.0017742,-0.0019363,-0.012708
0.034235,0.01013,-0.00019033,-0.010614
0.037762,0.019228,0.0003979,-0.007485
0.038622,0.024457,0.0016202,-0.0049199
0.035584,0.026054,0.0010446,-0.0046897
0.029702,0.023351,-0.0037677,-0.0073126
0.023461,0.018238,-0.00754,-0.010598
0.020122,0.015336,-0.0071213,-0.012063
0.021046,0.014885,-0.0041829,-0.010672
0.023049,0.013208,0.0019776,-0.0056774
0.026001,0.0095807,0.011382,0.0019983
0.029884,0.0055473,0.019862,0.0093225
0.030985,0.0011731,0.022764,0.013808
0.029492,-0.0024681,0.022132,0.014289
0.028421,-0.0035435,0.022534,0.010546
0.029492,-0.0032517,0.022605,0.0037271
0.033404,-0.0042367,0.0213,-0.0038701
0.038588,-0.011928,0.022332,-0.010253
0.042646,-0.026314,0.025591,-0.015007
0.0447,-0.040536,0.02479,-0.018654
0.048081,-0.060021,0.020323,-0.022103
0.060879,-0.088804,0.017766,-0.026972
0.091867,-0.11521,0.019562,-0.033405
0.13945,-0.13565,0.031833,-0.038194
0.20053,-0.16464,0.052924,-0.038075
0.27561,-0.21269,0.069537,-0.033288
0.33794,-0.27552,0.079162,-0.025204
0.35401,-0.32792,0.088034,-0.012557
0.32812,-0.3319,0.098119,0.0066054
0.28127,-0.27903,0.11497,0.0306
0.20481,-0.17344,0.137,0.053115
0.088696,-0.010462,0.14245,0.066925
-0.042486,0.17662,0.12035,0.068836
-0.16841,0.31746,0.086928,0.058568
-0.28833,0.35054,0.059587,0.039296
-0.39591,0.26399,0.037354,0.018984
-0.44287,0.13648,0.017104,0.0018227
-0.34976,0.067142,0.006342,-0.014536
-0.1265,0.065656,0.0057618,-0.028948
0.10372,0.082742,0.016389,-0.036277
0.26425,0.026687,0.047022,-0.036393
0.35524,-0.14357,0.074424,-0.03055
0.38216,-0.29914,0.064469,-0.016669
0.38098,-0.31602,0.028798,0.002945
0.3636,-0.19324,-0.0020868,0.018558
0.30002,-0.035709,-0.015386,0.021158
0.21724,0.014708,-0.014303,0.011106
0.13254,-0.043435,-0.00044554,-0.0019192
0.02373,-0.11469,0.026922,-0.0077513
-0.069874,-0.1348,0.053895,-0.0047114
-0.12173,-0.060333,0.065144,0.0011648
-0.1797,0.09683,0.056955,0.0064159
-0.23975,0.23527,0.032529,0.013059
-0.26879,0.23444,0.0015345,0.022214
-0.2989,0.091723,-0.025402,0.033111
-0.31725,-0.037565,-0.041698,0.044354
-0.2701,-0.037491,-0.046359,0.052663
-0.17508,0.072565,-0.043438,0.053196
-0.082502,0.21617,-0.039635,0.042819
-0.045664,0.2988,-0.038434,0.024958
-0.089118,0.27765,-0.036296,0.0090309
-0.13572,0.18121,-0.03435,0.0025438
-0.11185,0.080225,-0.039681,0.0048277
-0.07098,0.032373,-0.051977,0.009097
-0.067324,0.029517,-0.064831,0.00995
-0.074119,0.047847,-0.075794,0.007139
-0.070138,0.068964,-0.084336,0.0023777
-0.07128,0.067145,-0.088925,-0.0039743
-0.090429,0.048688,-0.091117,-0.011722
-0.10904,0.03748,-0.092209,-0.018907
-0.11412,0.034411,-0.091203,-0.023175
-0.1212,0.033137,-0.08764,-0.023886
-0.13894,0.033087,-0.082267,-0.021309
-0.15613,0.034095,-0.076903,-0.015944
-0.15616,0.033334,-0.072317,-0.0097006
-0.13892,0.03087,-0.067653,-0.0048386
-0.12072,0.029287,-0.062667,-0.0017216
-0.1056,0.027877,-0.05677,0.00081264
-0.087774,0.026041,-0.051048,0.0034277
-0.072808,0.024438,-0.048691,0.0055573
-0.067583,0.021666,-0.047839,0.0061569
-0.068429,0.017926,-0.043194,0.0048217
-0.067249,0.014634,-0.033836,0.002319
-0.055587,0.011592,-0.026042,-0.00036626
-0.034926,0.0097388,-0.023543,-0.0028414
-0.01929,0.0084547,-0.021834,-0.0053296
-0.016531,0.0063837,-0.018228,-0.0079468
-0.019675,0.0054276,-0.015887,-0.010292
-0.017745,0.0055183,-0.015625,-0.011968
-0.0090931,0.0023946,-0.014074,-0.012988
-0.0005547,-0.0049143,-0.011115,-0.014448
0.0043485,-0.011004,-0.0072562,-0.017215
0.0099968,-0.011986,-0.0024563,-0.019707
0.018945,-0.010539,-0.0014795,-0.020134
0.027327,-0.010034,-0.0045105,-0.018975
0.033527,-0.010793,-0.0058642,-0.017298
0.039061,-0.012231,-0.005953,-0.015662
0.04872,-0.012894,-0.0071073,-0.014589
0.069736,-0.012291,-0.006532,-0.01441
0.094377,-0.013464,-0.003109,-0.015308
0.1048,-0.017926,-0.0014674,-0.016971
0.099241,-0.020613,-0.0031159,-0.017435
0.086599,-0.017979,-0.0040809,-0.014663
0.072166,-0.020299,-0.0021798,-0.0097956
0.057155,-0.03964,0.0041706,-0.0058227
0.042478,-0.070198,0.015346,-0.0039207
0.033887,-0.096078,0.026229,-0.0033967
0.044484,-0.10544,0.032418,-0.0033957
0.075105,-0.1012,0.035151,-0.0034041
0.097709,-0.1127,0.039615,-0.0034494
0.097986,-0.14499,0.046198,-0.0044226
0.084828,-0.16244,0.051815,-0.0069901
0.061763,-0.15959,0.058181,-0.010578
0.03978,-0.12188,0.061825,-0.013171
0.04004,0.0015478,0.055589,-0.011571
0.064706,0.13011,0.043595,-0.0044493
0.067396,0.11332,0.033178,0.0048589
0.026763,-0.011132,0.025868,0.011522
0.012237,-0.11352,0.021458,0.014269
0.069203,-0.13736,0.017289,0.014556
0.14966,-0.065191,0.015101,0.012819
0.17134,0.077643,0.020898,0.0089996
0.10575,0.21224,0.02954,0.0040832
0.011214,0.28142,0.034542,-0.00072112
-0.051016,0.26148,0.039291,-0.0035366
-0.062361,0.15144,0.043475,-0.0023147
-0.037886,0.012444,0.048211,0.0025155
0.0073015,-0.09743,0.057366,0.0075509
0.064604,-0.17116,0.062556,0.009502
0.10045,-0.20858,0.053942,0.0082072
0.12004,-0.19555,0.037805,0.0058314
0.14586,-0.14794,0.028901,0.0041464
0.12635,-0.10805,0.033593,0.003489
0.024062,-0.06056,0.042826,0.0031506
-0.099585,-0.023801,0.040238,0.0023161
-0.16571,-0.054125,0.031405,0.0012882
-0.16624,-0.093538,0.031138,-5.765e-05
-0.14458,-0.033513,0.026703,-0.0022453
-0.11249,0.13802,0.012063,-0.0035211
-0.046346,0.31099,0.0086361,-0.0016179
0.032465,0.34903,0.022928,0.0033359
0.094124,0.23982,0.034431,0.0091323
0.14402,0.1091,0.025736,0.013799
0.16733,0.030025,0.0032284,0.016816
0.13759,-0.025256,-0.010873,0.018369
0.057012,-0.07035,-0.0085248,0.018281
-0.033335,-0.08355,-0.0049708,0.015905
-0.096298,-0.059783,-0.0097476,0.011913
-0.13573,-0.036438,-0.0167,0.008427
-0.15986,-0.031401,-0.021968,0.0067549
-0.15985,-0.017928,-0.028606,0.0059023
-0.1397,0.0052506,-0.038303,0.0037961
-0.12989,0.032305,-0.047305,0.00012147
-0.13202,0.080632,-0.050932,-0.0032936
-0.099516,0.12222,-0.047178,-0.0046057
-0.024723,0.11817,-0.040637,-0.0034696
0.027163,0.078392,-0.034652,-0.00064635
0.017308,0.031204,-0.029686,0.0023654
-0.025061,-0.0035344,-0.031755,0.0039278
-0.064006,-0.028501,-0.036904,0.0039814
-0.074911,-0.045208,-0.038068,0.0035378
-0.053603,-0.046846,-0.036146,0.0028134
-0.027099,-0.038963,-0.032789,0.0015633
-0.018167,-0.029778,-0.031245,1.8763e-05
-0.018372,-0.024078,-0.029394,-0.0017201
-0.014097,-0.023761,-0.023582,-0.003648
-0.013499,-0.024442,-0.020854,-0.0050117
-0.021471,-0.023069,-0.027239,-0.0048466
-0.030144,-0.02042,-0.038409,-0.0028905
-0.03618,-0.016559,-0.046807,-4.8582e-05
-0.038566,-0.011704,-0.047779,0.0020395
-0.038166,-0.010072,-0.043821,0.0025376
-0.034053,-0.014643,-0.037262,0.001978
-0.023303,-0.018434,-0.028963,0.0012964
-0.0137,-0.01776,-0.020579,0.00073832
-0.010545,-0.017085,-0.013165,1.4915e-05
-0.0071485,-0.013704,-0.0085656,-0.00094213
-0.0017361,0.00069407,-0.0050702,-0.0025991
0.0013306,0.017692,0.00024316,-0.005542
-0.0012643,0.022137,0.0054142,-0.0088017
-0.0075989,0.018675,0.0065938,-0.010725
-0.01237,0.015251,0.0016635,-0.010606
-0.014609,0.011284,-0.0089586,-0.0086666
-0.013769,0.0068981,-0.017586,-0.006375
-0.0082524,0.0029307,-0.017726,-0.0055526
0.00010681,-0.0010273,-0.011253,-0.00536
0.007374,-0.0052996,-0.0014145,-0.0027735
0.017145,-0.014907,0.0085239,0.0018703
0.038683,-0.034638,0.015488,0.0047027
0.066529,-0.059676,0.017284,0.0046399
0.07823,-0.083663,0.015943,0.0030471
0.064791,-0.099202,0.014586,-0.00036329
0.044887,-0.095372,0.0090887,-0.0048289
0.035558,-0.063492,-0.0010454,-0.0070197
0.036884,-0.0034592,-0.0054219,-0.0063139
0.056081,0.062336,-0.0024646,-0.0056215
0.10377,0.091136,-0.0042199,-0.0060251
0.16483,0.064415,-0.012727,-0.0053008
0.20519,0.0042655,-0.011578,-0.00067822
0.21435,-0.05065,0.0091517,0.0083058
0.20993,-0.070857,0.037253,0.017463
0.18919,-0.069209,0.059786,0.019784
0.15049,-0.051605,0.070954,0.012206
0.11354,-0.0068549,0.067237,-0.00048253
0.081294,0.024376,0.05631,-0.01092
0.023754,-0.0042561,0.045038,-0.015983
-0.091446,-0.076964,0.032142,-0.016314
-0.21175,-0.12621,0.026754,-0.013776
-0.22391,-0.082115,0.037394,-0.010694
-0.11445,0.04581,0.046326,-0.0080489
0.017031,0.12578,0.034569,-0.0035633
0.095261,0.077697,0.015553,0.0058213
0.10211,-0.0088325,0.0029025,0.018949
0.050128,-0.059307,-0.0090744,0.029933
-0.007483,-0.082943,-0.018402,0.033316
-0.016725,-0.067392,-0.01869,0.028226
0.023837,-0.015715,-0.008849,0.016525
0.070866,-0.011777,0.0084822,0.001511
0.078697,-0.078343,0.02709,-0.010024
0.055813,-0.11849,0.041139,-0.012357
0.047708,-0.098314,0.048088,-0.0083487
0.079871,-0.065089,0.050355,-0.0056796
0.15745,-0.035163,0.050772,-0.0057682
0.24111,-0.0034056,0.048095,-0.002901
0.26496,0.044155,0.04372,0.0047068
0.1944,0.1248,0.037634,0.011385
0.069073,0.22943,0.027773,0.012442
-0.011408,0.30359,0.022034,0.008008
-0.045401,0.27478,0.022577,0.00033365
-0.10694,0.14661,0.018387,-0.0070194
-0.20197,-0.018813,0.00052578,-0.0090054
-0.29284,-0.16088,-0.025696,-0.0035322
-0.31191,-0.1913,-0.034615,0.0043786
-0.2335,-0.1203,-0.015035,0.008446
-0.12805,-0.084128,0.011141,0.007566
-0.051732,-0.099331,0.024211,0.0039072
0.002508,-0.090355,0.01752,-0.00018756
0.048984,-0.058816,-0.0060388,-0.0023928
0.082189,-0.035305,-0.029051,-0.0013614
0.092825,-0.053179,-0.031334,0.0012517
0.065363,-0.089468,-0.015904,0.0023621
0.0050831,-0.0047255,-0.0064532,0.001027
-0.037253,0.20694,-0.012028,-0.0011907
-0.043121,0.31137,-0.024279,-0.0031828
-0.05405,0.20326,-0.036253,-0.0050875
-0.088406,0.048895,-0.042589,-0.0056821
-0.13089,-0.012096,-0.03761,-0.0042632
-0.16294,0.0078597,-0.024072,-0.0040858
-0.1613,0.06164,-0.015129,-0.0069089
-0.13476,0.10779,-0.017316,-0.0087024
-0.11258,0.096614,-0.023432,-0.0054517
-0.08109,0.026341,-0.027708,0.0037677
-0.029728,-0.034959,-0.031599,0.016012
0.0013967,-0.043182,-0.034973,0.021721
-0.0085179,-0.024947,-0.036983,0.013757
-0.032071,-0.011371,-0.037659,-0.00077713
-0.053956,-0.0024311,-0.037898,-0.0076585
-0.078421,0.0077711,-0.03841,-0.0013135
-0.1017,0.01398,-0.036938,0.0093907
-0.12189,0.010909,-0.033164,0.0095965
-0.1278,0.0070568,-0.030183,-0.0054289
-0.098035,0.0093423,-0.029566,-0.025473
-0.039849,0.013026,-0.028759,-0.037292
0.011797,0.014258,-0.027281,-0.03618
0.040941,0.014833,-0.026051,-0.025971
0.05523,0.013533,-0.024409,-0.012167
0.047362,0.012019,-0.023388,0.0023156
0.012552,0.018383,-0.023606,0.015731
-0.020131,0.027691,-0.025644,0.02443
-0.038352,0.031751,-0.028891,0.024498
-0.067939,0.034708,-0.031368,0.016954
-0.12278,0.0356,-0.034094,0.0080736
-0.18198,0.021446,-0.035079,0.0029314
-0.2037,-0.0048504,-0.02977,-3.0231e-05
-0.16848,-0.010253,-0.019792,-0.0053884
-0.10255,0.0082586,-0.0061776,-0.013448
-0.045272,0.0102,0.008373,-0.019742
-0.007063,-0.0083928,0.011835,-0.019781
0.022739,-0.0099646,0.00068735,-0.012953
0.043171,0.01227,-0.010723,-0.0034852
0.056839,0.027197,-0.0089318,0.0034293
0.079478,0.019506,0.0037164,0.0063462
0.11357,0.003871,0.015801,0.006429
0.13717,-0.0082766,0.021775,0.0058976
0.12358,-0.017129,0.026289,0.0080943
0.07741,-0.021111,0.032572,0.0133
0.036913,-0.023424,0.034446,0.016495
0.02415,-0.026168,0.027622,0.012374
0.027849,-0.02558,0.01644,0.0018473
0.033851,-0.031826,0.0091083,-0.0085659
0.040866,-0.048604,0.010743,-0.014782
0.052872,-0.052621,0.017973,-0.018282
0.055646,-0.042602,0.023744,-0.021667
0.030238,-0.05614,0.025525,-0.024497
0.0020536,-0.09664,0.024317,-0.022993
0.021243,-0.11392,0.024238,-0.013977
0.079846,-0.085496,0.028757,-0.00038332
0.1177,-0.031378,0.031591,0.0096173
0.10578,0.029763,0.02823,0.012507
0.072028,0.093009,0.021492,0.012449
0.058538,0.1477,0.014007,0.012801
0.079383,0.15821,0.012562,0.01172
0.11709,0.088087,0.021515,0.0067157
0.14297,-0.036402,0.030996,0.00044595
0.13597,-0.1426,0.035134,-0.0030778
0.093152,-0.1871,0.040241,-0.0058474
0.036211,-0.15255,0.045637,-0.011409
-0.0093603,-0.077431,0.045751,-0.01731
-0.028837,-0.033556,0.040919,-0.017759
-0.014859,-0.010377,0.035745,-0.010918
0.013536,0.052254,0.031334,-0.00074712
0.006671,0.15652,0.02851,0.0079255
-0.065302,0.22375,0.031126,0.013357
-0.15471,0.16205,0.03412,0.014965
-0.16614,-0.0037273,0.032731,0.011989
-0.074484,-0.13816,0.035562,0.0049717
0.046473,-0.17458,0.047106,-0.0037815
0.11722,-0.16698,0.057155,-0.011093
0.11705,-0.17271,0.055056,-0.015565
0.083542,-0.18278,0.037222,-0.016692
0.062156,-0.13879,0.0086596,-0.011736
0.093712,-0.028252,-0.018052,-0.00020397
0.17534,0.083653,-0.034615,0.011852
0.1965,0.16498,-0.040334,0.017174
0.085779,0.22745,-0.037377,0.013399
-0.060032,0.24249,-0.027033,0.0028163
-0.12445,0.17558,-0.010081,-0.0090253
-0.10232,0.056252,0.012116,-0.01563
-0.050984,-0.051094,0.033271,-0.014868
-0.018109,-0.101,0.042947,-0.0095044
-0.01123,-0.11307,0.041872,-0.001629
-0.017797,-0.13314,0.039747,0.0092737
-0.052409,-0.13065,0.033837,0.022225
-0.10492,-0.047759,0.012611,0.032289
-0.11775,0.074954,-0.023332,0.035223
-0.087119,0.13536,-0.060718,0.03218
-0.048299,0.10607,-0.077126,0.025479
-0.0049435,0.049579,-0.065516,0.014944
0.04191,0.022734,-0.047806,0.0036975
0.044983,0.049543,-0.038003,-0.00238
-0.026073,0.1358,-0.032649,-0.0048971
-0.1081,0.20456,-0.030182,-0.010066
-0.14275,0.16922,-0.028559,-0.017556
-0.1494,0.081535,-0.023919,-0.022266
-0.13534,0.017103,-0.017395,-0.02149
-0.083643,-0.026447,-0.010102,-0.015377
-0.027391,-0.052468,-0.0065295,-0.0059267
-0.00025549,-0.045863,-0.011417,0.0044728
0.017929,-0.014689,-0.019712,0.015991
0.032879,0.009672,-0.023005,0.029108
0.026337,0.010406,-0.018051,0.04063
0.022902,-0.002544,-0.011658,0.045849
0.050972,-0.0083408,-0.010834,0.044713
0.083664,0.0039925,-0.013476,0.040444
0.083655,0.021946,-0.016371,0.031722
0.052199,0.031791,-0.023225,0.015981
0.0080326,0.033991,-0.035439,-0.0022744
-0.046291,0.029189,-0.04354,-0.015728
-0.10758,0.034898,-0.043664,-0.021783
-0.15141,0.058865,-0.043659,-0.021253
-0.14785,0.076186,-0.046065,-0.016645
-0.090551,0.07918,-0.042359,-0.012845
-0.01097,0.067526,-0.027866,-0.013044
0.041383,0.040699,-0.012818,-0.014904
0.040484,0.017428,-0.0088404,-0.014568
0.0021127,0.0072184,-0.014558,-0.01213
-0.036353,0.0012945,-0.018098,-0.010124
-0.05095,-0.0028855,-0.01194,-0.0091786
-0.051806,-0.0046797,-0.0035517,-0.0083977
-0.052158,-0.012088,-0.00046913,-0.00776
-0.044185,-0.031688,0.0042204,-0.0073102
-0.022121,-0.06145,0.014894,-0.0061234
0.0065947,-0.088022,0.023779,-0.0035644
0.030946,-0.095327,0.024582,9.3988e-05
0.046729,-0.084439,0.016837,0.0037662
0.058594,-0.066842,0.004163,0.0058887
0.068514,-0.050377,-0.0066612,0.0056561
0.066569,-0.035951,-0.011193,0.0031038
0.046258,-0.018891,-0.0096139,-0.0015679
0.024825,-0.0040619,-0.0030532,-0.0074944
0.016234,0.0087055,0.0066435,-0.013013
0.0086618,0.033668,0.012701,-0.016715
-0.0023439,0.051723,0.01252,-0.018106
-0.0051283,0.036058,0.012069,-0.017541
0.0016749,0.010341,0.012464,-0.015795
0.0051375,-0.014069,0.011761,-0.013392
-0.0013124,-0.055363,0.010974,-0.010203
-0.0049147,-0.10363,0.010288,-0.0060615
0.0058876,-0.1317,0.0073503,-0.0019039
0.021036,-0.13854,0.0050603,-0.00015713
0.029784,-0.13033,0.0081415,-0.0025709
0.034215,-0.097983,0.011572,-0.0076964
0.036686,-0.06437,0.0092885,-0.012248
0.035583,-0.046213,0.0024465,-0.013759
0.035299,-0.0097271,-0.0068495,-0.011864
0.044875,0.057832,-0.01473,-0.0086084
0.062843,0.10142,-0.01352,-0.0072218
0.078217,0.057346,-0.0037688,-0.0087627
0.079323,-0.035563,0.0092707,-0.010406
0.059953,-0.080486,0.024231,-0.0094179
0.023415,-0.062869,0.032065,-0.0061276
-0.01375,-0.016937,0.02731,-0.0016099
-0.036687,0.048967,0.017797,0.0037771
-0.050116,0.12657,0.0083316,0.0094804
-0.056655,0.17684,0.003565,0.014478
-0.042867,0.14493,0.0090394,0.018398
-0.0035587,0.016239,0.02096,0.021546
0.055882,-0.13722,0.028328,0.023378
0.12349,-0.1978,0.026472,0.021796
0.19442,-0.14894,0.020243,0.015607
0.26422,-0.10859,0.015474,0.0081968
0.27341,-0.13178,0.016741,0.004
0.17721,-0.14758,0.024669,0.0019996
0.041541,-0.13404,0.033579,-0.00068005
-0.056406,-0.13481,0.03568,-0.0028651
-0.073313,-0.12801,0.02867,-0.002592
0.027412,-0.066244,0.014769,-0.00065574
0.15729,0.0024761,-0.0014643,0.0011172
0.18557,-0.016145,-0.0045213,0.00047026
0.14701,-0.089386,0.010547,-0.0043593
0.13485,-0.097585,0.018598,-0.0099617
0.12877,-0.035226,0.0056011,-0.0090133
0.060379,0.030903,-0.0076387,0.00046379
-0.054243,0.081964,-0.0018468,0.01164
-0.16132,0.14885,0.015984,0.015364
-0.22432,0.24964,0.028612,0.0081206
-0.24,0.29219,0.033028,-0.0057573
-0.21618,0.20526,0.036198,-0.020075
-0.088101,0.092111,0.039077,-0.030939
0.13927,0.046815,0.039886,-0.034109
0.29401,0.019464,0.038573,-0.027103
0.29029,-0.068135,0.03473,-0.012548
0.24893,-0.17659,0.025976,0.0063274
0.25445,-0.21085,0.0073471,0.028751
0.23263,-0.19968,-0.027758,0.051219
0.11118,-0.20982,-0.063646,0.065574
-0.050296,-0.18944,-0.068786,0.064701
-0.14407,-0.099314,-0.048092,0.049053
-0.1596,-0.0079074,-0.02727,0.027788
-0.16398,0.064679,-0.013782,0.0078322
-0.18977,0.1656,-0.015392,-0.012684
-0.21191,0.27624,-0.030149,-0.033576
-0.20824,0.30827,-0.035604,-0.04783
-0.18463,0.22861,-0.026509,-0.051151
-0.14965,0.12194,-0.017714,-0.045327
-0.1074,0.063313,-0.016475,-0.033203
-0.062749,0.033389,-0.017949,-0.017559
-0.022001,0.014834,-0.020076,-0.0029235
0.0028442,0.020213,-0.021989,0.0067171
0.01012,0.026312,-0.020881,0.011101
0.002744,0.0086716,-0.021548,0.012069
-0.020117,0.00063636,-0.025468,0.011168
-0.051563,0.030161,-0.027226,0.010178
-0.091048,0.067153,-0.024874,0.011334
-0.1423,0.092209,-0.019245,0.015033
-0.18433,0.10813,-0.013956,0.018122
-0.18286,0.098622,-0.012424,0.017256
-0.13966,0.071255,-0.017725,0.013457
-0.093681,0.057556,-0.028349,0.010331
-0.073203,0.056981,-0.037447,0.0096599
-0.073051,0.055443,-0.045305,0.010232
-0.076176,0.052986,-0.055234,0.0097645
-0.076042,0.04731,-0.064852,0.0079596
-0.074486,0.030043,-0.06655,0.0064229
-0.074059,0.0015543,-0.055828,0.0053096
-0.079532,-0.019155,-0.042487,0.0036829
-0.088526,-0.019549,-0.033332,0.0020198
-0.088164,-0.016321,-0.020869,0.00064421
-0.078865,-0.018704,-0.0070815,-0.0013035
-0.070199,-0.015078,-0.0025672,-0.0037196
-0.061706,-0.0052446,-0.0051152,-0.0050237
-0.050605,0.0014311,-0.0059825,-0.0045425
-0.037988,0.0046161,-0.0035313,-0.0035384
-0.025816,0.0062833,0.002913,-0.0036142
-0.014215,0.0046155,0.01005,-0.0054652
-0.0015995,-0.0014433,0.010749,-0.0085094
0.012309,-0.0091329,0.0071279,-0.01106
0.023638,-0.011476,0.0051591,-0.011422
0.023474,-0.0077143,0.0047529,-0.0090485
0.013404,-0.0058986,0.0024785,-0.0050056
0.0068076,-0.010557,-0.0021068,-0.0012551
0.0060609,-0.018554,-0.0047907,0.0011765
0.0060389,-0.020758,-0.00060422,0.0024606
0.0064833,-0.016243,0.0078937,0.0022494
0.0091156,-0.015203,0.015857,-0.00015061
0.015162,-0.018676,0.021396,-0.0037454
0.020964,-0.020799,0.023177,-0.006484
0.023678,-0.019684,0.021468,-0.0076659
0.02355,-0.017368,0.016871,-0.0079059
0.019944,-0.015614,0.011293,-0.0076295
0.018689,-0.014196,0.0055043,-0.0067405
0.022981,-0.015288,0.00053996,-0.0053357
0.028403,-0.020247,-8.5825e-05,-0.0041437
0.032953,-0.025621,0.0035127,-0.0047207
0.034635,-0.027635,0.0074054,-0.0085778
0.033729,-0.026489,0.0077676,-0.015256
0.033652,-0.025063,0.0050252,-0.021722
0.034392,-0.02429,0.0017653,-0.023797
0.034241,-0.023093,-0.00055821,-0.019869
0.035143,-0.023038,-0.00022155,-0.013161
0.038354,-0.025173,0.0011296,-0.009324
0.04025,-0.026674,0.0026894,-0.011538
0.040663,-0.026791,0.0075189,-0.016604
0.04084,-0.027343,0.016366,-0.018586
0.037152,-0.029089,0.026202,-0.015024
0.028386,-0.032079,0.032876,-0.0068953
0.019401,-0.034937,0.03581,0.0022939
0.011377,-0.037028,0.035579,0.0084369
0.0055647,-0.040701,0.034488,0.011877
0.0087117,-0.046361,0.039215,0.01756
0.020388,-0.048528,0.048128,0.028167
0.034577,-0.0375,0.049876,0.040971
0.051996,-0.030614,0.045994,0.050445
0.07812,-0.054507,0.048173,0.049913
0.11832,-0.077816,0.050987,0.036934
0.17019,-0.061234,0.042775,0.018681
0.20974,-0.027452,0.02804,0.0040907
0.21576,-0.015935,0.016724,-0.0063701
0.20171,-0.030575,0.015113,-0.017988
0.19706,-0.046575,0.026494,-0.03217
0.20731,-0.0441,0.045213,-0.04091
0.20041,-0.035209,0.063762,-0.035656
0.1365,-0.037618,0.078166,-0.018857
0.005978,-0.056263,0.079983,0.00161
-0.146,-0.096397,0.064449,0.020444
-0.23509,-0.14264,0.051608,0.032328
-0.21765,-0.14863,0.06186,0.031797
-0.13538,-0.070435,0.079111,0.020591
-0.050055,0.049456,0.08067,0.0081773
-0.01283,0.11375,0.06167,0.0029369
-0.05283,0.096824,0.029743,0.0053051
-0.10172,0.0099937,0.002908,0.0078405
-0.087544,-0.11998,-0.012621,0.0056301
-0.024091,-0.21077,-0.019015,0.0029035
0.088497,-0.22551,-0.006005,0.0025769
0.22377,-0.20312,0.019394,0.0021413
0.30792,-0.1853,0.039031,0.0028182
0.31469,-0.20342,0.050446,0.0073901
0.25668,-0.20054,0.045453,0.010903
0.18053,-0.052144,0.021466,0.0065648
0.15533,0.18025,0.0056487,-0.0010825
0.19934,0.27488,0.020594,-0.0022946
0.24659,0.1999,0.044364,0.0029004
0.19853,0.12004,0.047795,0.0072954
0.025673,0.15145,0.03505,0.0067703
-0.17551,0.24273,0.020485,0.0023271
-0.31233,0.23152,0.0014676,-0.0027351
-0.38813,0.10243,-0.037634,-0.0050467
-0.40726,-0.010481,-0.093542,-0.0027381
-0.38938,-0.085235,-0.13188,0.0039775
-0.35997,-0.12308,-0.1229,0.0095739
-0.27462,-0.06548,-0.08074,0.00302
-0.12148,0.012535,-0.043409,-0.019458
0.016144,0.017107,-0.025026,-0.045497
0.068572,0.013492,-0.018689,-0.058239
0.055848,0.057552,-0.022409,-0.053508
0.035521,0.10165,-0.034515,-0.039443
0.019277,0.11004,-0.044967,-0.024124
-0.017316,0.11204,-0.051865,-0.010635
-0.063285,0.13077,-0.059314,0.0010213
-0.087315,0.13838,-0.065885,0.011105
-0.089396,0.11141,-0.073212,0.018803
-0.081927,0.069831,-0.082458,0.024193
-0.072597,0.045409,-0.084718,0.028308
-0.060584,0.045163,-0.074937,0.03086
-0.037738,0.053665,-0.063824,0.030982
-0.019432,0.063665,-0.061143,0.029241
-0.039134,0.088806,-0.065824,0.026881
-0.088522,0.12854,-0.07338,0.02423
-0.12132,0.15024,-0.076827,0.020925
-0.11429,0.13845,-0.069682,0.016276
-0.082237,0.11499,-0.057706,0.0099579
-0.061618,0.096937,-0.05018,0.003211
-0.07408,0.084626,-0.046034,-0.0022724
-0.10165,0.075021,-0.043757,-0.0057927
-0.12031,0.065006,-0.044001,-0.007905
-0.12142,0.05386,-0.043239,-0.0097245
-0.10079,0.040174,-0.039028,-0.011442
-0.067592,0.022274,-0.033899,-0.012306
-0.042373,0.0023988,-0.031522,-0.011507
-0.029738,-0.015493,-0.032458,-0.0089468
-0.020607,-0.025099,-0.033381,-0.005645
-0.012136,-0.024288,-0.028921,-0.0027557
-0.005052,-0.017514,-0.020018,-0.00062802
0.0022528,-0.0092025,-0.014954,0.00092859
0.0083789,-0.0084513,-0.013386,0.0019894
0.011622,-0.017537,-0.010201,0.0022281
0.015796,-0.025038,-0.0070395,0.0014076
0.021804,-0.025707,-0.0060122,-0.00025592
0.028113,-0.023386,-0.0051547,-0.00208
0.034838,-0.021384,-0.0025346,-0.0034712
0.039616,-0.02065,0.0021658,-0.0045014
0.040674,-0.02204,0.0067039,-0.0055525
0.038374,-0.027646,0.0037827,-0.0066708
0.03694,-0.033714,-0.0042926,-0.007255
0.038848,-0.035091,-0.005651,-0.0070042
0.039839,-0.033118,-0.0018501,-0.0067512
0.039744,-0.028296,-0.0010805,-0.0072279
0.040422,-0.023031,-0.002803,-0.0079474
0.041054,-0.02025,-0.0033342,-0.0083256
0.041605,-0.018671,-0.0045576,-0.0086339
0.04083,-0.016725,-0.0099143,-0.0092918
0.038736,-0.014055,-0.015445,-0.010356
0.036038,-0.012818,-0.016062,-0.011516
0.033977,-0.012424,-0.010755,-0.012243
0.035269,-0.011951,-0.0033433,-0.012411
0.036657,-0.011363,0.00068698,-0.012467
0.034235,-0.0088154,0.00012638,-0.012739
0.0307,-0.0069035,-0.004707,-0.012845
0.027523,-0.010314,-0.0091058,-0.012238
0.022773,-0.018472,-0.0059236,-0.011082
0.019058,-0.023994,0.0020834,-0.0098899
0.020229,-0.022579,0.0057571,-0.0087472
0.022449,-0.019721,0.0039776,-0.0070953
0.022794,-0.020271,0.0051303,-0.0045342
0.023155,-0.022952,0.014533,-0.0014175
0.023098,-0.025584,0.02421,0.0014763
0.023818,-0.02645,0.025193,0.0033704
0.025018,-0.024563,0.021835,0.0041939
0.023072,-0.021793,0.018509,0.0044022
0.021819,-0.020527,0.01322,0.0041931
0.026599,-0.019247,0.0076833,0.0037205
0.032405,-0.016621,0.006806,0.0028924
0.033964,-0.014419,0.011771,0.00088908
0.033596,-0.013627,0.016872,-0.0022868
0.032045,-0.015707,0.018485,-0.0046293
0.029847,-0.02064,0.025062,-0.0045936
0.028881,-0.025181,0.037714,-0.0032129
0.029404,-0.026843,0.041955,-0.0022323
0.029819,-0.025676,0.035338,-0.0016392
0.026633,-0.025956,0.028805,-0.00060658
0.02068,-0.028672,0.028011,0.0010689
0.018425,-0.025394,0.032454,0.0042495
0.022223,-0.012073,0.039903,0.0099996
0.025074,0.0017766,0.044946,0.01706
0.023627,0.0048257,0.043054,0.022791
0.023759,-0.0076574,0.037212,0.026296
0.034868,-0.03384,0.032448,0.028281
0.057405,-0.060144,0.029237,0.028976
0.076898,-0.077285,0.025133,0.027109
0.08342,-0.089763,0.023878,0.020709
0.083771,-0.10854,0.032177,0.0091146
0.091833,-0.13694,0.044049,-0.0052197
0.099817,-0.14832,0.050136,-0.016766
0.078347,-0.13902,0.050477,-0.02157
0.025183,-0.13622,0.053689,-0.020921
-0.02045,-0.12977,0.064664,-0.018373
-0.027993,-0.099011,0.069644,-0.014893
-0.015923,-0.050789,0.060537,-0.007754
-0.02098,0.0003329,0.048612,0.0040031
-0.046309,0.035312,0.043766,0.01469
-0.061868,0.029936,0.045162,0.017858
