-0.0183954516658902,-0.0185984244008445,-0.0180933316520893,-0.00176785237400483
-0.00573763925384919,-0.0364989499133985,-0.00914427924168011,-0.00500561935615923
0.00322825380670372,-0.0259563141789258,-0.0082388523353521,-0.00696286595083182
0.00492550551757415,-0.0219497330903854,-0.0136316859973103,-0.00854367077820708
-0.00362963889248092,-0.022724421028004,-0.0287667777835438,-0.010132570894835
-0.0130286847053238,0.00337338509977626,-0.0487620766433741,-0.0105767175061729
-0.0150242950930008,0.0426995348792908,-0.0526765040921677,-0.00816455172343916
-0.0125165069320263,0.0511194393116242,-0.0342717761586093,-0.0024615653837393
-0.0122020703524429,0.0158445202059984,-0.0101383004887681,0.00521392574346287
-0.01709893548386,-0.0242368596260883,0.00446583918076563,0.012638008211168
-0.0222719376250645,-0.0398555088298554,0.00914742708457911,0.0172876764590575
-0.0206109352055185,-0.0458825071898902,0.00873822403817183,0.0171189829014588
-0.0116589973636819,-0.0552064478353968,0.00422471760778141,0.0117979450253241
-0.000635359742053011,-0.0570830733211846,-0.00262559007143195,0.00375327627903171
0.00586767461330162,-0.0448188495434129,-0.0084200649686617,-0.00318203483636423
0.00523581417001361,-0.0290125232874715,-0.0129647285973513,-0.00703724844742984
0.00554937071648166,-0.0205692282354383,-0.0151368819664243,-0.00831335196600324
0.0103732435378057,-0.0151112627722077,-0.0125024189120207,-0.00814685910115074
0.0139650167697799,0.00863047519700829,-0.0124735212950793,-0.00738154529876096
0.0152092797575929,0.0382571894020249,-0.0192803447460688,-0.00668866817074286
0.00960585460053985,0.0308731597004634,-0.0220421229802275,-0.00607470187261487
-0.0032024537418038,0.00219311046574611,-0.0185032725606322,-0.00481207283984125
-0.0105291390574534,-0.00805438329478762,-0.0173024284753372,-0.00296033788723414
-0.00674946359139702,-0.00847573043095915,-0.0180830723998112,-0.00151043162707697
0.000890235740393884,-0.00907852669546926,-0.0149658957790787,-0.000757841439594068
0.00209716501907311,0.00744076238940625,-0.0109800535788142,-0.000123672138500851
-0.00342837924599449,0.0377884151426418,-0.0124720599825248,0.00062710172981646
-0.00880340209726974,0.0545075137148862,-0.017541942067873,0.00114510800885692
-0.0140593511603532,0.0475612182073257,-0.021729721316406,0.00135106108762035
-0.0157115974683699,0.02379354781959,-0.0196051488301535,0.0014415548252204
-0.00873782545896351,-0.00188046015071336,-0.00968566122062657,0.00163033849372278
-0.00268327209290008,-0.015830445878382,-0.000130459892128613,0.0021357834087673
-0.00800121785823553,-0.0230393723060179,0.00755027912583092,0.0028062578207712
-0.0211185517300333,-0.0296881900044996,0.0163661418772265,0.00326524510197622
-0.0303445102189507,-0.0291813756381068,0.0193461032573833,0.00309502375083443
-0.0292079326605557,-0.0162104897826835,0.0134169188166859,0.00174657781359269
-0.0274469251089539,0.00571045064161402,0.00405503254407303,-0.000727985517919577
-0.0287030701371117,0.0371428889062605,-0.00702697971751714,-0.00343430233187445
-0.00980284038317159,0.0724377164625209,-0.0167810018502049,-0.00588565192266599
0.0279921880688868,0.0808084636946733,-0.0170594634509833,-0.00832499720357015
0.045733407381425,0.0479131788292524,-0.00524957010693781,-0.0104306613024641
0.0353081747439272,-0.00758272301722551,0.0131091577677884,-0.0108508157492265
0.0147578339654786,-0.0515849826929832,0.0239498313154542,-0.00872175367843927
-0.0112418061581762,-0.026781051448327,0.00837210247912057,-0.0051539833830151
-0.0322610236697424,0.0596445786805502,-0.0277301252197366,-0.00258372195135012
-0.036998900737234,0.0902026160908036,-0.0428915415589237,-0.00239084346132296
-0.0309323553133719,0.0394230367700883,-0.0218990253921516,-0.00274917033311305
-0.0216815162722571,0.0107166646846448,-0.000726432439701753,-0.000598454569420089
-0.0151941534718686,0.0198823364429602,0.00384427588057713,0.00356694263606968
-0.0154823588842274,0.0136129320743774,0.00793822200709818,0.00661827429615152
-0.0163453178889051,0.00423540532895816,0.0130337601591441,0.00754659647878836
-0.0157896057566964,0.0253045268563775,0.0118681376553159,0.00713825344910238
-0.0201802574017762,0.055530447234741,0.00972731215897351,0.00586601873698113
-0.0164093497854789,0.0682636657815065,0.00716508624950013,0.00466731505228116
0.0111931363778874,0.0726796259887802,-0.00213666853673647,0.00418822441452511
0.0426240359264511,0.0502460180644998,-0.00442722007841523,0.00290018312265485
0.0540444057388803,0.00236875106427424,0.00774930510695781,-0.000620200031061594
0.0483913905865527,-0.00170165274499752,0.00889089097659242,-0.00500123825651291
0.0330290103612167,0.0302472538083897,-0.0014047406950262,-0.00818555778269942
0.015533002074829,0.0311613011554172,0.000684828004888803,-0.00932509429171748
0.00453922510804795,0.0181668073444754,0.00480813159765725,-0.0082163307281692
0.00234123812308117,0.0185969648170279,0.00121503417261205,-0.00553820325276016
0.00775372280633788,0.000570892291896032,0.00992302595701216,-0.00251375205396704
0.0124578159296825,-0.0375504762701268,0.0309437076085744,0.000477618228473341
0.00698396190665022,-0.0321315513364005,0.0343912572602083,0.00348726813316787
-0.00794418804027552,0.0369338989475917,0.0102989687743186,0.00572227890263921
-0.0255745233996923,0.0922615650482333,-0.0151295772996771,0.00597913065573816
-0.0378717016732691,0.0830209954739217,-0.017872829946935,0.00455661733652091
-0.0405724279329364,0.0556379375823294,-0.00790989453229476,0.0032796705804989
-0.0357668561824346,0.0453775950189332,-0.00121037373792019,0.0029560142258344
-0.0210507685163945,0.0295199950158455,0.00732453984074582,0.00300240861702117
0.00589198665055619,-0.000344570666960996,0.0199171316179748,0.00305233514326933
0.0323047791205062,-0.0306250293501851,0.0302881239576087,0.00358876049958079
0.0456952533308164,-0.0475387203499661,0.0364551691276107,0.00491241834499877
0.0509028917409785,-0.0387244227582649,0.0369698765304462,0.00640275943968872
0.058698081527414,-0.0204474846456856,0.0318969673050209,0.00707152686032661
0.0696982233459692,-0.0303048393268819,0.0284776492756881,0.00592109643194698
0.0715112743214724,-0.0491538237988044,0.0253874189125704,0.00326969183716402
0.0562676178159396,-0.0283421561807744,0.0154232038875439,0.000887550392678777
0.0321077034006729,0.006415631693363,0.00848129358146903,-0.000198399233434545
0.00964510542435908,0.0183403963821582,0.00701622856976846,-0.000301024249817953
-0.00272535279784731,0.0264387480593847,-0.00183507743515039,-2.21402904791851e-05
2.2235641528319e-05,0.0402950976671151,-0.0148948191094418,-7.73973064103923e-05
0.00633934613797579,0.0500392196935288,-0.0198617931425808,-0.000678647619338006
0.00205344440458113,0.0521154018983647,-0.0134201012059121,-0.000736357317689088
-0.00368260123079969,0.0343092121190717,0.00172874584817445,0.000509818188166767
0.00204925437430337,-0.000317655945173356,0.0173021305327685,0.00224723713028866
0.00804792415162699,-0.0146067370295825,0.0235093840255731,0.00308866943465478
0.00291218903969131,0.00991548259106712,0.0208180447673198,0.00229521568406572
-0.00424711297370926,0.0418051927448207,0.0186096542702943,0.000607974111315493
-0.00629324546501486,0.0460621338320746,0.0214539736007887,-0.000276375670865143
-0.00375984532208409,0.0271617692292739,0.0238447627040033,0.000167097051692926
0.00322265623537255,0.00923836693709858,0.0229917864251736,0.000630931014032463
0.0104981697859124,0.0017783421656145,0.0203999589199875,0.000177010743869983
0.0155519348912097,-0.00597266270779815,0.0160482610987007,-0.000609997847599139
0.0188190634034994,-0.0280508869551987,0.0155826798384896,-0.00102111467488239
0.0184033410101352,-0.0575482932755044,0.0221306745414457,-0.00094558872974585
0.0178921805035384,-0.0680909202965157,0.0296275710578365,-0.000575427277877778
0.0200290995366084,-0.0413203181786296,0.0278941715379436,-0.000315719758339784
0.0183563455474231,0.000424556921955047,0.0136462119024068,-0.000699728183388712
0.0117197724151756,0.0115027221339876,-0.00126997051147948,-0.00163618898780894
0.00467848593605304,-0.0049328804547489,-0.00575121780219783,-0.0020306261499191
0.00210257287445055,-0.00922646738741893,0.0018366217468557,-0.00114479003604906
0.00659430902276429,0.00956921753794551,0.0136769294132305,0.000559586175813686
0.0107780759867231,0.0243872780914151,0.0229984469343023,0.00215483217305709
0.00645395119020653,0.0218053751775564,0.0274780703792017,0.00313863511810159
-0.0035382103982515,0.0315764649365942,0.0198488610704047,0.00327324769375329
-0.00811873976657211,0.0532244266278651,0.00572016908121599,0.00166312152861398
-0.00308991978255485,0.0652697076648345,0.000192566812729729,-0.00238587580682746
0.00590485465442048,0.0617469310417787,0.00841408945479464,-0.00810694876312056
0.0141969469509238,0.0306297830834069,0.0186697490968903,-0.0129134976886215
0.0187399748943569,-0.00676982408593732,0.010075579395549,-0.0135040944116983
0.0174233457099226,-0.00970145532283001,-0.0110435567460214,-0.00887312148631634
0.00729815956516921,0.016079478542995,-0.0134092411664144,-0.000931586953416247
-0.00326099948467356,0.0267496157836641,0.00896351608220595,0.00763708650802276
0.00488412259094804,0.00963488860957869,0.028772463354417,0.0140218845895735
0.0245715483545152,-0.0104847300573431,0.0338398696967461,0.0152762144997019
0.0309240309428632,-0.0223630624552763,0.0328042452153515,0.0112019609692265
0.0225182565685252,-0.023635129742797,0.0265088361322859,0.00486998941084373
0.0127593499751982,-0.0148650732861628,0.0190866240436637,-0.000891673150210397
0.00648041090301252,-0.00592458104758854,0.0153924067946428,-0.00470745225517351
0.00230964944673448,0.00531464230052567,0.00869215553544324,-0.00632104042135285
-0.00320683203313225,0.0198998998563935,-0.000838650438100701,-0.00643970550810211
-0.0116464131490402,0.0232856690206272,-0.0017258056544163,-0.00568180136034148
-0.0190396763162173,0.00942339772815597,0.00473475304481877,-0.00416863468414788
-0.0217572264396098,-0.00371328624706388,0.00516373241581421,-0.00249145051678576
-0.0175458617287437,0.00151328442852728,-6.25701807041865e-05,-0.00137334743069964
-0.0102562838510055,0.0148492315655313,-0.00326587330986872,-0.000672800169701761
-0.00312846737768826,0.0187478529461225,-0.00641722497843001,0.000101133077294197
0.0110797532696966,0.0124692246592778,-0.0119401367054151,0.00115310681066581
0.0282899660810552,0.000245043122955046,-0.0119812399792353,0.00234855228173734
0.0316454294297458,-0.0161229604364206,-0.00158245785190298,0.00345165395762458
0.0197128436879147,-0.0314042419150689,0.011865180828804,0.00440614575826705
0.00587450676996642,-0.0429620715836938,0.0237309050264021,0.00519271248161295
-0.00176541859940921,-0.0514335786151418,0.0321053122753893,0.00553129861731237
-0.0034827085054267,-0.0529325593931958,0.0329853356413437,0.00510683245160751
-0.000981150110601296,-0.0470537938314438,0.0293964838561729,0.00386943823585575
0.00214751604356038,-0.0320246955230329,0.0222661842327922,0.00212049510344739
-0.000445585968871611,-0.0034092851618917,0.0112077063510526,0.000318601251616812
-0.00826186873213278,0.0208173483795701,0.00362422450600332,-0.00129970952252501
-0.0129262109654066,0.0125372447342391,0.00332282910280009,-0.0024156370462712
-0.00525947479780938,-0.0245985040669472,0.0139254574086425,-0.00266333459445753
0.0133093011451885,-0.0431045407204237,0.030480936575692,-0.00201030688166324
0.0211341105915039,0.000955243379440224,0.0239543487078645,-0.000777748486440561
0.00823356257161687,0.0640714818024415,-0.0117491159916021,7.56756845185511e-05
-0.00327729651367194,0.063254605932512,-0.0370170745267268,-0.000104609473902291
-0.00158164434573403,0.0134398718758925,-0.0290331716716754,-0.000593998355625474
-0.000442674936225167,-0.0247024748932445,-0.00932935307321677,-0.000236246773990259
-0.0067059893501305,-0.0416122950555691,-0.000396898226197144,0.000978212330468449
-0.0154840824548172,-0.0467460308933612,-0.00246157341861476,0.00198016092962058
-0.0240888634213733,-0.0428817374489465,-0.00677970588729517,0.00212692437367514
-0.0314739045928467,-0.039920033062639,-0.00331629325875943,0.00139971296865888
-0.0376337725739869,-0.0541622578966147,0.00812490253853907,0.00023511230655176
-0.0410863753092576,-0.0718466200757863,0.012235408659218,-0.000845351382018605
-0.0369542270817909,-0.0494797274430553,0.000864621594766305,-0.00214273356648004
-0.0248040391018819,-3.28583207439559e-05,-0.0116645380040349,-0.00369344812974436
-0.00653723232163279,0.00518338504507312,-0.00772769753675519,-0.00417686443157068
0.0119980311434376,-0.0183597898327174,0.00175022386205145,-0.00261560722191726
0.0188319859219049,-0.00940296938484261,-0.00145212270206485,-0.000807296646176792
0.0131496647312386,0.00710290036453596,-0.00476227488358589,-0.00104883649217711
0.00497718448297428,0.00581621272210091,0.00125836615946664,-0.00217956946596176
-0.00108605316474995,-0.00369302169982385,0.00684650736520607,-0.00218906934418219
-0.00714916034186774,-0.0202625438690842,0.0091286151919973,-0.00124005589654974
-0.0102491261469184,-0.0358221943483135,0.00686830108312375,-0.000139757242642493
-0.0059343123454257,-0.0478390101713735,0.00126232164545403,0.000345868408031605
-0.0023872761675661,-0.0546586375138053,2.04961261241789e-06,-0.000385306051059395
-0.0112039595475365,-0.0378413998323494,1.40084336386955e-05,-0.00142279703930016
-0.028042147771509,-0.00245684178436232,-0.00652337817659574,-0.00135706531125306
-0.0365045250336678,0.00861249858653528,-0.0150847498614035,-0.000732473537113917
-0.0279003262908387,-0.0195169095872306,-0.0152666837290501,-0.000690355634366111
-0.00770916413562066,-0.0477868468851794,-0.00793287472407279,-0.000903766693946743
0.00714771817593121,-0.039004951919461,-0.0039723366184386,-0.000407674149702266
0.00461540934313812,0.000834577550481996,-0.00737906647459501,0.000891386752093433
-0.00572289215122374,0.0335266135616858,-0.0135721337802301,0.00164126046111816
-0.0118499079013749,0.0371423089607402,-0.0165617496863025,0.000592278820061247
-0.0173672226697651,0.0325675992091932,-0.0157488837577367,-0.00182063747552711
-0.0247670027410618,0.0323207896392994,-0.0157704447895593,-0.00423129785763018
-0.026604052043199,0.0183343781285974,-0.0163804761193247,-0.00576006346892992
-0.0198167251241993,-0.0100279728811646,-0.0137821259462854,-0.00593692688582337
-0.0124396394846951,-0.0281218111691416,-0.00936025270396099,-0.00441605469046566
-0.00997522836865629,-0.0234514872217798,-0.00749798212874533,-0.00193430553104975
-0.00533782551533605,-0.0176441084167389,-0.00834660819190605,0.00016482772070271
0.00621594456565043,-0.0360290436438432,-0.00695125590790092,0.00151700155379589
0.0164955068732687,-0.0586843373521165,-0.00230977482406153,0.00252616667966714
0.0161132578430585,-0.0325340930184368,-0.00527008155838058,0.00348964434674176
0.00493451858840443,0.0426948617316332,-0.0210528860538831,0.00372055716637426
-0.00472699710876447,0.0746530937244941,-0.029626206738943,0.00175575079041128
-0.00287003085886919,0.0311299814374846,-0.0197998553421324,-0.00149507433298389
0.00274332054449208,-0.00351640275615503,-0.0112182844845935,-0.00315571966879171
-0.00106342528861405,0.000949281961844364,-0.012688334610514,-0.00267675563307635
-0.0137526321086851,0.0085932969523805,-0.0151688461992617,-0.00144819543346664
-0.022504753834943,0.00633800152623195,-0.0142904707940053,-0.000398613893813081
-0.0187192430370351,0.000801374083640219,-0.0112707554847272,0.000261330423091139
-0.00894548506532145,-0.000808309206318785,-0.0094533583904785,0.000647579676642283
-0.00330932142921427,0.000978667830865156,-0.0110375294759686,0.000681562912846226
0.000878614851010528,0.00131993896789125,-0.0107329534890135,0.000414077933136083
0.00701215703305824,-0.00303097404037093,-0.00177043385124966,0.000492545025410647
0.0119336884412607,-0.0109079059925145,0.00731808384730563,0.00127301506731291
0.0158662902292853,-0.0161463984059133,0.0078726890597199,0.00196471633266242
0.0179953806936836,-0.0144433610460228,0.0053707377542393,0.00136677480166136
0.0136435151114137,-0.0100788648291572,0.00539541250559212,-0.000268414604960389
0.00564931992767274,-0.00106406635685635,0.00607359570160394,-0.00140795184429347
-0.00129816909014176,0.0200622885383677,0.00278620536827027,-0.00156586809870517
-0.00536821234628321,0.0334487109288148,-0.000327140569579536,-0.00147060604486229
-0.00808538229479032,0.0168575763503603,0.00249595984607226,-0.00159735325983621
-0.0182611589461794,0.00268891773769486,0.000157549756296945,-0.00157550851755467
-0.0325783581215363,0.0244630546171615,-0.0161941867412579,-0.00111907628282403
-0.0379038508129931,0.0501470636560341,-0.0303285867236699,-0.00094074639621547
-0.0304809550591927,0.0385639167609013,-0.023900104919957,-0.00146599426317532
-0.0113623344478272,0.00442076941613292,-0.00997966386512119,-0.00206524462801135
0.0100604000150074,-0.011681758688785,-0.0113889551804419,-0.00224191021123488
0.0194279446370801,-0.000581601891588773,-0.0242444943694444,-0.00199725712823829
0.0168815275005358,0.0181209832096013,-0.0277487277691244,-0.000753862782479833
0.0123426100996613,0.0199022707934036,-0.00751067144587878,0.0026983857966032
0.00975332222696749,-0.00231071543530535,0.0240549640456881,0.00796243778225086
0.009418785682048,-0.0265186819210567,0.040084930018629,0.0120508424069476
0.0120905176477394,-0.0336708615327402,0.0345867711864549,0.0119914988362286
0.0162840783094727,-0.0271748018746561,0.0194294627315099,0.00774577233671823
0.0193706418161593,-0.019904685815258,0.00609038051884895,0.00183182330977505
0.0216632157113606,-0.0240730038456117,0.00206000512484255,-0.00317296536639758
0.0207222364844109,-0.0378143866720706,0.00467102277021129,-0.0057389966172761
0.00933397122750686,-0.0477623203047981,0.00554833754876222,-0.00576119725933176
-0.0110121349372523,-0.0500257189507928,0.00504674755999967,-0.00437663259826482
-0.0346112802363683,-0.0348959410666542,-0.000971673473667728,-0.00291764947411357
-0.0474045981166363,0.00711881208627826,-0.0186107782833777,-0.0027798235879752
-0.0341775672218813,0.0354772884551155,-0.0258987301673042,-0.00464929230170085
-0.0136730411162893,0.0263108201226339,-0.011794769520017,-0.00658833756391439
-0.0108377531478219,0.0268545143898082,-0.00792435267806144,-0.0055070797407996
-0.0144103447029308,0.0344645926501164,-0.0194975773674488,-0.00155878366362706
-0.00926133023511235,0.0030562357080083,-0.0158776133229459,0.00217036286724312
-0.00629451352464776,-0.0371009957103939,0.000429541554888585,0.00399360895364373
-0.0125468284767846,-0.0345763390410997,0.00140896043382941,0.00474836135030711
-0.0196731550182341,0.00540307841686446,-0.013920806006347,0.0054869650539922
-0.0219670837473815,0.0473570442644047,-0.0184559350661353,0.00638414621689201
-0.0137596413612601,0.0646657451822254,-0.00737372004000234,0.00785962203534855
0.00299926166215191,0.0440311265474903,-7.35284335232136e-05,0.00997984847911343
0.0130172054296779,0.00461678795019005,0.000239319312284833,0.0110375726693061
0.0112899448320758,0.00417568966122731,-0.00744108280552564,0.00925409780798859
0.00514397388037937,0.0297782707462507,-0.0181299868706578,0.00476456851401556
0.00472179266982823,0.0120677953736148,-0.016648732332967,-0.000620359659954758
0.011350734427805,-0.0303489218974051,-0.0102980523925344,-0.00469713818950121
0.011179947175665,-0.0501195262717283,-0.00781581708580545,-0.00651349207279083
0.00331534092665552,-0.057697747018141,-0.00486330818540423,-0.00648164776150434
0.00114503602931791,-0.0679665856399988,-0.00309297627288743,-0.00513813047661631
0.0085872076755897,-0.0823173314889377,-0.00349009118602054,-0.00314209567779751
0.017205169888784,-0.0894378408990396,-0.00530783280494969,-0.00142141913058707
0.023172894646998,-0.0725696144177301,-0.0103669093415961,-0.000299592895512211
0.0345874743668736,-0.0532666976007673,-0.0125102429243858,0.000517103882481852
0.0509502990475144,-0.038114526343736,-0.0084927930830726,0.00128511931288213
0.0575546003774328,0.00661024190651226,-0.00981168096785474,0.00220949198542873
0.0462801560227735,0.0558751809771299,-0.0197547686431232,0.00297274438096276
0.0284847589535342,0.0510748492636983,-0.025515507050862,0.00274306822973296
0.0160230155849557,0.00896189816091073,-0.0201364448101259,0.00140739912748015
0.00863524913703959,-0.00192939348707487,-0.0125593963448015,-0.000126344586110624
0.00438201728620876,0.0342167992074561,-0.0089554791768186,-0.000872796809321005
0.000442278377157997,0.0799536014213281,-0.00823779614083159,-0.000840577827478347
-0.00333379714397844,0.10109864245253,-0.0108479745876636,-0.000898367599877314
-0.00322265485162707,0.0833657904117569,-0.0130464481085242,-0.00162875390185189
-0.00284668904418171,0.0512866544694295,-0.0116435665750145,-0.00254917078112001
-0.00501247963237166,0.0280696834077189,-0.00985147974471083,-0.00295312631575721
-0.00698564411417269,0.00263309402905026,-0.00929537005002555,-0.00266408657897327
-0.00972831035449119,-0.03151186468208,-0.00916863723998144,-0.00134137245752546
-0.00909944805004689,-0.0577343101877438,-0.0124147163616374,0.00104373037012161
-0.00436764719594118,-0.0592755095790283,-0.0160343476281002,0.00350301497443562
-0.00641811668566977,-0.0493003520970571,-0.0141186918149506,0.00477251834391147
-0.0168700698878266,-0.0480871011748475,-0.0125182567028628,0.0040638732266294
-0.0231050643656508,-0.0511352559881083,-0.0191581428290801,0.00178704144092878
-0.0147982594484215,-0.038932452020002,-0.0308426459913289,-0.00077521903989654
0.00575177707523854,-0.00348354015249821,-0.0353717757260546,-0.00282241441334478
0.0285055278524934,0.0471381535316988,-0.0323907702403809,-0.00385751329171653
0.0413092058468429,0.0936800647034977,-0.0329364999552255,-0.00367607779408065
0.0406181535428462,0.089971971716805,-0.0265816089525381,-0.0027426951394891
0.0350561115928467,0.0352366565869691,-0.00488752141185636,-0.000921748651353234
0.0280532268042167,-0.00279056853326629,0.0114100113436692,0.00192624505130076
0.0190402001700387,-0.00234390556727409,0.0132302258029195,0.0042733998778832
0.0102425244122911,0.00547446406721528,0.00980543227149436,0.00394551753756451
0.000731197381165711,-0.000642629457518196,0.00591727812952032,0.000402175112217823
-0.00821594089103769,-0.0220052735265296,0.00317522714515022,-0.00419149454974881
-0.0120549019440294,-0.0359158265443355,-0.00363604752997094,-0.00710770681349516
-0.0130418188690157,-0.0135097632967695,-0.0188878517046908,-0.00760122564808075
-0.0153287888383356,0.0239356722912567,-0.0286538479350213,-0.00645458681189674
-0.0163659863267389,0.0392030165481574,-0.0221826247652818,-0.00406828204417818
-0.0179215943435494,0.0405336016535471,-0.0126765061340096,-0.000619478144327274
-0.0241644309553848,0.0378523252625093,-0.0117644691324039,0.00247636473698154
-0.0298939548568961,0.0306416656601217,-0.0114021818199636,0.00394056574438243
-0.0292765834606794,0.0226555522569593,-0.00493056330655345,0.00416700650889469
-0.0249581718154404,0.0162468683821199,-0.00156361493301312,0.00392201373168872
-0.021809538119558,0.0117485148267058,-0.00487706241127342,0.00327268457911743
-0.0199952643200006,0.00316281407486354,-0.00629703058532619,0.002284194718677
-0.0174788749951345,-0.0113791633471561,-0.00528554650727381,0.00151854165130275
-0.012988243480333,-0.0208212730854711,-0.00822782248159304,0.00127661904559941
-0.00657535509243586,-0.00880746157956689,-0.0135887750253727,0.00139136525057174
-0.00247032767508385,0.0211052637749502,-0.0144201445200874,0.00183197171728738
-0.00400092343216706,0.0305464339270837,-0.00841826889406889,0.00256167076517573
-0.00690151318066312,0.00486820261609222,0.00198993807624416,0.00336775613206327
-0.00502386892011262,-0.0180690635843499,0.00939859849502723,0.00399444996642582
0.0007890265857608,-0.0210660615607696,0.00905628513145528,0.00385211773712889
0.00307203601161682,-0.016964382520095,0.00459448696023129,0.00246439369391952
0.00220400044024166,-0.0103762059235878,-0.00208535760753998,0.000400389287532094
0.00532875418354568,-0.00738931930660346,-0.00471712978558642,-0.00137936851264347
0.0103915024028815,-0.0157628328744332,0.00349910043784454,-0.00216450234747645
0.00902056449164223,-0.0273104501522295,0.0124999764786986,-0.00178196232649574
0.00209645482059653,-0.0307362676489179,0.0132196576386483,-0.00106200320005129
-0.00152898584419483,-0.0233460772679545,0.00844781343652405,-0.00087383753434193
0.00195646662926647,-0.00786836266131851,0.000239223409923618,-0.00136479530553267
0.00719390410085955,0.00129523076907767,-0.00638372481070451,-0.00229807377205401
0.0040122450889626,0.00310149800446687,-0.00638096081936122,-0.00308308598676447
-0.00729985127321223,0.00724892020641235,-0.00220488365287485,-0.00263428917315513
-0.0133030904242026,0.00759666219370203,0.00426872200271529,-0.000279007219306825
-0.00734107956626953,-0.00211793628754172,0.0154931366776625,0.00304965922052233
-0.000575826333171346,-0.0186857370558374,0.0292451838918213,0.00563612596007378
-0.00112728056448757,-0.029660573156524,0.0349022912281628,0.00639952715201008
-0.00173055406290502,-0.0304975255457501,0.030204207896983,0.00477612212344324
-0.000526625753198368,-0.0233146645633077,0.0215307042796488,0.00098250603099779
-0.00188707005577632,-0.00538243533416122,0.0115215344278554,-0.00346366133161652
-0.00348097203974897,0.00306677674249261,0.00667683098552351,-0.00676609550536078
-0.00340598457690491,-0.00992088592098802,0.00956100737628828,-0.00783376271147425
-0.00265493773380239,-0.020897327606582,0.0111264055924392,-0.00659993344987991
-0.000896668378811406,-0.0159778067697988,0.00421286993553738,-0.00417810583702345
0.0004634848629631,-0.00491565646304123,-0.00581569910345177,-0.00217329050965879
-0.000837925849034291,-0.00676988367207522,-0.00473427915504177,-0.00114359165679872
-0.00261979434378848,-0.01318302745073,0.00463707363611736,-0.000363327841768247
-0.00196918007141275,-0.00537183434366548,0.0105420155119541,0.000319577202270031
-0.00240241161058361,0.0020190247923112,0.0147145854066841,0.000178315590137501
-0.00671430807852502,0.00106581522747896,0.0171182400781753,-0.000654846285382628
-0.0135951006163332,-0.000599415927374098,0.0159237251256773,-0.00134654208914821
-0.0192814086607489,-0.00372646350359666,0.00979009373169667,-0.00182038134667469
-0.0184929295278329,-0.00695698431965608,-0.0035663576918618,-0.00279449136670456
-0.0123088080839875,-0.00466555714371919,-0.0149473802597572,-0.0041903512296946
-0.00537196156857919,-0.000464519678124461,-0.0120864415539431,-0.00441798430053328
-0.00372447444421903,-0.00199737724977041,0.0033841212438534,-0.00268173159475112
-0.010516970012978,-0.00560432691253242,0.0171665048568899,-0.000140378154358665
-0.0217618547683592,-0.00907798694554108,0.0184967112409153,0.00183993183062165
-0.0317593526981874,-0.0182952935394812,0.0107528733459675,0.00276625449522052
-0.0331495630824487,-0.0304911369087528,0.00315347278906647,0.00246720959723687
-0.0285187459731329,-0.0187012193559711,-0.00413254975236569,0.000857808589740469
-0.0242677833092101,0.0265736878396214,-0.0146977072469497,-0.00168165204974116
-0.0158776856591977,0.0437714628972973,-0.0158394588169533,-0.00427495430146103
-0.00588376809732585,0.00934143881822698,-0.000278181440609034,-0.00545855629449667
-0.00396571092922323,-0.0121233467545452,0.0123202189971595,-0.00444752984115175
-0.00896168187201174,-0.00299649947078829,0.0113145526828793,-0.00244457633177969
-0.0139836066929382,0.00287509583040665,0.00861331071789512,-0.000956314130385728
-0.016010656055092,-0.0018900782665281,0.00918413632272553,-0.000345097021855288
-0.0167435416475664,-0.00487508919666856,0.00763582844443789,-0.000330528934585463
-0.0162408709519208,-0.00184696757930081,0.00377401907727464,-0.000336835716156705
-0.0128476709261096,6.54149258737112e-05,0.000879305548028727,1.76764644622945e-05
-0.0115633982124468,-0.000351004474670407,-0.00200611539710307,0.000746893793037854
-0.011923861401101,9.95287839332085e-05,-0.00505222369383234,0.00146978855980982
-0.00801002062317379,-0.0036150186428849,-0.00458163814136765,0.00167637068280189
-0.00608451948566076,-0.0104311806390946,-0.000516885450227079,0.00150280403080401
-0.0122311834680861,-0.01109753138076,0.00408353488350536,0.00101553776273741
-0.0159873553291026,0.000857320720990918,0.00521540988631733,-0.000153775067736265
-0.0125830855581067,0.0136481554496962,0.0013118931115613,-0.00205937546645188
-0.0126083837501104,0.00570830077085096,-0.00523811240944806,-0.0036929954191619
-0.0136508358730965,7.3679070862157e-05,-0.0161998785238422,-0.00254058571095616
-0.00857697153915368,0.024471538975864,-0.0262472146045827,0.00232515809577267
-0.00591302768094237,0.0494942301694512,-0.0170530636343984,0.00737373897443129
-0.0106974801348043,0.0391856330713836,0.00726075036862756,0.0088054612084502
-0.0152990029207692,0.00125148450761001,0.0215140754769379,0.00674804222263235
-0.0164206908822509,-0.0279354572326867,0.0200415716917569,0.00351800370975835
-0.0172974123973818,-0.0289104964201251,0.0133825898423363,0.000894633944471433
-0.0153644720577745,-0.0123257458015538,0.00542933243817766,-0.000515947519436366
-0.00894335855471571,0.00161267096265143,-0.00270794354790957,-0.0011765367267045
0.0014751277768053,-0.00302400513631754,0.000626225276389246,-0.00223393251862632
0.0131933735927245,-0.0175371070664458,0.0144994635930571,-0.0034195289538668
0.0152117506175724,-0.00143978481236519,0.0101225454102799,-0.00340003494072663
0.00345444952008732,0.0477973502161766,-0.0135306023980398,-0.00275372353170731
-0.011085245255058,0.0597058727591447,-0.0223373672629473,-0.00248381275704845
-0.0120113690133377,0.0174413559316478,-0.014691693073343,-0.0015789429919674
0.00167412305432734,-0.0240137752118212,-0.0040811020718558,0.00056827983368556
0.00911687584763117,-0.0447059587143677,0.0129208594907866,0.00275761346305039
0.000674592023325326,-0.0315155512505183,0.0207555822924626,0.00395336288122853
-0.00737593304724314,0.0287800614132902,0.00356681426514326,0.00359364814344877
-0.0042629191042256,0.0714613698975965,-0.0116910040864284,0.00155162110370355
0.0014411599852569,0.0359367057847103,0.00263642759298571,-0.000359212295947764
0.00272529418992692,-0.0152533498686148,0.0253912904210804,0.000132886386522883
0.00372743778764022,-0.023274321028693,0.0310714554039259,0.00221071744663846
0.00829531659818442,-0.0114346422574185,0.0243296122848692,0.0033379357901158
0.0135061294887731,0.00227391737153795,0.0138125021801526,0.00260468417264964
0.0158818504352615,0.0130994870292357,0.00468036868392567,0.000722449813110167
0.0164598083068329,0.0132432558954302,0.00187983952619966,-0.00118338913949491
0.0180205360329421,0.00866105746563245,0.00313669020627753,-0.0019387351481287
0.0199211044702929,0.00295396515075945,0.0032222607170786,-0.00107258320263036
0.022121691350392,-0.00924490882965306,0.00271744284423913,0.000203724587180521
0.0282178299376181,-0.0172774276628039,0.00275995544991265,0.000309011862657615
0.0362933749412251,-0.00445584178232188,0.00107341385144351,-0.000733105940924829
0.0370893586258608,0.0338697137651004,-0.00402581666290731,-0.00190173228888244
0.0212846150347755,0.0745900514187241,-0.01117919353656,-0.00274107417069446
-0.00445854251783631,0.079689588372681,-0.0156956349361077,-0.00321055536467796
-0.0142555811153428,0.053206270434977,-0.013009154081221,-0.00313059210057515
0.00126117060898602,0.0266532859146897,-0.00248266387274191,-0.00229605493556226
0.0202785834710856,0.0063157514543143,0.0123645796110906,-0.000725614704873545
0.0245538022725227,-0.0108420807762067,0.0260488065010279,0.00131178007459138
0.0199775968372506,-0.0132046140988258,0.031868129294388,0.00313769246252957
0.0138887738779977,-0.00156108835871617,0.0231667972722899,0.00382755302977269
0.00641966565680743,0.0030717492571368,0.00709457060520015,0.00318840896260285
0.00618675267019624,0.00405129771334927,-0.00118224020892758,0.00211097370991854
0.0130207174389319,0.00735845796660781,0.00196579246343797,0.00173302039848697
0.0170261078594174,-0.00838041559386855,0.0113814626457363,0.00200184752109718
0.0200718743998056,-0.0420235642566436,0.0214174441726985,0.00181958645258235
0.0257387841176835,-0.0638516923337434,0.0257402274414164,0.000850927179156979
0.0330840888066613,-0.0409251345739605,0.0149756153606086,-0.000512195494748807
0.0350142708220816,0.0249542398232356,-0.00561240952497891,-0.00212724188590355
0.026888464562015,0.0744954202674877,-0.0147975247834369,-0.00276588543078563
0.0165136767497465,0.0639064778959122,-0.00635615349949352,-0.000722274276978649
0.00993439484648901,0.0203171036210905,0.00728006723367807,0.00301797581183986
0.00942538270385623,-0.0120325097407837,0.0163787456972948,0.00554942876880596
0.0141481001054457,-0.023176651038295,0.0193092486438759,0.00519799337691441
0.0198449854904358,-0.0242691755304854,0.0177518481925282,0.00273841989747467
0.0231099105069636,-0.0227791358338444,0.0154630137636963,0.000168712506868012
0.0191065897968266,-0.0180230128044643,0.0126027417962497,-0.0013027200642757
0.00871240329646576,-0.0112188503172735,0.00709168212276503,-0.00181071030342888
-0.00158474794268433,-0.0147935825804516,0.00400657753174167,-0.00197224395003145
-0.00756323605887167,-0.0405779548280643,0.00843792422890927,-0.00227620880538552
-0.00655856783019858,-0.076135852947089,0.016808770619786,-0.00263738876587568
0.00210553748767656,-0.0910376800009307,0.022710929636284,-0.00241716177425808
0.0106868276424691,-0.0486456673393414,0.0174896748565102,-0.00149648581129965
0.0102218004806536,0.0351377601303839,0.00232726216177554,-0.000610988871637169
0.0109233972047634,0.061224178229899,0.000837608182626161,-0.000300680650790539
0.0244727753117295,0.00169597267520398,0.0222382034355078,0.000607177089387883
0.0386596797539059,-0.0458117938736347,0.0408049533637066,0.00390243831741456
0.0407398494582143,-0.0289942368710389,0.0392851920286988,0.00842758875594735
0.0343104106327656,0.00743502126200245,0.0273656997271849,0.0101363936419164
0.026371189221026,0.0191373390343165,0.0177748131229069,0.00686097046310387
0.0228630605874711,0.0207256240651177,0.0125662365458715,0.000694887644010033
0.0218844768616372,0.0276323147301639,0.0104929340946676,-0.00460929261886288
0.0100803703498296,0.0150520751667559,0.0108869482456507,-0.00652314537011914
-0.0132751354868126,-0.0118637749197716,0.0107268444108115,-0.00485997203579972
-0.0318055878816576,-0.0200094356590485,0.00807446829408258,-0.00191802398951172
-0.0422341312260599,0.0071478888862594,-0.00236721396405559,-0.000436885069655199
-0.047367934850591,0.0544285619345744,-0.0171735818655849,-0.000881861545411229
-0.0313581283550887,0.0784292404134709,-0.0191902157756665,-0.00152466257120996
0.00804299538777154,0.0622505113864523,-0.00516676709487511,-0.000411811688237537
0.0380467034484635,0.0292043024992371,0.0114369261240953,0.00241235671608531
0.0398380057184007,0.0018115838217842,0.0200774972456098,0.00461196607486554
0.029211941714363,-0.019227523684905,0.0235591439064856,0.00428677402853401
0.0219821142864012,-0.0350764526929342,0.0281768748461305,0.00205860644238995
0.0207094437403507,-0.033668692790506,0.0279684837145645,-8.18109481204327e-05
0.0258341040820839,-0.020254867252971,0.0191124113734915,-0.000937183922732926
0.0290409341716544,-0.022920721302456,0.0142947287824036,-0.000916241867329976
0.0127012194348754,-0.0437093875767039,0.0175790045589655,-0.000943037792726469
-0.0178677599005951,-0.0453368595395857,0.0124776397599718,-0.00146876209456001
-0.0406004745775669,-0.00777766911358236,-0.00488383398099828,-0.00268965984700365
-0.0401949394833066,0.040356728172513,-0.0182728690844046,-0.00417053310649766
-0.0184835880981696,0.0693878199525046,-0.0209670611243044,-0.00476313422837723
0.00454894895608525,0.0779956401697498,-0.021000999345788,-0.00369935793767428
0.0176282239727166,0.0760959647411669,-0.0214865739356822,-0.00146077859460231
0.0218046475886875,0.0763525513252836,-0.0198252844399072,0.00076414336340507
0.018417556739163,0.0779239780075933,-0.0175012580188374,0.0021823446232718
0.00995645692710027,0.0726761451079881,-0.0125382431260515,0.00268594861676205
0.00220725387345126,0.0685199503403774,-0.000268557711290331,0.00265119723553573
-0.00434905422225085,0.0710529093065167,0.0116899978146794,0.00254856611326159
-0.0125151839484953,0.0653764887981659,0.00986667019491392,0.00220130401165191
-0.0156327626004493,0.0399775765025092,-0.00166755488225478,0.000943785762110705
-0.0127095680009754,0.0111462120458054,-0.00891716846035522,-0.000944781920629419
-0.0126815680544431,-0.000114651913391557,-0.0102972138142834,-0.00224421866590172
-0.0165690479625082,0.000897470139970019,-0.00935773203593233,-0.00224989236104986
-0.0190361212588818,-0.00143093143878577,-0.00619397452045567,-0.00128778499055687
-0.0217386399932677,-0.00756434489017256,-0.00554192307626088,-0.00031780714964361
-0.0267156176813615,-0.00992427955585161,-0.009621081331045,1.60303953021962e-05
-0.0242967288704265,-0.00879061403460298,-0.0129154224734273,-0.000129257315036641
-0.0111454636650656,-0.0100431448793859,-0.0144818024056823,-0.000565415301939951
4.85041263951283e-05,-0.0109018106849895,-0.0148060735023417,-0.00125391102303424
0.00200277648728263,-0.00479966530969753,-0.0132639669184824,-0.00176350186192192
0.00142943546246757,0.00365428683598679,-0.0133016399069067,-0.00171622562536344
0.00208681440710718,0.00760749462230665,-0.0148550150654274,-0.0012774578807893
0.00108157993556244,0.00794324940473782,-0.0157130981082441,-0.000671383046678808
-0.0022817716684504,0.00561974152479305,-0.0159323279997764,-8.38763089371487e-05
-0.00508778893425932,0.00131028829783803,-0.015361391477414,0.000264837980637882
-0.00504188327040537,-0.00141783083509915,-0.0145361480768832,0.000439436786653473
-0.00698986062800104,-0.00464977220830825,-0.0104971913745058,0.00067146551973702
-0.0150431773390495,-0.0184325741894129,0.000239742238517311,0.000785375050414884
-0.0205808069077613,-0.0463509423344079,0.0113962083350478,0.000277740964062619
-0.018636202631525,-0.077699599879207,0.0151233357278128,-0.000797304934680134
-0.0188043439421075,-0.0868929977994075,0.00689227422268553,-0.00143203295355627
-0.0235611958051742,-0.0506838698904029,-0.0161134130992528,-0.000459588462789969
-0.0238528360796557,0.00871128533824231,-0.0358618292647551,0.00136805866573808
-0.0185813956379984,0.0352665888159178,-0.0274512648747679,0.00181032961103629
-0.0155550579985173,0.0243116913382604,-0.00426377052036227,0.000609792988409991
-0.0159971555524299,0.0134022380726313,0.00383746251464709,-0.000692100717922006
-0.0140113454165381,0.0106667666074738,-0.00356283834466461,-0.00157824877265114
-0.00918779101349091,0.00815713929435673,-0.0109356909605669,-0.00249628873550891
-0.0078586119266697,-0.00654428484446961,-0.00984946962513989,-0.00336440017548967
-0.00878268724832254,-0.0300553095900327,-0.00503073826937269,-0.00380386857798237
-0.00616125702931167,-0.0371216585455251,-0.00712202953476879,-0.00399064749869533
0.000285614941190159,-0.0309102893314688,-0.0122445847571187,-0.00429151244925125
0.00588160323001518,-0.0349484273840764,-0.00838856140716668,-0.00419159103908604
0.0017029059498334,-0.0513723590448436,-2.9046796416474e-05,-0.00232229023861018
-0.0107994539640207,-0.0537259097630393,-0.00519339567711544,0.00133450419971469
-0.0184831523774786,-0.0120792342538361,-0.0271531778052438,0.00417847341970336
-0.0173466258816879,0.0363553578551387,-0.0392092617449754,0.00375212772978099
-0.012610454453997,0.0251341679241445,-0.023110265543919,0.0015820283945505
-0.00876576090048906,-0.0176625960685539,-0.00454989174524698,0.00121151774237616
-0.00480922362081762,-0.0334530087489502,-0.00549689127203935,0.00334208688358124
0.000952524481836109,-0.0329345417905207,-0.0090834246205851,0.00644480543716303
0.00249362846875468,-0.0336300690087303,-0.00560836058104082,0.00922293508152918
-0.00156960381806005,-0.029018363183075,-0.00398291012357648,0.0105548626370191
-0.00519862160076764,-0.0272190400425651,-0.00529994408095351,0.00943562551220707
-0.00709730864247614,-0.0286424447858066,-0.00835493171308473,0.00569545020224597
-0.00906987926763458,-0.0246642991987417,-0.00993996306195382,0.000104609130272812
-0.00953259833753362,-0.0201703687660588,-0.00872145844543327,-0.00567332418974157
-0.00643375389837253,-0.0163458897055239,-0.0106042916115315,-0.00985457222675471
-0.00130345679814921,-0.0115201167146896,-0.0151157706855687,-0.0115625404309959
3.23109353172115e-05,0.000304756705883241,-0.0190980272177419,-0.0105685400281898
-0.0079483871222291,0.0246829621001733,-0.0264246895373903,-0.00757776506494705
-0.0196346856291789,0.0422979526730919,-0.0358965528883996,-0.00416422999545325
-0.021552805425458,0.0300421241779572,-0.0360724772851033,-0.0011547420765306
-0.0119519697059388,0.00209002807591254,-0.0252473502738054,0.00200778258111009
-0.00525042412812793,-0.00408304079496616,-0.0168422590388882,0.00530973537585984
-0.00790669697430065,0.00822070844446222,-0.0173345560595459,0.00698436365745714
-0.00911551427042422,0.00465182117436505,-0.0190581133460138,0.00606633895416595
-0.00490325205590531,-0.0116226071546051,-0.0181299590085445,0.00419679807368845
-0.00194407441426251,-0.0186060838505358,-0.0158454547709712,0.00356613465861943
-0.00222683051645702,-0.0181975852760919,-0.0117067648008953,0.00476223899974866
-0.00404357131117677,-0.023950818519183,-0.00804280535791737,0.00698570957121894
-0.00534514027768822,-0.0354424508559062,-0.00722372803038552,0.00888291185835056
-0.00385081778661437,-0.0365938731367304,-0.00918909727585454,0.00881487708679167
0.000265126130586622,-0.0135719029103892,-0.0141399100446693,0.00595012387418131
0.00380931204633498,0.0132680091100699,-0.0185024138032381,0.00124408113344273
0.00645055262402394,0.00199181415488391,-0.0160746631494121,-0.0033731800206091
0.0070548538242901,-0.0277214839118812,-0.0107936995922657,-0.00593262010979287
0.00338504348945719,-0.0266014382193864,-0.0110211147137544,-0.00582447631651235
-0.00127308354289369,-0.00288131860411469,-0.0143009404274541,-0.00458549405114811
-0.00576827086296948,0.0104905522842632,-0.012386960085946,-0.00390294059055276
-0.010862951910966,-0.00227389047872701,-0.00585045477048275,-0.00393263333557343
-0.0147309084833011,-0.0130819905656651,-0.00607828400053664,-0.00383091316323802
-0.0172186510294761,0.00156753141385245,-0.0149765768633402,-0.00302461646463555
-0.01831737351326,0.0100825285000234,-0.0229995066211492,-0.00193858779145899
-0.0137871211693044,0.0074211353001907,-0.0251457151086544,-0.00147546214722683
-0.0039350441139163,0.00647561806729932,-0.0185302452823215,-0.00157252392308936
0.00279931041334863,-0.00277272556744985,-0.00649232456370154,-0.00117661860297025
0.00243470312273299,-0.0193201759818873,0.00414155918546216,4.46739050179931e-05
-0.00208025832436746,-0.0305074951971004,0.00983931756892289,0.00162662452288721
-0.010269844008793,-0.013084537096054,0.00256954987601801,0.00254268523649415
-0.0171592271709305,0.0251781932385946,-0.0147026833679759,0.00125095265693474
-0.0136859059197445,0.0424181154223514,-0.0237878949307832,-0.00227136265447468
-0.00441200983908191,0.0340240627231633,-0.0191545010503645,-0.00571107838933509
0.00420376338042075,0.0170599146040323,-0.00835252677921258,-0.00662405221741174
0.0119891223984385,-0.000812814812403764,0.000683832072341847,-0.0049402157842792
0.0151097164962656,-0.0123261042037529,0.00270900710267359,-0.00258315826699025
0.0107383303532261,-0.0176640344206044,0.00096341654902996,-0.000984068244558713
0.00398063495177814,-0.0229505827905648,0.00294726798117274,-0.000416740913734185
0.000430748595177027,-0.0285970126451815,0.00796959258854314,-0.000803639180694446
-0.00941062642364969,-0.0254441615730773,0.00513207973926405,-0.00157661274560251
-0.0342106305395503,-0.000301145357756379,-0.0136959275871597,-0.00214848993525627
-0.0561759145124349,0.0475836415502349,-0.0390943618481387,-0.00301903522016104
-0.0570384201052331,0.0844807872035949,-0.0502053414631625,-0.00470949516489412
-0.0391312827523908,0.0705217540593817,-0.0360050202039873,-0.00601320730025648
-0.0158545075648568,0.0191448860675366,-0.00688822603806036,-0.00517353262448164
-0.00182566649456146,-0.0251410356280609,0.0180060553548766,-0.0021604874836903
1.44334988195077e-05,-0.0336377978856324,0.0261421201118297,0.00136259283825717
-0.00186727852650329,-0.00828468025369989,0.0201895042687052,0.00311175748034361
0.00601229086308901,0.0116890808586857,0.019652216553331,0.00197341174361517
0.0281363463001537,0.00167702366662107,0.027918047452889,-0.000359244360874376
0.045448463663055,-0.0148745704967751,0.0257475378608106,-0.00146003434248207
0.0364660759139193,-0.0155887736431131,0.00963488802156005,-0.00140019115951095
0.0104476286689066,-0.0105933935303539,-0.00398723366989043,-0.00173248270598976
-0.00578717438754695,-0.0135909615837928,-0.00794859975599056,-0.00274240527435709
-0.0067127961133209,-0.0170419533479315,-0.00858906021476923,-0.00343212656667235
-0.00730875383093586,-0.0138184980225552,-0.00652417899541192,-0.00298316153562531
-0.0128944791504281,-0.014247815481243,0.00267983956469901,-0.00150332091823599
-0.0164653337352765,-0.021243461039541,0.0141951129996041,0.00042568415190281
-0.0136053700679651,-0.0221994224396631,0.0183925001541239,0.00204596815122061
-0.00688867273836249,-0.0171495143727713,0.0167550284719621,0.00240467640659737
-0.00167996445665718,-0.0082719725882494,0.0140376411872911,0.00141538751428403
0.00148651122047744,0.0244660187524633,0.00552119020832002,0.000622295126401181
0.00493742969418058,0.0623802727178505,-0.00179409200683727,0.00135555253303029
0.0107633792738411,0.046890089665634,0.007915622482671,0.00296912507310064
0.0185981253723305,-0.00711309636259931,0.0256074218256169,0.00409626929408368
0.0200037303384395,-0.0323823987329589,0.0305397690039996,0.00398281395036558
0.00905580824945102,-0.0163824090503911,0.0208168319270821,0.00288346266420718
-0.00524251487294767,-0.00622355495550112,0.0124844220461697,0.00176605863991105
-0.0143631008173512,-0.024762974048924,0.019480908017193,0.00144841170387226
-0.0225672824112161,-0.0301123121054311,0.0312036998644906,0.00231502025032859
-0.0319134809975391,-0.00984331049774222,0.0273949798765934,0.00345169830376989
-0.0329454396085764,-0.019338614244119,0.0131916265100313,0.00250685903547287
-0.0182294629160804,-0.0524070207639401,0.00124566305155705,-0.00087381837342589
0.00289705928533906,-0.0410483065068198,-0.0069360888408048,-0.00351660813345336
0.011440517305841,-0.0099833268055453,-0.00247059738975252,-0.0033845533860598
0.00995212767765374,-0.0156683383097205,0.0145556097073475,-0.00151501166295695
0.0175588298490298,-0.0265143361505694,0.0208714637331186,0.000670286558880752
0.034483748794069,-0.0132763901242316,0.0100316442282191,0.00212937052782355
0.0485291606476161,-0.00483905893744374,0.00757980554321647,0.00283396355526717
0.0514608765825326,-0.0144063793217119,0.0250775167914219,0.00430220321878345
0.0441785111348885,-0.0297390377389582,0.0432607612888136,0.00717183053403635
0.0334594138106092,-0.0398043328358149,0.0465415822421954,0.00983216127394765
0.0171563034943157,-0.0333692887481938,0.0385870966900428,0.0099915739173631
0.00200789132972726,-0.0186362034167686,0.0318562341809794,0.00685483698317819
0.00262657963585332,-0.00453860315641244,0.0279126048427259,0.00230485776594265
0.00171855350777644,0.0268900496271407,0.015286131486747,-0.000971313668713133
-0.0160763759243665,0.0621115628373613,-0.000325680327516197,-0.00208389769711994
-0.0237001050200903,0.0573582544436563,-0.00652101902840985,-0.00180955312636054
-0.00543361122983901,0.016542137829189,-0.00472626201864434,-0.00188747932727781
0.0133844579314453,-0.0280795387234532,0.00824797092942907,-0.00351343049829073
0.0136122894189178,-0.0413477152479335,0.0210767721990883,-0.00454881537370988
0.00690866356714954,-0.0128212011563533,0.0159515917727922,-0.00219109561040389
0.00580261046561875,0.02385136171756,0.00447044719562431,0.00215870662578999
0.00567323622182401,0.0478487670037609,0.000379795334733639,0.00486424703708707
0.00282575398386318,0.0554702384714001,0.000255656016706973,0.00428261215943649
0.00117912189237287,0.0407710345434938,0.00329951287204389,0.00144747757753957
0.00240534910866223,0.0144695298523494,0.0131851083396226,-0.000797188134770691
0.00250572569734097,0.00091690149935772,0.021553866006286,-8.39436191450192e-05
-0.00175038185202616,0.00848955721659172,0.0165237838083258,0.00226415929276283
-0.00598556705181036,0.0213687700575274,0.00435037533402419,0.00284595061284997
-0.00222770685465178,0.026159112155614,0.00151086316999288,0.00119733321058432
0.0067525210614394,0.0224973789495517,0.00837646863787061,-0.000128394281870081
0.0106092927680564,0.0116116276685478,0.0132962969254053,9.97602179956922e-05
0.0139931195347059,-0.00511367810379669,0.0133511500352917,0.000761159049985462
0.0276847633815993,-0.0233698211311526,0.0132532835274849,0.00107312579678504
0.045884444729299,-0.0400046419563524,0.0158586407224101,0.00148970049428939
0.0503973811974255,-0.0400442848230607,0.0127357564765691,0.00203729935754282
0.0340543716735561,-0.00770561155540938,-0.00271485127119505,0.00164801884971197
0.0134598370418588,0.0345882313898978,-0.0156200193964182,0.000148979618877352
0.00378719813814706,0.0554942400531392,-0.0132664040107147,-0.00110531248506151
-0.00205972883081119,0.0554404297092155,-0.00432852349464261,-0.00160316630163753
-0.0104539678817694,0.050371219976517,-0.000378451586449349,-0.0020816786111155
-0.0173847512680217,0.042632390614382,-0.00069655783824938,-0.00280796040715942
-0.0203690862234842,0.0309580587400819,-0.00423866766754712,-0.00323428304470357
-0.0179862029631682,0.0251000974337618,-0.00861363131298581,-0.0028020807217275
-0.0119580624111073,0.0172406232809272,-0.00230218946625945,-0.00167140683889641
-0.00312120442376433,-0.00357129696321938,0.0126523238721785,-0.000484871764297275
0.00916200872817679,-0.0191751511204774,0.0205498831073903,0.000495924031749132
0.0167469489298703,-0.0076507685567062,0.0138635961050331,0.00122710723324421
0.0128215036513313,0.025931818877913,-0.00106835950379441,0.00146642650964045
-0.00159741735558482,0.0409977023707945,-0.0107949347717025,0.00131452030078438
-0.0197355353793636,0.0185044951588643,-0.00996825463520707,0.000975868577688089
-0.0280093783745312,-0.00447734872266167,-0.00646442369277192,7.86445566180484e-05
-0.0254954155682162,-0.00636526608173188,-0.00569924791067284,-0.00154428645817932
-0.0238934762993631,-0.00224087393089382,-0.00588914529336032,-0.00295764088300624
-0.0240583045985036,0.00194712700483921,-0.00352143112824168,-0.00267236232292984
-0.0202087527519525,0.00525663563617024,0.00285006157282039,-0.000373780044868519
-0.0131334182197721,-0.00185647344897004,0.00523893654577606,0.00227306701937176
-0.00589327241269939,-0.0142622443560943,-0.00020631026661845,0.00330406338461616
0.00798896470084003,-0.020036296586342,-0.00707436939177052,0.00232113017078298
0.0303549059248204,-0.0227379441456407,-0.00845478857540681,0.000491307692773274
0.0408347594383355,-0.0214327560261122,-0.00435501049046942,-0.000931593882520391
0.0318114985547276,-0.00795779221757297,-0.00310418116957139,-0.00157314128731303
0.0169870078743279,0.00587561619393966,-0.00492963284989371,-0.00174956854023615
0.00168892316438182,0.0076684924424558,-0.00506989737419541,-0.00202506162831624
-0.0093455017495333,0.0129542901327469,-0.00727210237035231,-0.00260216890884263
-0.0103612764513679,0.0197631622892288,-0.00896486968729544,-0.00319096879099543
-0.00634857763899627,0.00327330319794417,-0.00472487777401309,-0.00335221931080729
-0.00707444090025274,-0.0266759144682415,0.00168357990541146,-0.00271890011037615
-0.0149319075140926,-0.0456106797885334,0.00753671738770575,-0.00110236154260916
-0.0217931900456572,-0.0458807975325857,0.00633665169323979,0.00108156008992465
-0.0259967841708343,-0.0300392398367801,-0.00477241926141958,0.00293649105013986
-0.0284283115511598,-0.0209349778992168,-0.0131817256881192,0.00382034815199843
-0.0256264161555707,-0.0250905849692032,-0.0151488840930264,0.00321806763550667
-0.0227049667998961,-0.0140939830110995,-0.0198353879077401,0.000770075138418102
-0.0199916424461164,0.00666865788994547,-0.0221914581326629,-0.00259580997653819
-0.0160582554576262,0.0145538914537113,-0.0173929169998554,-0.00440076803177054
-0.0182515260599907,0.0218797840899144,-0.0150836086011055,-0.00337138477256735
-0.0228144318480923,0.033739084751025,-0.0134082838903609,-0.00112495807172776
-0.0225162612271569,0.0426780794973975,-0.00952399383611617,0.000548582153452709
-0.015645426438598,0.0475101623615817,-0.0109380923505312,0.00135770664402942
-0.00130849486125707,0.0342869658014298,-0.0104239284898414,0.00114187429342863
0.00913524972897352,-0.000622351748459801,0.000170647311865123,-0.000433166235083172
0.00881057057952184,-0.038298236912815,0.00682153941223825,-0.00283815608138684
0.00305419614357635,-0.0645174928611679,-0.00176415403316451,-0.00477956241843378
-0.00302185142959164,-0.0694511601215746,-0.0151623356858133,-0.00532328800028626
-0.00146531918644359,-0.0371610158751858,-0.022191585503369,-0.00417172617707233
0.00432270976088488,0.00925803507816619,-0.0215381868818349,-0.00146634768957197
0.00833344401704946,0.00634598752994363,-0.0123107084696258,0.00152870443829215
0.0145903725082444,-0.0265011972508922,-0.00395541657061404,0.00350507098875262
0.0148860955074004,-0.0238880443730503,-0.00782161142790641,0.00431712061996194
0.00248760743602919,-0.0104351871002039,-0.0139675896057226,0.00373404217886153
-0.0103203599483992,-0.0281248883405912,-0.0102052668792753,0.00214622215831592
-0.0155409057657258,-0.0529788430915652,-0.0028158310445359,0.00104794509383684
-0.0177343216532936,-0.0521500809598471,-0.00278822063453713,0.000680998041516378
-0.0260173310425903,-0.0240747427358293,-0.0130901815684404,-0.000352358607742113
-0.0409342850622961,0.0214641269696971,-0.0302820068253933,-0.0025586643170549
-0.0425498782684041,0.0739872426233058,-0.0458533253481747,-0.00469755187962952
-0.0231969542890592,0.103186429454447,-0.0465550616459925,-0.00585512064888525
-0.00345637726818486,0.0749434944696044,-0.0283496061758471,-0.00589165394444775
0.00114154654993515,0.0291014981701034,-0.0133101136767084,-0.00459592817434798
-0.00701520821521687,0.0222616158515877,-0.0175670079659738,-0.00267283845204991
-0.0149381768237368,0.0253139465209692,-0.0258184763554874,-0.00138165395711237
-0.0135980982004744,0.0126529531329665,-0.0287014464741661,-0.000796750803899316
-0.00802631261426345,0.000804534129411442,-0.0275320548217274,-0.000530665035744643
-0.00450223141783593,-0.00987154841111272,-0.0194829223543658,-0.00025860598548577
-0.00241568379184539,-0.0178452752029242,-0.0130173198031587,0.000544560555797524
-0.00220002255475878,-0.0151681400203649,-0.0151219718193637,0.00158138167946796
-0.00324283149892723,-0.00776943603321194,-0.0183535437732418,0.00190730115999057
-0.00388371415783286,-0.00242388371177003,-0.0192122672252011,0.00135633435316733
-0.00561261310344771,0.0016363909576619,-0.0194400388434148,0.000568419186397815
-0.00749862172624911,0.00160948946144278,-0.0158539597496436,5.31515426880711e-05
-0.00828051822187875,-0.00543570547523397,-0.00885856984629859,-0.0001456910695565
-0.0106510815149215,-0.0126555492141837,-0.00556946382728059,-0.000317932750329521
-0.0144086657230055,-0.0117056124329009,-0.00785927153726265,-0.000560106393118978
-0.0149824145873409,-0.0033030031314827,-0.0138179152820281,-0.000570493982112905
-0.010960525747092,0.00797083041592676,-0.0198435628151735,-0.00045175943053574
-0.00545554699441149,0.0160249515889536,-0.0196903294225032,-0.000684278372088559
-0.00138692687342954,0.0157665486012302,-0.0166328164691778,-0.00136282846398016
5.2642860652867e-05,0.0154348253805564,-0.017501604329238,-0.0022539032885548
-0.00377978821402387,0.0180033113722868,-0.0191649087036486,-0.00264360553079087
-0.00938715285490994,0.0116951756824039,-0.0147009843990204,-0.00150138135513236
-0.0083230094670135,0.00228933148121411,-0.00616666380576924,0.00103904848673868
-0.00223723781442706,0.00713810163712413,-0.0029804360219761,0.00323477231603927
0.000964007741540188,0.0186783884965552,-0.00606168351331931,0.00348018208361296
-0.000451769297095873,0.013528785646349,-0.00811344783435527,0.00187155388694205
-0.0035145518953067,-0.00818939407447882,-0.00382361287967918,7.78801378691703e-05
-0.00673758540827466,-0.0268759127369747,0.00362142637263521,-0.000264093930318324
-0.0117729071963038,-0.0157301358045232,-0.0010885521648085,0.00070339522165475
-0.0155756951575547,0.0360838059887904,-0.0230096648857736,0.000929560228578628
-0.00766402387442135,0.0827598893737864,-0.0393490180381554,-0.00161259483610357
0.00788369241656238,0.0656130799720987,-0.0292605929332249,-0.00598703056350349
0.0155713096000393,-0.00982523541277519,0.000358049191076883,-0.00792021628841586
0.00979217470462123,-0.0646236810004136,0.0198125790874233,-0.00439111831017667
-0.00701411583401853,-0.0642225231894243,0.0150305204713719,0.001919903370839
-0.0213518025120126,-0.0635107489541513,0.00904035472308213,0.00592048375110569
-0.0178048428482125,-0.0759199737413516,0.0134404019577145,0.00664781269676103
-0.00291038642192144,-0.0589939403618669,0.012185084247221,0.00602177296679702
0.0100880985562756,-0.0190464191185884,0.00630869599697984,0.0045193141144203
0.0190649492733073,-0.00119086507330532,0.00960976263145316,0.0024032021777575
0.0187091716937981,-0.00423954497929674,0.0163539181418795,0.000657185370907327
0.00949556410812202,-0.0043444763969394,0.0196916223348715,-0.000701290952358355
0.00662903453104761,0.0039259195813441,0.0189220182913182,-0.00237089044732631
0.0198904836068515,0.0176084508491034,0.0118534419735686,-0.0043125381213373
0.0347925529715298,0.0276502387535638,0.0054657076574896,-0.00547713285276013
0.0308180536812036,0.0279195794464683,0.00599781919003534,-0.00461224844482057
0.0146879998740853,0.0227656560362974,0.00874624455735351,-0.00159170553484365
0.00190888669048265,0.0244601928552258,0.00657332497734194,0.00157433019976989
-0.0067449265669477,0.0239142671262619,0.000293293285489979,0.00271698056858738
-0.0130439985888688,0.00558062293928265,-0.00551633817093636,0.00187665220955461
-0.0110280839612475,-0.0197119559953765,-0.00650125940028844,0.000246724774079444
-0.000276466465384762,-0.0339860666756946,-0.000792992156513496,-0.000835344796507455
0.00588344602972527,-0.0188736550891996,0.000676185841030563,-0.000454831780316559
0.00359861710952799,0.00825758263555781,-0.00418984611392055,0.00110515705479681
0.00513957639784514,0.0128012094844013,-0.00351143758292116,0.00331369721860973
0.0128665425986136,0.0103106900513544,0.00739974200262717,0.0058284995642316
0.0188832166051612,0.00954700063437144,0.0263481993483787,0.00809351421278651
0.0233003922723654,-0.00111283993913747,0.0391460328879336,0.00939063158644982
0.0280121567060395,-0.00901604750077004,0.0358018493582111,0.00876627104929288
0.0311805081439264,-0.00375689918661705,0.0274644972628257,0.00555673921744724
0.0318898004284177,0.00528148539244891,0.0238921138305296,0.000253102921198838
0.0288361648065583,0.00797741218644185,0.021766072418197,-0.00545475502024966
0.026003497170858,0.00513798752035494,0.0186372461430537,-0.00937078361646382
0.0281211420182787,-0.000112776997618004,0.0185996932619734,-0.0101523273011511
0.0299784649683654,0.000207211200581151,0.0206606596885276,-0.0078201891932213
0.0277235268952192,0.00371217220683927,0.0217049989678258,-0.00355097600040035
0.0248001904886545,-0.00760790661473711,0.0243200185668246,0.00047474461691824
0.0212074379191451,-0.00935391002850117,0.0226181896087746,0.00305683519880032
0.0139068495945808,0.0228773488851561,0.0115414854156568,0.00431758762177197
0.00551407956677944,0.0412690031353002,0.00587462402436913,0.00426823845177651
0.000265891877933914,0.0187325656549049,0.0146751785163779,0.00363846771071529
0.000535643371711199,-0.00997041098720991,0.0240102821792103,0.00338671927666871
0.00825054663675778,-0.0185968517211633,0.0242089405201949,0.00328928758427933
0.0179090355998234,-0.00236744221893233,0.0226331874079741,0.00310008277727591
0.0209252519531803,0.0212362477959102,0.0227266896644292,0.00311785561524287
0.0183551904105466,0.0105714145935286,0.0267640306647521,0.00327463880358121
0.0161387928678245,-0.0298580711336135,0.0388226623117591,0.00367379323934773
0.0184070277027171,-0.0295592934948126,0.0447017061701568,0.00445692495221678
0.0238865858596696,0.0191434398973289,0.0381017374072603,0.00432248214365574
0.0246117469024561,0.0467284638112664,0.0303357840951299,0.0023410748349589
0.0176312662559833,0.0448734097674996,0.0214410776415132,-0.000132966725344299
0.00938671452143096,0.0415183088642041,0.0157076037184373,-0.00167275303307474
0.00789219285550719,0.0286567251511519,0.0220568490204357,-0.00211743427756135
0.0148421245294801,0.00782965984031517,0.0319955479692991,-0.0017203225654258
0.0239674495013857,-0.00620837264040432,0.0352936973404939,-0.00109570406145241
0.0286879579455104,-0.0122103285694207,0.0342797106900796,-0.000937506742807641
0.0244484117637348,-0.0120904160836257,0.0335822197744858,-0.00109896990772749
0.0135265952515061,-0.00248506968636305,0.0303651356233879,-0.00101536472890127
0.00898062204795273,0.0220228704833118,0.0222057568647246,-0.000339443698807543
0.0165408941552181,0.054532475724528,0.0142036980478484,0.000897352393833757
0.0256025233038121,0.0638862468846169,0.0128122316845892,0.00187235847310963
0.0290214171164759,0.0314664380336563,0.0208515437763032,0.00212241487171085
0.0279240645083312,-0.00645525189313924,0.0297039463155233,0.00222245419091096
0.0210917014434158,-0.0125623731660313,0.0309899496675936,0.00228958477601052
0.0117063642708185,-0.00195425574964439,0.0297154453535307,0.00176678995644811
0.00662977891059225,0.00137109607685845,0.0275016679365481,0.000498595766780112
0.00730769798437436,-0.00520632624506441,0.0235761356614331,-0.0010409975124369
0.0106659237468831,-0.0125812185822817,0.0243799422597583,-0.00218463246029377
0.00952672240280191,-0.0164086445915403,0.0315537404400184,-0.00240208258167495
0.00265015395375618,-0.0202803866840078,0.0380432735914573,-0.0016306228253325
-0.00299438236588099,-0.0192878417676892,0.0377261299463809,-0.000718076321813407
-0.0047164750401678,-0.00992315677303943,0.0330400600760591,-0.000798014007504506
-0.00273096873663736,-0.00660791620709122,0.0314946230267301,-0.00216697505376622
-0.00128489858172725,-0.0134645630264035,0.0334762374869335,-0.00384944408050752
-0.00587599628822908,-0.00461057373384177,0.0306620001296428,-0.00383257476757032
-0.00554519378520391,0.0266804112160732,0.0146622230321949,-0.00106070537782489
0.00804332984750459,0.0388840437729275,-0.000775141100047231,0.00259796900915095
0.0200840659532192,0.00638877017507487,0.00792576747623524,0.0044673989604254
0.0217607393136003,-0.0308727856638799,0.027478419962733,0.00460183080787914
0.0227055251456806,-0.0396591583849409,0.0333945178913246,0.00447939100351626
0.0277677566342386,-0.0356267494321002,0.0286441662188624,0.0039634793636574
0.0271203448866442,-0.0347592708692758,0.0253448115034503,0.00236811415395456
0.0158406427089139,-0.0299219195081337,0.0236205019996132,0.000338328319414558
0.00377504983063019,-0.0148847205222802,0.0174054731376954,-0.00100276768784124
-0.00652008699627859,-0.00497360203995766,0.0107179263269753,-0.00159100596147729
-0.019031477550925,-0.00812104266420637,0.00745629120177992,-0.00205557789419552
-0.0225491639415516,0.00232391592097352,-0.000550017809762507,-0.00277836379398866
-0.00942192244870809,0.046417519687341,-0.0141708884433235,-0.00429376998442707
0.00838677574667746,0.0865400416928043,-0.0176917049623147,-0.00658498684097162
0.0207898276209038,0.0847432256641157,-0.00627830736120009,-0.00813128535687975
0.0241274331046225,0.0528644396251944,0.00592015559059742,-0.00742336280462059
0.0188648283618864,0.0119859951686724,0.0117246728339134,-0.00445167916461907
0.011907109623445,-0.0235498278947565,0.0157645522988143,-0.000481104699690423
0.00693967784611318,-0.0410545272551622,0.0186899693806672,0.0029163592417069
0.00417657654286159,-0.046204281508358,0.0178600405321068,0.00466140776774378
0.00133658860349643,-0.0508163028470652,0.012630381407585,0.00461428258386736
-0.00547830174101034,-0.046897292081336,0.0028579601661243,0.00345161331684174
-0.0140393192995085,-0.0223697823833396,-0.0068468882212933,0.00177846145118248
-0.0200426859081666,0.0115432574862955,-0.0111687484297324,0.000210309786938653
-0.0253022768929041,0.0278467586682251,-0.0129093040244336,-0.000176027338846445
-0.0270323998461184,0.0147151744497217,-0.011648820383027,0.000755590560769365
-0.0188143368534975,-0.0136362413911337,-0.00219894342141129,0.00195240019049779
-0.00760693783489319,-0.0229984970770208,0.00519946162777656,0.00225680355353919
-0.0045819718519639,-0.00707187093804027,0.000705778773755375,0.00065980908087938
-0.00773168740450115,0.00958044498498843,-0.00848367269002443,-0.00215496501959445
-0.00942721855106835,0.0212493221780413,-0.0154698809519245,-0.00389094390440313
-0.00605254040598447,0.0254530671794807,-0.0161660960015072,-0.00380380994551169
0.00349186466975086,0.0187790363613939,-0.0114342646044944,-0.0028077585007883
0.0139684035785853,0.0160579342968009,-0.0111441267228442,-0.00171571980341733
0.0177612082794898,0.0239956778555237,-0.0166398390780056,-0.000942871324211715
0.0164215872966138,0.0268650952574352,-0.0175403033734499,-0.000414427082285091
0.0151996027464136,0.0194958613029934,-0.0119402162706721,5.42034437591089e-05
0.0116447953704609,0.0146139795008423,-0.0089141982319017,0.000629608753716873
0.00426791665344369,0.0168015318483229,-0.0149436048556122,0.00102226226606892
-0.00299134839910541,0.0189976671507915,-0.0230134377232281,0.000416821328432299
-0.0110607298442939,0.0158579438206731,-0.0213902287040937,-0.000971842525713578
-0.0231086718963727,0.00824750085809215,-0.0154664181507026,-0.00196452576778278
-0.0330566706040944,-0.00188478055286259,-0.0143652267201622,-0.00206213558696018
-0.0348104625248176,-0.00866628550363512,-0.014885468820479,-0.00151591440697179
-0.0367959633438028,-4.66727768671064e-05,-0.0186334011130118,-0.000536768736129188
-0.040590557234888,0.0172165750020866,-0.0300295221701771,0.000568227968582736
-0.031761085177128,0.0186500329868049,-0.0389185144944105,0.00105396770793218
-0.013636935404519,0.00981117180366802,-0.0325553834208641,0.000571397209362379
-0.00242053983278222,0.00902977072088924,-0.0176373794667976,6.44456552524543e-05
0.00171764303442551,0.00125199919669717,-0.0106591554004201,0.000520859871585518
0.000837020387607992,-0.0155566237705932,-0.0132804782357326,0.00156829124300549
-0.00894970501606185,-0.0105941599422591,-0.0176007260300042,0.00212408554605512
-0.0178787997348547,0.0235252454045811,-0.0226158443203569,0.00124657705610058
-0.0120950476855602,0.0422939126476724,-0.0210547333541213,-0.000813183064027405
0.00188379959451189,0.0145760712151936,-0.00787741915682805,-0.00170826634221466
0.016571063120535,-0.013945482298622,-0.000323303117485976,0.000172668659736084
0.029672926674078,-0.00823359849726755,-0.00528540227552996,0.00260475333174098
0.0285284761050328,0.0015189410422141,-0.00914982189865478,0.0025619012424848
0.0124405806059887,-0.00636395852086523,-0.00807002828894628,0.000432842370915509
-0.00656869201279943,-0.0182117560364703,-0.00971667385881491,-0.00136823845974798
-0.0220803979757341,-0.0211001014028182,-0.016755601722608,-0.0020678193671048
-0.0279408828084476,-0.0173527976233632,-0.0224270857728663,-0.00245161695113528
-0.0233977709049957,-0.0130550018611519,-0.0217578756999208,-0.00272228273357821
-0.0165506704975963,-0.0136713496726487,-0.0165161562965459,-0.00264314213857816
-0.0106472898588473,-0.0219824137063899,-0.00791885918261304,-0.00226048639842789
-0.00394974855052678,-0.0279457512683776,-0.00359093269691245,-0.00168306836359355
-0.001174320823127,-0.0128494130417616,-0.0151688886191445,-0.00128664069045544
-0.00536423217870689,0.0202125724566721,-0.0316996149441028,-0.00153424400734534
-0.00913637039797072,0.0359110525893906,-0.0317584282378111,-0.00161280018879227
-0.00648976255518974,0.0235481427843308,-0.0179481293975786,-7.86303329053683e-05
0.000453585081545504,0.00342540060899156,-0.00515381482607239,0.00267479326103689
0.00666506795506799,-0.0169554287145118,0.000440095010171143,0.00479860302879261
0.00795410921847797,-0.0305785333482106,0.000408297663797071,0.0050332307829435
0.00492968291647132,-0.0348880292951068,-0.00168411021806604,0.0034185069440984
0.00204987263828632,-0.0363209751581884,-0.00333850106498108,0.00109293125702653
0.00143026768198823,-0.031780983724074,-0.00514436900466591,-0.000853542545037215
-0.000438544269480627,-0.0201069401860934,-0.00939737055978184,-0.00252738571488228
-0.00531220496982389,-0.00776484726668334,-0.0136216713863221,-0.00437802675534622
-0.00465441292596979,0.000536059706073549,-0.0147938602921412,-0.0057949522209991
0.00557896545239872,0.00407814941062119,-0.0127135345332644,-0.0058053952307091
0.0156505340160725,0.00424519847559476,-0.00640062625259809,-0.00410201997114017
0.017250118424616,0.00348274120755813,-0.000865293239023963,-0.00124931839481482
0.0122922754081347,0.0112200780690077,-0.00368840604688412,0.00122288887180494
0.00637147399106178,0.031919028612271,-0.0126288419872028,0.00202324595489906
0.00264392408391363,0.0542861050181709,-0.0198947214654816,0.0011682262601352
0.00173503707410759,0.0580625880457616,-0.0194029128259988,-0.00066230705798767
0.0032641613154825,0.0322794947386517,-0.0123654162571916,-0.00243098653779258
0.00626629474655555,-0.0179286199867788,-0.0031779497486195,-0.0027342103561154
0.0123875500502448,-0.0764620009628176,0.00582676101180089,-0.00147138716875512
0.0208262416225484,-0.0965724376570792,0.00658900848595555,-0.000540619680251755
0.0172306327728139,-0.0331292110709131,-0.0107617287620449,-0.00150527048541716
-0.00169491079214337,0.0601423085541676,-0.0347022747678894,-0.00376903287148841
-0.00896466770413572,0.0678095318752344,-0.0335459366408839,-0.00495217015284613
0.00681950566956567,-0.00944457359125913,-0.00128440987999509,-0.00266215562196126
0.0216566740238704,-0.0533328737823856,0.0283416360414283,0.00288340135688999
0.0210391512349525,-0.0126137970876106,0.0261376498585385,0.00815579072744544
0.00742153414636723,0.031805071216146,0.00801757360049861,0.00937419864715485
-0.014302800120794,0.0193797769491369,0.0024926308647911,0.00619093725358067
-0.0233890782410023,0.0032997910734785,-0.00218979206821732,0.0015056236148217
-0.00865595182948672,0.01926305291341,-0.0167705521473676,-0.00274550455654777
0.00605508933698646,0.029730307686391,-0.0228386421009319,-0.00649183670427614
0.00427463393972027,0.00823638151184174,-0.0147624796675389,-0.00838097874964735
-0.00323807954841741,-0.0157173054576993,-0.00734387720401004,-0.00703863831408012
-0.00397129185493391,0.00113684570613805,-0.0100468070778762,-0.00368606190694967
0.00133700097527839,0.0217073813579661,-0.0105234755154228,-0.00078273652712739
0.00383159211679953,-0.0101436874821438,-0.00134073856117472,0.000605026819726054
0.00640992357847479,-0.0484856085581645,-0.00125142512963283,0.00132088702600871
0.0159503481295598,-0.0369301067647336,-0.0146577526247133,0.00174501304533123
0.023818128374896,-0.00765570529501776,-0.0179861835740807,0.00132959045220184
0.0242849347902208,0.0012267347376136,-0.00720659770530589,0.000742607370664816
0.0216300165577081,0.000991436208553794,0.00232886559911671,0.0012648178026812
0.0141085057524421,-0.000727199341427426,0.00927799155732909,0.00278735775083065
-0.000959615077319773,-0.00704032638761375,0.0139636940018205,0.00419406053510435
-0.0117996293122667,-0.0171061226663485,0.0166123644050978,0.00443141677360765
-0.00514044180963843,-0.0266292510434607,0.0211338556337139,0.00321147745185544
0.00812776078612485,-0.012384226434588,0.0232801143871734,0.0013020406597694
0.0126562829125422,0.0207599853792065,0.0225783992459944,-0.000185106943334357
0.0114829072915908,0.025304811984284,0.0252676410213453,-0.000910802561184593
0.0116075091467539,-0.00314429588785954,0.0296380937714535,-0.00117181969485076
0.015345795534257,-0.0262135524688255,0.0300964446080116,-0.00120248398891438
0.0218184871657592,-0.0307345476199418,0.0253016563551022,-0.00110233273975447
0.0297564250170064,-0.0208703536233442,0.0086207250497758,-0.000712426704696546
0.0290080848363771,-0.00338561657956649,-0.0174599146822974,-8.09579135762006e-05
0.00769348194389772,0.0274474891508888,-0.0311965229939955,0.000793164299515905
-0.0225281223379423,0.0663639823622314,-0.0261584271391837,0.00194397434684911
-0.0386790466417349,0.0664529683602431,-0.0147041650719515,0.00249431098389144
-0.0339072550317698,0.0281356640807832,-0.00492645089502189,0.00187495052808912
-0.0181399354383505,-0.00430802275538998,0.00259030524719053,0.000835852232047021
0.00151572805978466,-0.0194686824647357,0.00865172506725424,0.000221671060925171
0.0188060254147683,-0.0271337282269091,0.012090060707188,-4.88193889360168e-05
0.0277219307438959,-0.0399803017489536,0.0126452632682117,-0.000411483259485835
0.0303534183957778,-0.0537202572437215,0.0114266355053235,-0.000605107363502956
0.0279079761668805,-0.0371049515113464,0.00679457083739719,-2.19639119541412e-05
0.0275099422633173,0.00110087100998091,0.00396491429276647,0.000917309093261254
0.0326685304960007,0.014230109662914,0.0135467932164173,0.00138605744210872
0.0309187290569637,0.0143210096061447,0.0260411948213266,0.00184045409491187
0.0191723660611465,0.0252188820124598,0.0244319522386741,0.00258191060159447
0.00397081260799639,0.0292556422526124,0.0143511890096137,0.00268423997341193
-0.00878867825587625,0.0205005179621222,0.0105255318429733,0.00188290958721445
-0.0126880446761422,0.00547132045384185,0.0119929108922682,0.000898752442043954
-0.00857472834256928,-0.011179536864115,0.0102264421429624,-0.000164921769024738
-0.00196551264484812,-0.0164327693895954,0.00562225114582856,-0.00171462466107108
-2.00765406053439e-05,0.00302380141906147,0.000239237822780214,-0.00335270712454905
-0.0059100487622063,0.0289740830863197,-0.00329347965749499,-0.00425873980822084
-0.0122394348092246,0.0263036747892781,0.00132823316824195,-0.0040451536832211
-0.0101251128235695,0.00918178034811497,0.0068102659435842,-0.00296959960644824
-0.00110881298743644,0.000762528149486342,0.00545734358114346,-0.00193579377251214
0.00797055549933253,-0.0128493821026704,0.00588591162948553,-0.00126802825891602
0.0135375907830954,-0.0286674137444951,0.0104035631614434,3.34625672938661e-05
0.0123688595690603,-0.0203449515471478,0.0131112231027109,0.00281589606407978
0.00390460109385419,0.0151540629040619,0.00796579355086135,0.0060984195004433
-0.00521144762065562,0.0343741757436315,-0.000934188779915034,0.00734812161008865
-0.00800412585693511,0.0132418530565006,0.000347972868095245,0.00557320380389961
-0.00653661047101049,-0.0114770373227274,0.00947100848970081,0.003037050716235
-0.00435095084177705,-0.0121562911366168,0.0124978755829899,0.00225628759414548
-0.000182252272386867,-0.00309005006398289,0.00619327956146756,0.00299013849668138
0.00431406819487831,-0.0127649113682751,0.00403121368143764,0.00344709264143203
0.00721510779531907,-0.0375454244656528,0.0128604436572471,0.00318639800017456
0.00879829372183305,-0.0458138698053232,0.0173296624507046,0.00317769218632991
0.00850728888027285,-0.0378207935549766,0.00973871779233816,0.00347325794201427
0.00712795472673433,-0.0326558521206678,0.000411553461615758,0.00240889835053687
0.00849188187977239,-0.0168336387000318,-0.00382053859883504,-0.000702827418173037
0.00967919921728287,0.0245795816412682,-0.00417397564795928,-0.00385194947647641
8.48088034328485e-05,0.0595463586631099,-0.00597429162644731,-0.00491821586444142
-0.0158755195847301,0.0608290993662405,-0.0141317800140304,-0.00406516596938655
-0.0195278814153529,0.0357036795050284,-0.0184031636194549,-0.00266365317123802
-0.00819024824002699,-0.00630592346852182,-0.00525909033303966,-0.00120161890839995
0.00317107674462752,-0.0446311609089564,0.0115690171000295,0.000701714618381814
0.00477413042479343,-0.0621634986144369,0.012411330269498,0.00276523036195861
-0.00339832196171867,-0.0617926563169528,0.00471378101387057,0.00413523028252925
-0.0164759297216874,-0.048430994208744,0.00335301084987651,0.0047035339948549
-0.0269650308779094,-0.0204315736562281,0.00616179366040235,0.00482301188082436
-0.0297349373923686,0.0126115877491005,0.00525181274555419,0.00452720372348195
-0.0281897374444365,0.0284879307322105,0.000401164850173938,0.00377233010438771
-0.0251722639866955,0.0177821928058333,9.69982004363072e-05,0.00273263790982976
-0.0155960651547399,-0.0170494710356123,0.00835750047846474,0.00197566025300348
3.72885828546776e-05,-0.0521443669037864,0.014747028557988,0.00210095081639429
0.0139109746282627,-0.0610801569540276,0.0144597568685705,0.00271441630515688
0.0234862731633431,-0.0570853839040323,0.0123520103179735,0.00305525540602713
0.032159217422007,-0.0675843901553319,0.0132128216318219,0.00288974681055835
0.0389398237165536,-0.0828888907202132,0.0165641236321026,0.00218122788251812
0.0389874993887796,-0.0794273716343816,0.015153728873872,0.000995365042549273
0.031823842265697,-0.0608686332813242,0.0063209999529321,-0.000313242084696891
0.0214413057721743,-0.0407294370948082,-0.00524636187576636,-0.000976527126785719
0.0116923398778287,-0.0343525456323368,-0.00813010490580161,-0.000409644173538016
-0.00131495210304301,-0.0441335358379297,-0.000264127296393185,0.0012166363409311
-0.0200686404950478,-0.0439140240044668,0.00161590629175495,0.00303091681827975
-0.0310608850659805,-0.0188633693807869,-0.00747610120512468,0.00368478870996861
-0.0254436217420615,0.0202252534140477,-0.0148413346996206,0.0021842831839296
-0.0175994213896477,0.0694764279336264,-0.0174275040292924,-0.00112288749853505
-0.0238170441519812,0.109933720761429,-0.0191363268901689,-0.00490434873206867
-0.03747178918236,0.115006085134657,-0.0237566064414549,-0.00768480755960376
-0.0427134471568874,0.105808885896921,-0.0334393476493853,-0.00826137373609665
-0.0383407873158962,0.0934710051973577,-0.0343241923574018,-0.00677151718148202
-0.0196569107879337,0.0450964330412913,-0.0174987296096842,-0.0047261830650561
0.0140766473839889,-0.0334922013260103,0.00235104238447605,-0.00318941051519287
0.0395306570056758,-0.0842898218154257,0.0101042779002709,-0.00190059876911145
0.0463401604635024,-0.0812051114860984,0.00382114557407767,-0.00042096813693572
0.0414886087307222,-0.0635327924678275,-0.00304390056395026,0.000853759096908532
0.028101922603304,-0.0539358430434524,0.0012313853799303,0.00172838998237654
0.0116340539738828,-0.021963967864746,0.00343350475331256,0.00226132619905094
-0.00275121635998712,0.0115338105957635,-0.00187911399337133,0.00191154338586404
-0.011690834040096,-0.000980625221648565,-0.00208316080072478,0.000686948563555704
-0.0143456171365619,-0.00859207706604132,-0.00333674360966111,-0.000564467614038322
-0.0147399929543693,0.0234284433676305,-0.0101940255435918,-0.00187123272758069
-0.0131378524760496,0.0309444536460845,-0.00932403110608716,-0.0036514240913157
-0.0112577438614681,0.00271712149619027,-0.00242005813959265,-0.00498520009750749
-0.0128697853289506,0.000974832719191032,-0.00457879583223731,-0.00479827533298064
-0.0142998970330715,0.041421607713886,-0.0188902285976555,-0.00356650226690108
-0.0120811620112337,0.0721330870558701,-0.0290214379565583,-0.00297289749141941
-0.00990489492113929,0.0577047208640662,-0.0204632739954657,-0.00369380761228009
-0.0120655344103319,0.0229910829458835,-0.000793218262701754,-0.00410358634091536
-0.0124020562318821,0.000371809518960917,0.0101411802226413,-0.00256141589101965
-0.00605608497265167,-0.00621217737549898,0.00361879666127362,-0.000125404111689848
-0.00450081114331612,-0.00424499396408239,-0.00666321435241709,0.000962419204881249
-0.00847763347306531,0.0118845258574337,-0.0137294489598206,0.000565046691660417
-0.00592720813944636,0.0292683874744409,-0.0176842630262999,-0.000373512565390278
-0.00379750185867804,0.021291690747579,-0.0114169495143516,-0.00168977088450158
-0.00768271802110821,0.00581409194093649,-0.00268983635373413,-0.00310382779744258
-0.00801363670183607,0.00861438165898305,-0.00258933730668711,-0.00403473702342865
-0.00430505137415285,0.019729595459437,-0.00620240568448626,-0.00411139860606966
-0.00147014309649767,0.0209518262662715,-0.00527469461217888,-0.00333618104974955
0.00178031917921947,0.0116256440479047,-0.000608219520995247,-0.00210546831043182
0.00383516118951195,0.00220342203393805,0.00197514311375083,-0.00094297788675881
-0.000434591294612645,0.0018738895854289,0.00139395906259154,-0.00029757219939117
-0.00746261952390755,0.0186199237214872,-0.00204038217518155,-0.000178877440763092
-0.00953251749441002,0.0472150878838156,-0.0103590511138613,-0.000343531011208139
-0.00747749380070478,0.0540168230599932,-0.0183459241876077,-0.000813192529897845
-0.00577912284321448,0.0297212099801063,-0.0193148544031138,-0.00132085066380751
-0.00431514583642633,0.0089573793721582,-0.0137425306383722,-0.00127823907935138
-0.0025811602401186,-0.000325416434638237,-0.00498809825779318,-0.000409039481252265
-0.00401455516956983,-0.00859555307157673,-0.000302496771134107,0.00104396452733702
-0.00991032497025821,-0.0132771374475584,0.000374397247090864,0.00234284381066729
-0.0141315205925304,-0.0152485598845561,0.00149521823181357,0.00295744613406264
-0.013399910312232,-0.0153436737118457,0.00124165805834366,0.00278865291541005
-0.0134515402371392,-0.00918010481621292,0.0011302209488333,0.00190729393760363
-0.017043998197969,-7.34527182216053e-05,0.00330773114573516,0.000725031624610246
-0.0172386113322902,0.000546891678091107,0.0046301276380413,-0.000114669517981835
-0.0127793986940279,-0.0042510159469197,0.0041420405768982,-0.000303335579103847
-0.00953335791948894,-0.00377388639958839,0.0036316158670258,-4.93821202715998e-05
-0.00652315553137954,0.00151209482084293,0.00194012037952295,0.000181514159256462
-0.00295711737284601,0.00595679663525227,-0.000776312246828144,7.9597130263325e-05
-0.00252216413435083,0.00498173042367952,-0.00114098046212844,-0.000235651241798297
-0.0037591900187802,-0.00628933830527454,0.00584741943103513,-0.000432362249173429
-0.00272019091865323,-0.0265361201066217,0.0194605033180799,-0.000381403735394532
-0.00294635764341226,-0.0320375642336129,0.0249590198884059,-0.000507849733298763
-0.0126892366892692,-0.0018497208806267,0.0107588064575684,-0.00122356020584936
-0.0278993006058178,0.0379012640012455,-0.0154286056848452,-0.00187939684817842
-0.0262670165604673,0.0424699157704864,-0.0309102626069645,-0.00126949135555806
-0.00576495786924873,0.00441870835304933,-0.0171804626229682,0.000620265467798828
0.00637254560043968,-0.0354765789360217,0.00832752784261999,0.00286833311216085
0.00325589617129162,-0.0361393169717274,0.0111176619827742,0.00438894217896283
-2.33860107109107e-05,-0.0145901285314326,-0.0035414447571811,0.00370655401195239
0.00028843569213921,-0.00328196653576841,-0.00770641102003451,0.000800026253318735
-0.00387497509823743,-0.00653570811539351,0.00444114828549245,-0.00170631700647664
-0.0129776843296567,-0.0203417245622636,0.0184382365052104,-0.00109762152406138
-0.018530928992727,-0.0225154075580742,0.0143998932273704,0.00172380584870284
-0.0202945187881628,-0.00938301654124651,-0.00280421121394527,0.00254964847332
-0.0221647829910715,0.000108509675984941,-0.0070200264608844,-0.000354209498628914
-0.0240294196230352,0.011990944831505,0.00501749354813671,-0.00414756095158939
-0.0246995564996469,0.0226640422927497,0.0138379001571657,-0.00578465078700865
-0.0209053131042775,0.021581951641002,0.00637694058081812,-0.00461795033337766
-0.0120836054468107,0.0114860668356504,-0.00271381559656072,-0.00195461398693265
-0.00758137808934414,-0.00647085139478286,0.00504640864800505,0.000453529968185189
-0.0153811473075437,-0.00126231832009189,0.00894165105697048,0.00171365026310707
-0.0275675277319671,0.0467549256207286,-0.00611401309254676,0.00128612375525615
-0.0297208133220901,0.0844366105676025,-0.0182178244477232,-0.000302368060906592
-0.0138165207485682,0.0685084838197469,-0.0147409913913419,-0.000676071812209099
0.0149828837468621,0.0259105500721312,-0.00168036466081335,0.00189636091629843
0.0368472322719331,-0.000454403116383756,0.00969960758844016,0.00663982627468504
0.0354561941978278,-0.00431657666703765,0.0106491098289399,0.0109053980547287
0.0173275288138366,-0.00491769593592058,0.00572819269745095,0.0118926019565474
-0.00233736885523604,-0.0135196562695883,0.00473221246092543,0.00869001197000933
-0.0194980184666893,-0.0197297901663341,0.00503879276415037,0.00286168469986113
-0.0281822148597034,-0.00887250816748638,0.00212439196494069,-0.00330603507752968
-0.0238088449855412,0.00981053456952092,-0.000187707796090694,-0.00848603509277972
-0.0186434637061807,0.0251807873131288,-0.00100818312019708,-0.0118471512224423
-0.0214844140271411,0.041082906412538,-0.00442211981246448,-0.0126229271103741
-0.0278937084433435,0.0435674629832739,-0.00811122549081187,-0.0108040722774437
-0.0277757105558033,0.0218238772302714,-0.00545946612675075,-0.0072276720171862
-0.0168726804391942,-0.00544002553516697,0.000362142492189875,-0.00297707006226239
-0.00552485399959923,-0.0216457352235676,0.00484605355332453,0.00111602493185015
0.001983060753745,-0.0225592721777916,0.00648173975892168,0.00435799560868688
0.00999523182685755,-0.0294102816095108,0.0103385926915388,0.00601305207179028
0.012664569348362,-0.0642106040684195,0.0245437059278758,0.0056496840003703
0.00420595355380076,-0.101912450257991,0.0410388410785811,0.00352285435686641
-0.0124040405137534,-0.0864266925934456,0.0366465874791707,0.000804892042305257
-0.0274770360388537,0.0138802827578732,-0.00504615149321127,-0.00179621898815699
-0.0235652835204911,0.101645403945823,-0.0445606155087017,-0.00484452286215365
-0.00231863644726511,0.0875658914039833,-0.0390490221151702,-0.00705160360212143
0.0123551655152748,0.0548960191193967,-0.01892231224146,-0.00535102703948489
0.00808296842569103,0.0687171859313226,-0.0133881328893433,0.00037346003068061
-0.0068566789304953,0.0927655361323253,-0.0178344447916571,0.00717153341453587
-0.014037959660458,0.0669854836546779,-0.0151045161662815,0.0121122911066634
-0.00982350732666539,0.0010634926218069,0.0016091820142052,0.0135425438185755
-0.00433713632534007,-0.0313044161623872,0.012424249491619,0.0113349104684547
0.000239072460472289,-0.0273937300118504,0.0116622440754141,0.00640948413637157
0.0036133341283775,-0.0211148589165893,0.00877005501685826,0.00022118041351595
0.0027616065267754,-0.0127312486475071,0.00568104391449261,-0.00546835899129749
0.00171670246734953,-0.00865479624652995,0.00321418909135484,-0.00924939686063445
0.00432373443797249,-0.0277247760280772,0.00871871790698816,-0.0106413721923435
0.00602010904082994,-0.0624523432265977,0.0222186326076794,-0.00999545851168558
0.00463457493616804,-0.0840637576207703,0.030294663138295,-0.0080757852467899
0.00304775137602805,-0.069602018792485,0.0228252526479944,-0.00588980362592375
0.00214429799464763,-0.0329900762123811,0.00493380992911059,-0.0041960202557403
3.94928088438933e-05,-0.02521145900451,-0.00445209323724743,-0.00290159145329771
-0.00123342093677359,-0.0553548547014572,0.00210297709435485,-0.00111524559926093
0.000208120151017718,-0.0781885848281555,0.00897025927950556,0.00146221849565153
0.000953632186382379,-0.0701743582081653,0.00558883237325936,0.00363794392492507
-0.00106623309626742,-0.0473634789063968,-0.00326263051437475,0.00417600876087322
-0.00763310340157594,-0.0248335011236754,-0.0142682750769969,0.00337010564831664
-0.0122625762686781,-0.00505557604631468,-0.0177502661562434,0.00258073624945648
-0.00447427433367772,0.0192258877911361,-0.00514387484351339,0.00280093802827461
0.00357367297151095,0.0530894471280425,0.00784270469641927,0.00409401343904804
-0.00151016962872793,0.0711647815566539,0.00704978424713188,0.00481606142430827
-0.00745306935934377,0.0527406916964738,0.00381200773221626,0.00274613216126176
-0.00418893968648174,0.0108049395637657,0.0100952292887228,-0.00137884969250043
0.00100795715920648,-0.0255130994071989,0.0161023744728284,-0.00401330549172926
0.00423075335662507,-0.0312225050737099,0.0108707108598612,-0.00273585975470717
0.0109924663880134,-0.0140168997309232,7.05169803426489e-05,0.00108922901292397
0.0243153098424833,-0.00440535549210936,-0.00591286866478882,0.00362386435645328
0.0362290204234322,-0.00764888799015306,-0.00670923421105637,0.00299033885837152
0.0371224216188646,-0.00858739406619763,-0.00718061112931269,0.000718300536049609
0.0307500575051451,-0.012230172961095,-0.00373871105512357,-0.00107348581485712
0.0247213542148076,-0.0240052707341267,0.00479416071256489,-0.00115250508454667
0.0178743470998513,-0.0207712166355935,0.00703541769403606,0.000291692654727092
0.008125465589335,0.00194080477104071,0.0047317089503115,0.00146592597706597
7.95468602651471e-05,0.0115980305332348,0.010588336678763,0.00132884681656699
-0.00226787871528945,0.00395404971632007,0.0145976835563863,0.000688491834073834
-0.00146620865408928,0.000905799295281909,0.00674080289246079,0.00047009467912387
0.00202391316865367,-0.00501085779320563,0.00246022092627829,0.000582588082771876
0.0100439588507003,-0.0356376702460158,0.0143477178207957,0.000330906877553715
0.0167132858736058,-0.0741505184382176,0.0310188801090988,-0.000390319513280415
0.0120872703499555,-0.0726729225262594,0.0292614013861845,-0.000990313039010493
-0.00140875675145219,-0.0254249560012954,0.000878435495525902,-0.00138780447193336
-0.00194702042620863,0.0327762715303817,-0.0309747495793147,-0.00179808116188004
0.0155034169051169,0.0874351973460432,-0.0387875109908919,-0.00159450550433906
0.0272075333776382,0.104847763177639,-0.0214247104826407,-0.000371130689692773
0.0266302690071916,0.056357451871743,0.00408763035913372,0.00125278762071709
0.0242221037100552,0.00153875998155521,0.0204700512683924,0.00302990995629981
0.0235809529715128,-0.00973233784539401,0.0247224648907098,0.00492447505715146
0.0249826394451059,-0.00105003331620137,0.0233818550317291,0.00613054951093102
0.0249396490581498,0.00693360321856394,0.0179371472553571,0.00562716357304145
0.0156770082348241,0.0213398764293603,0.00710634633941004,0.00352274394105356
3.00909459068077e-05,0.0423077997115822,-0.00615390290422876,0.00111800939390148
-0.00611728781733193,0.0504090993233374,-0.0144722839614683,-0.000588110816192312
-0.00271885154630348,0.0356622341318411,-0.0147373409297326,-0.00138761417379619
-0.00111730186719273,0.0102789092390564,-0.0106540870751687,-0.0015924959309532
8.09065200867605e-05,-0.00490570930838266,-0.00637658240553227,-0.00177194658778739
0.00399246743925882,-0.00126677658886809,-0.0030611891261489,-0.00199309116771471
0.00914891950933588,0.00270724803057462,0.00196706007589621,-0.00176870738907114
0.01548068414054,-0.00654401244744772,0.0096622519945285,-0.00076309711297384
0.0231590754557597,-0.0170066309954995,0.0160406668803991,0.000883086837289521
0.029371270315595,-0.0208882176742709,0.0187697147221206,0.00257551782335084
0.0310288137961306,-0.0205684088494191,0.0185641170698508,0.0035680755455865
0.0288844499347974,-0.0163741080092317,0.0158805319674039,0.00340907166876909
0.0237178330031832,-0.0153524846607543,0.013367388975809,0.00242653408704609
0.0147965465408642,-0.0215354142198902,0.0128551472348281,0.00152353049490581
0.00377089961343822,-0.0196549781784608,0.00843162351229559,0.00124959864246833
-0.00334212881641921,0.000741302327666664,-0.00222977889654328,0.00121432342107124
-0.00235672780353107,0.0237871466942147,-0.00897885122775931,0.000714262151754707
0.00242034379463771,0.0293084163817433,-0.00594793581727562,-0.000119768707712418
0.00637557265714199,0.0194510535094494,0.00129586552750698,-0.000623967198782785
0.00946312709728479,0.0116924232503479,0.00502213163784512,-0.000534673579605917
0.0102783261462288,0.0163117620454676,0.00247782356101491,-0.000140084639454183
0.00873540099931127,0.0245097308103042,-0.00152480762318926,-4.24945059147429e-05
0.00804268830690974,0.0205025531357557,-0.00294027716092074,-0.000411402298738774
0.00782528072737532,0.0058460491614957,-0.00379868908604425,-0.000670007740968524
0.00376447035170037,-0.00350634723626458,-0.00752780497951457,-0.000394724091272063
-0.00549832427614183,0.00713827960822683,-0.014343841072918,0.000151826207370549
-0.0145962377730347,0.0282209842069489,-0.0183183963221497,0.000596505361817416
-0.0160155015924299,0.0328342762556099,-0.0153045306118833,0.000899079217646697
-0.0119287234656769,0.0219888664628287,-0.0107783353549271,0.00113646332700138
-0.00763924170896499,0.00866796974750462,-0.00802679883085353,0.00116435858363418
-0.00308678401889342,-0.00655949879173062,-0.00267272503057086,0.000927061409876752
-0.000801495527817563,-0.0174767949008435,0.00340355830405488,0.00082482096868143
-0.00175459695549629,-0.0172824747997383,0.00472663614229722,0.00101671478873193
-0.00227489797682865,-0.0101222530450132,0.003603876074938,0.0011487986141433
0.000108072209987039,-0.00444170455192961,0.00272925488195224,0.000956116639616303
0.00612021827366393,-0.00388431229572799,0.00112573654792263,0.000629640760684635
0.0137744482099541,-0.00635822200956359,-0.00133677139513698,0.000405539024474183
0.0175634537103129,-0.00888838328907681,-0.00413907488927565,8.15505786144066e-05
0.0139395305880163,-0.00921752771734612,-0.00656758241421281,-0.000443255644313349
0.00546387572286813,-0.00731862384497502,-0.00806774276539848,-0.00093982017561733
-0.00303338185723251,-0.00460850997028504,-0.0103725076425246,-0.00114834051632225
-0.00824415805977549,-0.00251824166747868,-0.0132138054268472,-0.000907667960181456
-0.0111841248889658,-0.000422940246065217,-0.0137101710342025,-0.000424353330802618
-0.0141685561955067,0.00332499521268135,-0.0138656327028056,5.68642397981549e-05
-0.0156388318660674,0.00677413307513097,-0.0160654738764544,0.000473693108280861
-0.0143918466538967,0.00763378455499055,-0.0170412392815003,0.000788740327109695
-0.0118420233128543,0.00811287036743662,-0.0157540810345794,0.00111269902737233
-0.0100616130431337,0.00936811662917342,-0.0145405698542368,0.0012915236786955
-0.010363393774279,0.0111803734687195,-0.0131742389299764,0.00117409993273275
-0.0113895890377385,0.0173502886032747,-0.012140215105005,0.00100583668283439
-0.0101091554356826,0.0281500505348895,-0.0133554074808496,0.000667835270863878
-0.00703851861365309,0.0341260342848391,-0.0148504156911348,-3.27079224956119e-06
-0.00612970209432627,0.0262809961361196,-0.0136502532695192,-0.000761506212582398
-0.00760794600734645,0.0103569367837427,-0.0109146157976626,-0.00131088462587649
-0.00867080917176512,-0.00350429483223829,-0.00881578152580949,-0.00155505648819846
-0.00938928810274557,-0.0120276956704379,-0.00737940514164298,-0.00176008949107808
-0.0103354308231073,-0.0147739817321339,-0.00746902887595705,-0.00196033234882183
-0.0103431738044841,-0.0141523789617952,-0.00952216943986884,-0.00196242985887924
-0.00908872835555989,-0.0113281653024396,-0.0118626384301274,-0.00163817608736395
-0.00715490331267328,-0.00903166814160282,-0.0142021213657966,-0.000754990110279674
-0.00597536875011706,-0.00911804843093109,-0.0166517065679539,0.000395890817015646
-0.00511371858443319,-0.0070937734061936,-0.018215971211316,0.00122467737405814
-0.00370420608834904,-0.0035447166322504,-0.0184196078121873,0.00149077965623605
-0.00318030631609894,-0.000485532051252557,-0.0187792116631149,0.00130332436060717
-0.00374901634255057,0.00992741195312169,-0.0202551290245493,0.00095919456333308
-0.00668131746765234,0.0326283845913572,-0.0226648009142909,0.000490061288555853
-0.0110727986851688,0.0484052603368003,-0.022713273284899,-3.14577786412864e-05
-0.0135252461573741,0.0367297067753483,-0.0179076532969603,-0.000263258259833269
-0.0140936419816188,0.0117617699600184,-0.0122849609401521,-0.000175844687325731
-0.0127981780009158,-0.00496284710501808,-0.00842379732748049,-0.000286610317121331
-0.0124466215093706,-0.0112280576258849,-0.00650714195049794,-0.000738362767919262
-0.0164529630339575,-0.0117662736656398,-0.00664198948157741,-0.00131208140031039
-0.0216934091530034,-0.0111601736819101,-0.00809659685750077,-0.00212199369928069
-0.0234173559408503,-0.0147561832987802,-0.00993830588039794,-0.00283180206574747
-0.0179635570617295,-0.0244557740319091,-0.0100607053033192,-0.00294897370751196
-0.00683850790852542,-0.0323276604412481,-0.00857706930143303,-0.00271355352608283
0.00293744035076748,-0.0345900564881735,-0.00647737054855733,-0.0023639783781001
0.00951464790015713,-0.0367942745763058,-0.00320848466569755,-0.00174153730013342
0.0145086196412689,-0.0385877571019663,-0.00217605521477593,-0.000951817840046766
0.0154164478914134,-0.0352297444603022,-0.00572098757594832,-0.000469607535816683
0.0135673361220282,-0.0286104566043719,-0.00956143686367555,-0.000646642086840358
0.0115610773518549,-0.0244057861125872,-0.00973314172887309,-0.000968783387324716
0.00499080204855198,-0.0196660961815629,-0.00721797174281506,-0.000356888615886812
-0.00722227874983862,-0.00716224396210804,-0.00505252236628911,0.00121367805028901
-0.0215995014210188,0.0218035453340184,-0.00856826990121152,0.00242388860183046
-0.0382735890064003,0.0675871218223073,-0.0206884991340055,0.00183596934399432
-0.0525135104038576,0.097915945768561,-0.0331360330125118,-0.000694830240905634
-0.0505785896012607,0.0811386255542907,-0.0356103835678994,-0.00359017414240089
-0.0300205496604369,0.0310189256984036,-0.0268129567185399,-0.00506320076567534
-0.0100204982596975,-0.0146916976236355,-0.0138972029422086,-0.0044980074700181
-0.00615207791826095,-0.0378860194083841,-0.00477007781693041,-0.00237198068674464
-0.0087602148397369,-0.0487228102019346,-0.000148679805057495,0.000161549063239379
-0.00332971186859687,-0.0592063307854388,0.00286663719552238,0.00223182555172339
0.00839000591885272,-0.0662016994212485,0.0041713639622225,0.00357782344857255
0.0165594516667096,-0.0611638537130611,0.0034383989016222,0.00364714472495177
0.0161257884443036,-0.0396112715590067,0.0031466482981838,0.00207017976892864
0.00968484070869004,-0.00893323079112081,0.00263297104669582,-0.000253235248291508
0.00265919307963999,0.0138741376317564,-0.00133157995198231,-0.00218086156657185
-0.00208662497883504,0.0255549145389916,-0.00694838526104524,-0.00322071354014353
-0.00527956592725678,0.0305082835384538,-0.0102913057936607,-0.00336689639018833
-0.010705137333814,0.0234672732343188,-0.00976769154818072,-0.00311723521486181
-0.0228903988022669,0.00754178542939135,-0.0078376287738367,-0.00274048757332052
-0.0363155780428384,0.00144610896558856,-0.00856408496129107,-0.00229449521445284
-0.0365836065984775,0.010852345231644,-0.0130430484780175,-0.00209858739849624
-0.0242267286337453,0.0166084792306574,-0.0170042896753742,-0.00220073416193081
-0.0116427282028615,0.00549109820876589,-0.0144161933675559,-0.0021833439470123
-0.00126898470189581,-0.0118872721169298,-0.00787096542148232,-0.00140687151347804
0.00900495187650491,-0.0237226385409079,-0.00241765617606435,0.000256571353141599
0.0143047088634589,-0.0265577344633069,0.00167517842501363,0.0018823750195956
0.00826085590898131,-0.0158605053583516,0.00125490716489082,0.00277398929442752
-0.00457767186445452,0.00468422147949666,-0.00245982038563409,0.00286211299808147
-0.0123107346725726,0.0248408918954709,-0.00384538008047627,0.00200019403053032
-0.0118148041670531,0.0368329334788223,-0.0042084256031232,0.000473397738752042
-0.0106860660084696,0.0328594308289704,-0.00437869770459962,-0.00121946031007677
-0.0142835369659819,0.0183243050493259,-0.00395046891908452,-0.00232601387323468
-0.0209121090671321,0.010129173250608,-0.00501895869991619,-0.00194130323727971
-0.0229444048709578,0.0158920994429824,-0.00953073473773041,-0.00060324895967861
-0.0157532603896323,0.0235013587198045,-0.0141135733373905,0.000369794324289733
-0.0067294076396143,0.0184684633049885,-0.0119227945171908,0.000511704027282449
-0.00403489453431689,0.00951987448684416,-0.0066552665373486,0.000160422966342886
-0.0071172920916511,0.0111740492214163,-0.00693761240909701,-9.84111076934524e-05
-0.0110554620965538,0.0160563688309084,-0.00834985670215206,-0.000228446580657418
-0.0119387739201595,0.011682431571555,-0.00534958226964992,-0.000252301373841792
-0.010231402795813,0.00353101449974227,-0.00293354341849263,0.000133709205073659
-0.00851077136196999,-0.00380510780963988,-0.00255437747293951,0.00045357146183321
-0.00902782147750204,-0.0142385570589445,-0.00155328797398074,9.07851161505103e-06
-0.0119695311713974,-0.0300794678867272,0.00264720548396347,-0.000918656664952626
-0.0155050468948066,-0.0554857103222545,0.013342546003514,-0.00130622932165696
-0.0169257695904527,-0.0903679596926623,0.0274948121496715,-0.000532467236222059
-0.0128464736804,-0.100567572704047,0.0330569661590379,0.000553274389037647
-0.0135228225795412,-0.0414080930415283,0.0147044533433715,-2.94579021571664e-05
-0.0291748714602256,0.0529734241839643,-0.0195790681597423,-0.00345015430010281
-0.0392725499825873,0.095181245659344,-0.0383906623124866,-0.00767879118238024
-0.0242102467430011,0.0741781444360072,-0.0338537068121977,-0.00889787668434508
0.00202005846367219,0.0445054498184328,-0.0183290663743502,-0.0060904145226031
0.0198731766048578,0.0213215206898156,0.00113778877811045,-0.00132330095781494
0.0243878893983228,0.00507281458710319,0.0136605290410073,0.00364291282797272
0.0197490758290532,0.00125128847630998,0.0130214570821056,0.00760713491135013
0.0132177451650446,-0.012332625133498,0.00996419927360809,0.00893744324454814
0.00780189655130939,-0.0369358025598285,0.0148052763228431,0.00722991016931005
0.00305664818680636,-0.0483339317050558,0.0198235881837602,0.00382649702380854
-0.00146450399108667,-0.0401855223641419,0.0140955024634436,0.000176791147638142
-0.00762273103848206,-0.0239146198171674,0.00444383436143186,-0.00272371988337693
-0.013871957800427,-0.0150672842468005,0.00306984446225967,-0.0042787958901633
-0.0149284851325947,-0.0162684589991811,0.0082979833585583,-0.00470677494932078
-0.0104760179307943,-0.0201188418257802,0.00996982672719502,-0.00424330263199809
-0.00653712199888471,-0.0239288935797215,0.00647912161295839,-0.00247734164301591
-0.00465628069895465,-0.0295675078830002,0.00635471675273708,0.000530962484833343
-0.00102462642578194,-0.0378500385375575,0.0128227515012247,0.00331820621757671
0.00161252001338551,-0.041805882051632,0.0195767537613534,0.00383867795416511
0.00107764175851725,-0.0301181662970123,0.021124097187093,0.00203180633732048
0.000919156330747161,-0.00385937606368513,0.014684944879822,-3.7518271889035e-05
0.00374838114943148,0.0130145318585307,0.00552787129676534,-0.000848159540902466
0.00663714148807361,0.00788248062410802,0.00272438563462543,-0.000156302714520784
0.00556184061033733,0.0152442775421947,-0.000364912512800797,0.00136796532188012
0.00214417612710052,0.0578276936011334,-0.00913254643787536,0.00235545498763767
-0.000763113731095364,0.0880406834657683,-0.0092724147594634,0.00189776978790695
-0.00115216931170528,0.0604224998400175,0.00650233705728203,0.000609128345262926
0.000578002537589234,0.00670264815678656,0.0251190432224278,-5.35872807241214e-05
0.00144420957686308,-0.0260572988483304,0.0346017494936284,0.000231036568612558
0.00218235431334061,-0.0355134096968293,0.033789796721114,0.000581622786494959
0.00402957722748694,-0.0333301211775832,0.0271137896097285,0.000578420907550684
0.00410964145374729,-0.0239271230524351,0.0191555052467734,0.00039648382100442
0.00377760582651722,-0.0133024376959381,0.0129672577760122,0.000128112506166966
0.00779407723106946,-0.00541000063822698,0.0109986760790521,8.80755429215968e-05
0.0198212999044534,0.000395595517423134,0.0117878028452781,0.000547819795102312
0.0347644197006442,0.00343641002107586,0.0127160262746006,0.00103714209598487
0.0356719757503083,0.00544753502270004,0.0143228602161568,0.00132743906479741
0.0211641294100994,0.00818643383405701,0.0167246386538831,0.0017597382379916
0.00746858238540331,0.00962245665389199,0.0193103954244315,0.00234701255788802
0.00174010243069804,0.0106432991479909,0.0214735538831026,0.00292945670963186
0.00151153861590482,0.0121082158342535,0.021858590560688,0.00325934009344361
0.00299189537791601,0.0113484588492149,0.0215780591228316,0.00299838427640775
0.00624718430077149,0.00891270619324045,0.0228641013500631,0.0022144095322914
0.0108041110371292,0.00756609397374505,0.0249054946207947,0.00123336368351335
0.00858666249628904,0.00774484375579007,0.0245137937617387,0.000265763326167009
0.000992817164998964,0.00875880264736279,0.0207271885394092,-0.000398101127374687
0.000756937398645647,0.0114198250062829,0.015476383397602,-0.000673314986252234
0.00684543696589371,0.0138042471932846,0.0122914744456581,-0.00100411499779469
0.0103317957914492,0.012357984207808,0.0137189613041752,-0.00157260551240205
0.011840501453705,0.00850974721626312,0.0156392974547178,-0.00195213172036365
0.0140276727814423,0.00551359410971878,0.014189228876172,-0.00173880200087104
0.0166699241066945,0.0040965966649068,0.0127152316041648,-0.00102425528845125
0.0184861938356101,0.00474862436790812,0.0125285788461295,-0.000303032878184065
0.016212138007651,0.00649098351061075,0.0114643670365219,0.000169844297112932
0.0105984326703616,0.00541088548907983,0.011823572764482,0.00050261716934872
0.00945056168373949,0.00119161796993467,0.0151834469306071,0.000679961698840545
0.013423958668,-0.00278238833154233,0.0182223019585096,0.000554889508433942
0.0137859580390598,-0.00321614882814847,0.0202860483698175,0.000270961872513508
0.0108945616583879,-0.000621868704383272,0.0245072348226244,0.000463967205195114
0.0100855080789784,0.000468106128594577,0.0289678400268389,0.00129095412680217
0.0101485686310338,-0.00119759508295579,0.0275157517970682,0.00189313265946561
0.0103498957859441,-0.00652552769948989,0.0231070119239776,0.00162001053914473
0.010224013219229,-0.0116215819471333,0.0210428682394981,0.000756960940819604
0.00933254537377671,-0.00293952362513038,0.0183632284086941,-0.000140658786359479
0.00998814921801488,0.0127959937467186,0.0160309740863127,-0.000917495822887188
0.011421168431029,0.0198551335138508,0.0140495747159249,-0.00166598070495369
0.012611357330694,0.0199714042195366,0.011405217136831,-0.00216859300784809
0.0166170931547166,0.0152228711149193,0.0130290046912204,-0.00220981905903908
0.0199122531166286,0.00465214552386121,0.0177004189324942,-0.00174581823401028
0.0170095954109945,-0.0092896628789495,0.0193017549440056,-0.000501929752906757
0.0120113622544732,-0.0185496572115004,0.0138927931205601,0.000954543392589567
0.00984546310865842,-0.0166868630721315,0.00513144179560702,0.00129224887022926
0.00935291843404139,-0.00686647075812109,-0.00020516240784289,0.000443327733143509
0.00806714772882188,-0.000148486120722021,-0.000631757624671015,-0.000432587830185444
0.00818893446850071,-0.00338325655843241,0.00237450940185099,-0.000547174859564523
0.0116439412986839,-0.00507757562372856,0.00623243963409234,5.41066084482225e-05
0.0147989892848166,0.00305800277277892,0.00917500376424728,0.0010340278543427
0.0158451450145877,0.0101477332228082,0.0104660925894643,0.00174009962982638
0.015415190167432,0.00735308954259889,0.0101824306354651,0.00176349895525972
0.0145761570183143,-0.00339376652334395,0.00950884510662481,0.00181335821042531
0.0161516511082062,-0.0101832848815834,0.0102305007167583,0.00245957726750293
0.0162578693372089,-0.00592414684441727,0.0130809358715417,0.00334201397808693
0.0103417160126722,-0.00067738531314928,0.0159239089163749,0.00375498342780756
0.00379305420807399,-0.00063671516914602,0.0152385374236249,0.0030910609512596
-0.00023337352201293,0.000635364018752992,0.0121864282506748,0.00173422775070118
-0.00381780366972131,0.00674845441874434,0.0105914459477025,0.000662720237151983
-0.00709226989765457,0.0125001818639079,0.009338772291901,0.000125618291628281
-0.00839124656361997,0.00821104506951623,0.00823925215488796,-3.37067281411009e-05
-0.00628525887022499,-0.00776493702922786,0.0105799395317704,0.000146598981229091
-0.00349973721259576,-0.0200605508142904,0.0134028263745305,0.000448211584130875
-0.00337674571031472,-0.0144486872917017,0.00775298715592087,0.000507809139027799
-0.00252677508762623,0.000313885660254393,-0.00440867040537956,5.42205264368989e-05
0.00559956138387892,0.00461205902852027,-0.00951575904534985,-0.000861577834949971
0.0181235764628449,-0.0023858930111418,-0.00617530374698443,-0.00146543006851989
0.0236695156565128,-0.00693359838878071,-0.0037456867388409,-0.00091510610848876
0.0194681489238703,-0.00678051237470531,-0.0035868642736431,0.000544722210376893
0.0138884972915097,-0.0145065651721314,-0.000843652744544393,0.00202095521719447
0.0109703024493076,-0.0341974177762713,0.00644946476913213,0.00309928798600108
0.00658685413385721,-0.0502383683098146,0.0102225687397702,0.00388682408398536
-0.00180509290681792,-0.04476208941941,0.00165836182299806,0.00425897824352503
-0.0104690916702764,-0.00355755232122035,-0.0142596949822109,0.00379393284767962
-0.0146670039465007,0.0615168269117614,-0.0254009396363294,0.00234448527932192
-0.0114043322257466,0.0954397769138595,-0.0247869721834315,0.00017158820694407
-0.00226132576883524,0.0666498519008215,-0.0158016067877231,-0.00197069696799885
0.00512234489841031,0.0112608437917907,-0.00731390871466675,-0.00303314181866994
0.00787491160926136,-0.0252268769190847,-0.00202033120448626,-0.00273191433637874
0.00897404058200255,-0.0390479499523959,0.00315884059126447,-0.00156424993448746
0.0104051342306159,-0.0431481729201992,0.0074758014689149,-9.13909818573227e-05
0.0118468335326527,-0.0376722149828408,0.00655063029431697,0.00101894125461592
0.00910403385277305,-0.0200522002345598,0.000764531147301157,0.00124021963022165
-0.000490663359151336,-0.00212654112554606,-0.00399066992531001,0.000501290089204482
-0.0137418668932785,-0.000434281735382985,-0.0052205531411005,-0.000602569256911975
-0.0282353756908849,-0.0130380179309184,-0.00935891621604738,-0.00130926049807983
-0.0430152604912867,-0.0241057568562556,-0.0203881530618006,-0.00183518761884409
-0.0513136510975495,-0.0227265823255584,-0.0296094791597127,-0.00240928128539679
-0.0449026176046959,-0.000384194035190771,-0.033474660266929,-0.00193100696297026
-0.0332342814866644,0.0495031420834016,-0.0376796847095143,0.000442227659432953
-0.0285768597503863,0.0933837043195269,-0.038988318776011,0.00330654607871916
-0.0170166848934782,0.0871681325389629,-0.0306078524874286,0.00411517323847273
0.0121311427860286,0.0502044351168083,-0.016525862982479,0.00201561751392541
0.0402500705739071,0.0162321913955285,-0.00460331163214484,-0.0013290934449336
0.0501786130361763,-0.0132559080007552,0.00268460366987902,-0.00352137503270311
0.0488403223897349,-0.0354112078629248,0.0055050223009248,-0.00355126815093443
0.0439438470227816,-0.0440881853175702,0.00195658231972349,-0.00199018287059363
0.0306962693721406,-0.0396506527533644,-0.00628682602328677,-5.33305581558231e-05
0.00632760725629094,-0.0192866104158018,-0.0168922785706598,0.0012420689325321
-0.0229425549097156,0.0169784711360371,-0.030862336098987,0.00150650435873448
-0.0478698280324227,0.0463206233385983,-0.0392236105585072,0.000666804555427596
-0.0677288706558853,0.0481507811581981,-0.0351760654668224,-0.000758139508332812
-0.0794530374157404,0.0377699454058052,-0.0269043486577205,-0.00164182375265125
-0.077753979641293,0.0316436480975814,-0.0215428820549186,-0.00164018178716808
-0.0728220409131035,0.0249925542589018,-0.0215853248600634,-0.00165597138316328
-0.0693172034506046,0.0185842696776704,-0.0265764202132981,-0.00250728359693963
-0.0528776596820728,0.00448508535661301,-0.0283537210329162,-0.00385430679383646
-0.0236328173439399,-0.0171473504064391,-0.0283333594003904,-0.00466683064267022
-0.0009971726622197,-0.0219637758301934,-0.0336324326473434,-0.00434652491728851
0.0134724671371532,-0.0215359714735185,-0.0315681080292434,-0.00301771143282792
0.0358448431177118,-0.0304596967935411,-0.0153059377749953,-0.00106780026661882
0.060640926861522,-0.0376670853679152,0.0020001285710464,0.00112665019244309
0.0654086182987422,-0.0529259644185941,0.0170168196431159,0.00289765987622223
0.053778416499848,-0.0732211358296007,0.0290247333366752,0.00378877449114883
0.0376508209418573,-0.0422999125243077,0.0171534043174675,0.00389956790090189
0.0119667642588447,0.0286685975000724,-0.0136076574947798,0.00231962034958968
-0.0217766554098415,0.0488134036619952,-0.0238968754560221,-0.00187106512584753
-0.0478092111074262,0.0269206349867647,-0.0155376106581672,-0.00631989574308306
-0.0558987591580938,0.00680490081632405,-0.00863739777289059,-0.00675079900030756
-0.0516229538413458,-0.0280367574156423,0.0028248397469261,-0.00145806450445955
-0.0467003989835195,-0.0710903606832407,0.0171382810536376,0.00655825979428841
-0.0464068942617771,-0.0965836830522663,0.0197985461881951,0.0116781619652047
-0.0406675275950669,-0.0963766315308359,0.00316916436009812,0.0101575171265839
-0.0239864845419806,-0.0557220400862124,-0.0255506768220343,0.00254628086418639
-0.00966832027952419,0.0371475600791634,-0.0545996607695118,-0.00716088577016025
-0.00721247818541791,0.112971470763622,-0.066913218220254,-0.0138981929072548
-0.0121578153105437,0.0888109436863124,-0.0472301941262581,-0.0142413202425027
-0.0135581076394309,0.0219857746521566,-0.016946739197023,-0.00828746859632753
-0.0018527941889033,0.00477348374298577,-0.0027867105962298,-1.59073899021304e-05
0.0164182555769471,0.0157035389783868,0.00274004349328614,0.005387238710084
0.0223901993288166,0.000803005419204333,0.00782205660689117,0.0060902293426724
0.00984109378045189,-0.0281414446579298,0.00719553659874186,0.00369840834718765
-0.00611354269958677,-0.0365753053706447,0.00298680659366737,0.000122591553261223
-0.0100620793496386,-0.02643956889138,0.00341878149694025,-0.00300512414417605
-0.00676367021626343,-0.0141999849623366,0.00752358446397918,-0.00401983373664555
-0.00627409092818952,0.000806177931518874,0.00839823112278191,-0.00294496353494036
-0.00863714584895104,0.0237913382096552,0.00361535382430276,-0.00158273558293496
-0.00857632911203152,0.0399973290988434,-0.00515970471768529,-0.00103249507345445
-0.00082240987848848,0.022978117007809,-0.0102153250828601,-0.00124665015611473
0.0118012314506104,-0.0186436029283378,-0.00477668867271565,-0.0015952022980545
0.0243502259666095,-0.0455276550922808,0.00661106788984608,-0.00147012776975161
0.0355350916390969,-0.0476254422572855,0.0142836792555886,-0.000874931453313191
0.0347720736910155,-0.0391098695000675,0.0140096858127441,-7.2087610289092e-05
0.0180371767321896,-0.0181595678641201,0.0072397475882785,0.000563017492770167
0.00149448399881404,0.0219811799330897,-0.00528849147177058,0.000518953810367614
-0.00460413997022062,0.0525932467711582,-0.01783725667417,-0.000764721003634487
-0.00569571487724869,0.0476164155796608,-0.020572996755929,-0.002817974141164
-0.00483777506285703,0.0320823266282709,-0.0115494142249947,-0.0035877743773934
-0.00189194308194214,0.0251807066420595,0.00216553219971794,-0.00169129679763923
0.00044010920683207,0.0230150746357774,0.00795701379862045,0.00152207644826374
0.000662729904565729,0.0265465236369542,0.00263828853925158,0.00326299146027143
0.00325343041093607,0.0235124123253769,0.000961154751331524,0.00229762485594186
0.0101721001691554,0.000435380937247019,0.0110223221176307,-0.000305699622338029
0.0113289758979963,-0.0225657627893082,0.0200972117017445,-0.0024470444059875
0.00779912590409575,-0.0152966903672939,0.0151786769866966,-0.00298546921920739
0.00700548905654284,0.0270871806108977,-0.00499788475385272,-0.00298875199648105
0.00448725830437739,0.0709962468041298,-0.0243609828255073,-0.00365963526379611
0.000884367938786299,0.0695420539829774,-0.0186578405781387,-0.00393706074977837
0.00297369805260901,0.030814514528798,0.00506211285188336,-0.00149129176659507
0.0122043733455433,0.00680658064169324,0.0212245200610355,0.00337990324680159
0.0237108903021088,0.00991081312292694,0.0256599790634271,0.00682294829444628
0.0310600729718278,0.0141842422483269,0.0226685256920774,0.00601950276017812
0.0299655287286157,0.010803122360804,0.015225447048392,0.00187436706246339
0.0208230848171854,0.00871549107948292,0.00850229758039557,-0.00262442041876309
0.0137173234104653,0.00925574916777552,0.00583336765350951,-0.00522194691467825
0.0166181539401951,0.00368597763947812,0.00827837837306569,-0.00591141369888313
0.0221828069433332,-0.00907162797579163,0.0133395315024359,-0.00572755099739492
0.0211566403677826,-0.0229133844739933,0.0188918374495334,-0.00489391480263698
0.0144607713790836,-0.0381150305604678,0.0253084292988397,-0.00317634276165034
0.00849221780297713,-0.0506729218898781,0.0284174322878365,-0.00114415706590833
0.00758982669880818,-0.035651521853112,0.0192294129091509,0.000496501191387208
0.0109477413665054,0.00794678361630544,0.00390388890200144,0.00145956350661728
0.0164965625937899,0.0337950067973539,0.00122571398190229,0.00204646420438943
0.0212240309159562,0.0221387198509316,0.0129299618791686,0.0032837284717956
0.0218087387089089,0.00060617335852662,0.0252253622488267,0.00512081633637171
0.0213793194028257,-0.00792347694674119,0.029830090662345,0.00566644203813095
0.022126747854803,-0.00582635299252853,0.0276561987326559,0.0039967245575918
0.022332337860154,-0.0047881440323439,0.0230504219473863,0.00171236179593722
0.0222775944137347,-0.00869766919414629,0.0220878270835154,0.000445303554682656
0.0195289925801537,-0.0121833987700695,0.0253694839607803,0.000323757398205717
0.0131550898906232,-0.0115414394849943,0.0261700632899052,0.000740418826095891
0.00684654081117695,-0.00788678421820512,0.023094468429612,0.000821359844186826
0.00404924532646463,-0.00309674487241142,0.0217199221609169,-4.20896073755899e-05
0.00438659864164983,0.000752122514580155,0.0243369138108661,-0.00155811193997857
-0.000655979073751284,0.00677099666696805,0.0251375958596843,-0.00252302020868781
-0.0142751877187404,0.0174103670021622,0.019027469650427,-0.00182915709253068
-0.0211858253445748,0.0288195396118828,0.0104611563739794,4.76287589126479e-05
-0.0100758536402744,0.0364475739168151,0.00884347411063928,0.0011330295930672
0.0108700345580684,0.028530851000523,0.020255644580695,0.00035096886985661
0.0315527327002055,0.00896271863965734,0.0348386938796707,-0.00111765981088718
0.0445769087142282,-0.00280338161556388,0.0382858619237203,-0.00189252366949139
0.0447435106230871,-0.0123641632198422,0.036918064243173,-0.00183722439888697
0.0397459724450882,-0.0303452653095673,0.0403616846176091,-0.000745235095242461
0.0366145844661505,-0.0521653369949185,0.0472112724047895,0.00140077269930361
0.0311206695968854,-0.0663195064531806,0.0503029805143572,0.00312618823521467
0.0286355604948969,-0.066737288686982,0.0427456698248415,0.00282404749284921
