-0.0420594875561149,0.061485169194539,0.0076681977449759,0.017440041931029
-0.00785359408230966,0.0540969998711022,0.00999934039342665,-0.0341356389527098
0.021434277522906,0.0157872305523625,0.00911759438109599,-0.0631167475619502
0.0415943598527532,-0.0140841718542013,0.00622809710684175,-0.0685937292035613
0.0638218712821866,-0.0261679104056937,0.00271255607816618,-0.0601223528006206
0.0958501274804653,-0.0352578703660816,-7.09204982468833e-05,-0.0474175193548932
0.112647033972412,-0.0463920390196838,-0.000737309865436894,-0.03955290757443
0.0953187970855725,-0.0466773742899264,-0.000475465567026209,-0.0423077065961863
0.0676672843992984,-0.027479838855301,0.000406771485968439,-0.0567827099097099
0.0568133548760998,-0.00890462021268897,0.000655331232471577,-0.0741915360416958
0.0663646617379667,-0.00438968158826723,-0.00130598782732898,-0.0767996920509855
0.081253462755261,0.00910349759700588,-0.00244265278880673,-0.0575916835322242
0.0832552767386029,0.033211135192202,-0.00161430429908459,-0.028351036664976
0.0742636695453701,0.0359102787005354,-0.000756128478975035,0.00598370506400475
0.068852009695667,0.0141279471298042,-0.000265611315337131,0.0618755202352166
0.0726556302660886,-0.00443584888719786,0.000838528792541136,0.136784050124592
0.0872401409061767,-0.0124180263587499,0.00144342637587565,0.1826241195254
0.107245621789385,-0.0203578573808528,0.00187089642791989,0.158225464521617
0.113272374554578,-0.0173045823211349,0.00370483055691623,0.0791593770977516
0.092705689216194,-0.0118315508694107,0.00436300772013983,-0.0126604263841924
0.0575325490701973,-0.0525689513843057,0.00310684312138276,-0.0931457992142305
0.024639767389935,-0.110762395437039,0.000483791240339932,-0.147672859984844
-0.0111181175252468,-0.102198693147725,-0.00624597409004119,-0.158386275294278
-0.0548072719810922,-0.0404240238936005,-0.0164611755599249,-0.12462889996764
-0.0856485213618449,0.00872134341649435,-0.0221454031708771,-0.0717033156900321
-0.0836647061997734,0.0292002983016185,-0.0156639525600025,-0.0238771020247532
-0.0536247741753425,0.0329145280925635,-0.000650394893613016,0.0150465650700263
-0.0141498816049656,0.0272989788369262,0.0111768569674622,0.0483635878149788
0.0173579085647198,0.0197249479973524,0.013516904357878,0.0734097801699467
0.0336052483642095,0.0157405489084876,0.0101986143772558,0.0883409340565052
0.0356215990604912,0.0130540996236175,0.0069739640802631,0.0907274611077252
0.0308639238198724,0.0103443020722962,0.00529321570169235,0.072436688643355
0.0274509675380272,0.0122864116191575,0.0027288589054525,0.0355824807797509
0.0227875701169344,0.0217805795859483,-0.00274886222358122,-6.88572011880162e-05
0.0158008910110994,0.0355943826387616,-0.00705160329379547,-0.0170226079763989
0.0126311463290074,0.0436103143854809,-0.00743654372692279,-0.014891642918804
0.0114201230417673,0.040538593000868,-0.00655811475711357,-0.00191881448908994
0.0108164244208143,0.0382064901864008,-0.00398399045577931,0.0147809203577258
0.0182059324873668,0.0407136292695244,0.00174011945746695,0.0255857261555226
0.0330191066221967,0.038525253615932,0.00711763189883305,0.0195240293732184
0.0400792272693647,0.0326215780334284,0.00840423503962015,-0.00236242015898528
0.0286780782734695,0.0239798746432312,0.00535440743864263,-0.0234326937695295
0.0141031371893197,0.010294968507778,0.00103410509309234,-0.0271618057363623
0.0108359958705515,-0.00485496201369139,-0.00232962010088761,-0.0113887002322217
0.0129200110782528,-0.0260471080350627,-0.00558466442313131,0.0160945408443192
0.0214529351722664,-0.0514825350019813,-0.00653025468033932,0.0431773998192444
0.0333002850979098,-0.0699304801426653,-0.00591713976962096,0.0518926073667734
0.0343191266379584,-0.080634343400884,-0.00750769837537829,0.0341443589175272
0.022771487051635,-0.0724341900729646,-0.00818388985076159,0.00559893049550433
0.00222429125373111,-0.0399363270251292,-0.00735426475837797,-0.0106979221908531
-0.0217640352388523,-0.00808054974524242,-0.00880278519574393,-0.00492052290385264
-0.0459891275024447,0.0052084021863095,-0.0100980182783013,0.0138478876920062
-0.0808751023670514,0.0049166415653213,-0.00872704432662822,0.0273978578783236
-0.127047569006342,0.0021265389530277,-0.00757392025293308,0.0239418497698177
-0.169401196839995,0.00683755372334115,-0.00748833539457829,0.00470345642843522
-0.191237046995058,0.0189506213182132,-0.00553301423709277,-0.0176427172134407
-0.1709064827344,0.0254228139513179,-0.00263486011695155,-0.0297791452598672
-0.110028432589313,0.0199103967636993,-0.0012509888415551,-0.0299629021481913
-0.0410317576688606,0.00309038868764749,-0.000216706560936924,-0.0264623257920625
0.0112620525490111,-0.0224367549986696,0.0002647636041534,-0.0269828107400248
0.0462712742100176,-0.0369350728426726,0.000957466386174543,-0.0316175213517036
0.0658087929400016,-0.0300054632664946,0.00213398772586493,-0.0348907554641151
0.0575361515474742,-0.0175293726669507,0.00124420635330125,-0.0321745852137095
0.0227587973348493,-0.00525953194859676,-0.00237740712833116,-0.0221211245478264
-0.0104555302185345,0.0266564549400246,-0.00569231945132852,-0.00458941106893351
-0.023325726887448,0.0810831963729731,-0.00396312988518682,0.0175618173643444
-0.0288384945429419,0.105361003224134,0.000396791643369733,0.0315242914949544
-0.0463791028441471,0.0695307469257641,0.00130335355071299,0.0213086577030004
-0.0770102699000124,0.0166186918055254,-0.000792947824446667,-0.0102087767241113
-0.104308193302226,-0.0166176716553745,-0.00358056401849893,-0.0417396976699206
-0.112752073426321,-0.0344634832276172,-0.00681815104116283,-0.0592632248490749
-0.099366689363946,-0.0474812913627581,-0.00982551011457278,-0.0630351387287327
-0.0748577161571882,-0.0470943949499723,-0.0114310087933935,-0.0582160593405568
-0.0581057887228071,-0.0366321912381247,-0.0111636703302997,-0.0501470289302422
-0.0472254356613963,-0.0456245757261409,-0.00866378476697724,-0.0355557890607323
-0.0232952663029418,-0.059720544077784,-0.00379550797443399,-0.0060152645257879
0.000922817201714426,-0.0379577748234331,-0.00012555638686881,0.0312817738350953
-0.00378894974937573,0.00340655108461338,0.000558634546746307,0.056336245927478
-0.027816000555791,0.026905467687604,0.00167574722950233,0.0588074662658179
-0.041565346709857,0.0328194493018035,0.00432705882958793,0.0474340499291174
-0.0409108318925941,0.0336360199170273,0.00408643245173374,0.0422571079611153
-0.041364638419346,0.0307545427622085,-0.00177579988956228,0.0548812816570425
-0.0494551900141889,0.0263151985598413,-0.00748530259420821,0.0712033249439184
-0.0579136273377653,0.0239122265604539,-0.00856486667766812,0.0629373110104698
-0.0591211736466456,0.0247384790974026,-0.00637030795849457,0.0213908642277469
-0.0551090898448936,0.0278384940424881,-0.00305568760161055,-0.0364084152253769
-0.0527216816311166,0.0302724484697725,-0.000449737279761797,-0.0859081918218415
-0.0507614380493196,0.0329719099898791,0.00198928583933101,-0.108555131163388
-0.0434206792119578,0.0351350268483946,0.00440103402092017,-0.106063811886956
-0.0338464659995256,0.0302866025576705,0.00327834222931777,-0.0953082286232454
-0.0294133359088183,0.0215934793261678,-0.00178280298881531,-0.0842373231198818
-0.0264319118374101,0.0145011731951433,-0.0056589473459981,-0.0692248281767565
-0.0200789753669804,0.00575452959918243,-0.0089454598349504,-0.0440829619433424
-0.0132414680731515,-0.0040148251263569,-0.014814021711227,-0.00280136764042961
-0.00933667316379602,-0.00985587473922863,-0.0175496666847709,0.0499357183158926
-0.0140942460062591,-0.00955707430597604,-0.0133378906335428,0.0967126458157387
-0.0243017434387921,-0.00230532018332713,-0.0065942382187344,0.122588279353189
-0.0289835376154671,0.00855322831836086,-0.000754800311227613,0.12396346718589
-0.0288071357097128,0.0139437205186413,0.00263712716773799,0.110067679772812
-0.0250276555115697,0.0124334047839656,0.00498377913007373,0.0956303575894928
-0.0157759371370377,0.0108293335004741,0.00807237064811706,0.0837277948619912
-0.0124715874110021,0.00984320210056087,0.00844257887420992,0.0660107365912938
-0.0227296209467552,0.00837436225626205,0.00590458985139339,0.0385106531845041
-0.0355575860691507,0.0127525148063486,0.00296296055050419,0.00593967995964517
-0.0430096128020481,0.0308441473343643,-0.000395766684995037,-0.0231519720646049
-0.0505557240423609,0.0718311558292084,-0.0023529233996212,-0.041430369055671
-0.0643806524169342,0.125266479966452,-0.00210895751822526,-0.046263663230726
-0.0775919272540667,0.157496014707216,-0.000307154190248712,-0.0395557861599963
-0.0879647946562772,0.176009487800446,0.0020577574875837,-0.028282746442673
-0.109030594895718,0.199845602433517,0.00298614141970646,-0.0191476937094887
-0.142655983940365,0.201413425650648,0.00121952143742468,-0.0104105942215487
-0.170017794483145,0.167929872140802,-0.00253145633950267,0.00292678418381549
-0.172599402031875,0.117165928244732,-0.00586327307272968,0.0187358398507781
-0.150337758852911,0.0736276341366577,-0.00675781242087949,0.0273090658364727
-0.117956237360423,0.0586368196314642,-0.0023011745963902,0.0226805331061139
-0.0863483268639316,0.0484559310860308,0.00344680297682025,0.00998663749076263
-0.0484012610161264,0.00306278558033349,0.00410148178296189,-0.00190273924183544
0.0129893618938086,-0.0900483707093636,0.00423421897744308,-0.00806572549876949
0.101317328497335,-0.222639715036799,0.00621564051309162,-0.00733771345706394
0.18299073269159,-0.334117948665073,0.00467184062156824,-0.0044062443152581
0.210512584733854,-0.332420796689047,-0.00217111360833349,-0.00972491455018891
0.181354378456114,-0.212070351174477,-0.010107590828298,-0.0259413183491641
0.133940297746261,-0.0420684851748462,-0.0171757751980257,-0.0398634471531883
0.0769183839148768,0.121166309919842,-0.0234795960799341,-0.0350643938778321
-0.0103683706492934,0.209601972698586,-0.0232955892698044,-0.0130509914158073
-0.110691984101,0.197383518153555,-0.0146911099235725,0.00022036928261121
-0.17013511610347,0.14263975145931,-0.00517660060865509,-0.0187434714179193
-0.163480334989903,0.0908438743498801,0.000470986269448609,-0.0607149125267954
-0.122175516350991,0.0527591943976277,0.00109881147343532,-0.0933956055315973
-0.0824548138360156,0.0294844314346988,-0.00389771041818237,-0.0940371468209912
-0.0556155084875105,0.0112804114834918,-0.0100720682773733,-0.0546281116511303
-0.0403111615209148,-0.0020334191008524,-0.0115553847423574,0.033006174531263
-0.0249935192050494,-0.00453783347249087,-0.00578327953635855,0.153871762355258
-0.00116984253659719,-0.0051248751315691,0.00269677244268545,0.243720143770371
0.025760153813327,-0.0138005405650439,0.00550387315968741,0.238656685658867
0.0457302900021598,-0.0299608734005191,0.0016601703042408,0.143754618181041
0.0553634161833995,-0.0513450828806109,-0.00629411690744837,0.0196273246755316
0.0610928348702949,-0.0732938296536371,-0.0134924775640699,-0.0818545981176522
0.0707859290387726,-0.0881956707788411,-0.0144144631713855,-0.143665197091832
0.0815315132833313,-0.0941278962313708,-0.0128196529413433,-0.172581666935566
0.0856161491243542,-0.0944065055239141,-0.0124400569425564,-0.182163726847224
0.0811687556684332,-0.0912019423570569,-0.011351156681525,-0.176003700853611
0.0729252671382887,-0.0842280042098823,-0.0107138800745655,-0.150345227022259
0.0649118243557991,-0.0751104973539181,-0.0106379963611471,-0.10943425276464
0.0567166832179893,-0.0660836735958225,-0.00836168276451836,-0.0642553233879048
0.0518391335204066,-0.0578052361056185,-0.00492589306552031,-0.022504529165022
0.0523686379278561,-0.0506842407464794,-0.00373671658565348,0.0142184145683974
0.0512762409424282,-0.0465103934371892,-0.00607282761280974,0.0483077734147097
0.0429380336482608,-0.045504956680024,-0.0099393483821941,0.0813082587844806
0.0291069489332896,-0.0408236679347611,-0.0121431545206062,0.113004125942418
0.0139169048876469,-0.0296316765210486,-0.0111354432798314,0.139548495740183
0.000351917332135041,-0.0188363857408785,-0.00836363584826355,0.149641575513135
-0.0106537110069466,-0.0115105657789219,-0.00772449506544197,0.133899887620247
-0.016062774695358,-0.0177307506913324,-0.0106902404346469,0.0972942698639249
-0.0151535423121369,-0.0512088530466663,-0.0119630826647173,0.0542188097060319
-0.0154312737529644,-0.0835190052810403,-0.00874865030464756,0.0146372001962087
-0.0210353378750375,-0.0716075102152556,-0.00509296501081762,-0.0182621958643138
-0.0290899911145386,-0.027683536448461,-0.00220945332804933,-0.0440443246252826
-0.0362351988872014,0.00837002537846364,0.00138388964214514,-0.0659235335053461
-0.0314061548683987,0.020453650322642,0.00525029033554119,-0.0844847001568181
-0.00922656246477661,0.00306474863242781,0.00819869550267843,-0.0913837884207546
0.0154385115952252,-0.0397536639764583,0.00846943665344888,-0.0821036372792824
0.0362448263807542,-0.0789980543083834,0.00474750190332216,-0.063566280483943
0.0564051685297992,-0.07702882024124,0.00123656108774635,-0.0492572612866527
0.068076171317074,-0.0303267365434848,0.000508862329840862,-0.0508430952835092
0.0625311519317031,0.0129076220163939,-0.000804132824660353,-0.0590357247636937
0.0415766564628382,0.023565374331917,-0.000937507494108581,-0.0489877621100942
0.0148108720967613,0.0145966202813153,0.00145304937632458,-0.0124634863917573
-0.0153118493548046,-0.00216143892048173,0.00120626009951459,0.0439543500938173
-0.0506241150247083,-0.013721438198096,-0.00153367004295327,0.118359454113873
-0.0811119493227084,-0.00834954068536858,-0.00163148265650359,0.195292622136028
-0.091532633512057,0.0179514602754252,0.0016425890705122,0.233089138760781
-0.0723867181936794,0.0447686793242568,0.0056567317702242,0.200678403459669
-0.0344341782224881,0.0381869837906797,0.00661773504802154,0.110280149631346
-0.00539629690508335,0.00819652761369321,0.00430781526123569,0.0074076042789008
0.00257600212456847,-0.010550112640496,0.00178235771627917,-0.0621278932596813
0.00504486596237076,-0.0119802985958429,0.00026774418301207,-0.0843344672570161
0.0175297320330916,-0.00816410923244826,0.00285095328377922,-0.0869862019252518
0.0334389261074174,-0.00776905297164881,0.00905097130239042,-0.112494581772055
0.0390832832756871,-0.00920962337602524,0.0146731725621146,-0.170283260727391
0.0293102465769747,-0.00650154322193737,0.0188086863144377,-0.224950859340015
0.0115094804462712,-0.00602394651882603,0.0177663872556553,-0.230527523832824
0.000522050561877214,-0.0145766797736439,0.0104205103074204,-0.162029195650823
0.000202177978562007,-0.0250036669665718,0.0023276479116934,-0.0291659694185508
0.0037773761699398,-0.0298957749537585,-0.00312635574807559,0.133930202125173
0.0093232976909892,-0.0273026245175207,-0.00409541373830786,0.278763973827718
0.0165333569633594,-0.0211500944433586,-0.00106739470584808,0.339206995426908
0.0225590757343649,-0.0160761583213463,0.00151906660592698,0.278936219905889
0.0268769291526356,-0.0109149550985182,0.00169913761169744,0.141475483696687
0.0301810285578819,-0.00766141877910898,0.00230183974397128,0.00345309516906933
0.0331697569552815,-0.00638393282375387,0.00514774589156013,-0.0923625603457922
0.036172495913721,0.00230623419668979,0.00853258592036212,-0.142074836810401
0.0384787997212599,0.0185891613918128,0.011379353426984,-0.161049194896156
0.0379982713615898,0.0306764933939248,0.0123693290125594,-0.161635459034623
0.0348905786478276,0.0381167310880496,0.0127318082321857,-0.145029847356326
0.0320104873499335,0.0457431809140397,0.0145559831901854,-0.120039611621737
0.0259968481963366,0.0454413859344292,0.0121382985501649,-0.0936912953485137
0.0156146605702833,0.0360533377935694,0.00373716195232333,-0.0404285598119206
0.00858489207158736,0.0378914989937456,-0.0016458937524305,0.0590075883300847
0.00833975830959708,0.0538069122496546,-0.000892287882249956,0.157288130902369
0.0140730845614005,0.0625917110259672,-0.00166401979996288,0.181750546542813
0.0220005201737934,0.0639093030210865,-0.00240086634671118,0.127564707255153
0.0277929399545803,0.0734437330638032,0.00528208739936754,0.0638172743982676
0.0311801495319505,0.0870545340923399,0.0144705372741852,0.0440956940389161
0.0306876820329331,0.0879075340042598,0.0160623481332086,0.0531012246561404
0.0281393275100728,0.0752695967964675,0.0119289341483174,0.0521180990687175
0.0277393347869775,0.0579663846496552,0.00594696442654584,0.0305338048669246
0.024680976449714,0.0391585019535257,0.00136853322064544,0.00250982759647916
0.0116189129404608,0.0229904717997428,0.000496146507745506,-0.0124618401243255
-0.00337009599553884,0.0120756249851772,0.00186840289267625,-0.00924028636585127
-0.00448007001114362,0.00168627614022625,0.00284944763557122,-0.00801129997220922
0.00513694722256597,-0.0122990142108923,0.00452481160556167,-0.031655291786883
0.00446020222766698,-0.0267835384710392,0.00673645034036868,-0.0760902350314225
-0.012546948023172,-0.0356014911649369,0.00682941527155791,-0.113341941107559
-0.0202881155117537,-0.0327312685593934,0.00630655363138987,-0.117710756641058
0.00437308896268458,-0.0328966764534444,0.00423921852564429,-0.0888526647201827
0.0379152383543721,-0.0622177307426126,-0.00274925196586637,-0.0500928064808062
0.0421672480124353,-0.0841452948431189,-0.00767592902711414,-0.0198603070694961
0.0188859075674845,-0.0488495175145676,-0.00370762451348742,0.0016418115109236
-0.0104737168149772,0.00602200327417476,0.00258309560980785,0.0150596013892404
-0.0319738979900541,0.0281177949882048,0.00250592016921689,0.018574453101821
-0.0339587109092284,0.0228112622580599,-0.00103299124906964,0.019765546747372
-0.0183209694613533,0.0156892644951339,-0.000453489375861779,0.0199694420573194
-0.00193595701536328,0.0144907543219141,0.00235198411455627,0.00848430730994165
0.00788687881732152,0.0108121328188181,0.00254370293312996,-0.00639387301420474
0.0128196224413753,-0.00152863979822049,0.00127216739395408,0.00701730671841931
0.00816125254894498,-0.0195250379385708,6.40224304667072e-05,0.0686692598573945
-0.00260477025557377,-0.0329270351840283,-0.000695134121181734,0.154104979559813
0.000314509924843949,-0.0363231649628181,3.74977146844761e-05,0.202868026640965
0.0204275491035417,-0.0371338911312747,0.00221626388305003,0.172657159569672
0.0413636396182055,-0.0329162566356157,0.00494171401548375,0.0761213267084951
0.0500939431122739,-0.0210664179426799,0.00573970906724528,-0.0395002334875093
0.0383056765302762,-0.0180217031308197,0.00163581379304326,-0.130545078508052
0.00941676961335426,-0.0197835945192059,-0.00553410486818889,-0.172474153454297
-0.0211333845379182,-0.0140727185617451,-0.0113021786126359,-0.161425950561495
-0.0396980199010715,-0.0176340217324126,-0.0123752554195853,-0.116193252547499
-0.0444741394470549,-0.0357459980593235,-0.00727393941903883,-0.073221458443623
-0.0428183759852945,-0.0446924336010578,0.000947898099601463,-0.0596970934599666
-0.0401259045904018,-0.0341283032996007,0.00709181818822073,-0.0683887001601446
-0.0336787873020217,-0.0146049146351488,0.00847741170826215,-0.0739542362905192
-0.0163487185939017,-0.0118893372911378,0.0079383691340406,-0.0632951236479242
0.0101871036081307,-0.0460874919197346,0.00830802709835237,-0.0459231337653045
0.0414408522759775,-0.0871452414326411,0.00928080856476046,-0.0363144908914345
0.0703838328673147,-0.0927858511513563,0.0109300311604455,-0.0287852045850838
0.0812168069291778,-0.0683247084288123,0.0108222471995305,-0.00705562445638207
0.0755392303335587,-0.0448102877408136,0.00514892960399108,0.0407233920710786
0.0596689868264349,-0.0353108686429598,-0.00261233559127729,0.10969740498782
0.0287348775674233,-0.0306292714119347,-0.00500790582847748,0.158825801720434
0.00507321597280008,-0.0168037200149166,-0.00215381290823192,0.146483559331624
0.00994280947605733,0.00866010266926982,0.00209632914662644,0.0840518028798564
0.0208519447238545,0.0313949709347166,0.00495018150126981,0.0142085653190638
0.0142529751419041,0.0368805242131689,0.00620382091672192,-0.037662068770354
-0.00129795009143446,0.0278070487966617,0.00701839408146461,-0.0636918687877598
-0.00580792914821378,0.0193031046323906,0.00595649293527022,-0.0541886553412441
0.00432114415291393,0.0196677564307278,0.00380861984079178,-0.00841812331574248
0.0141034506275413,0.0240136147124792,0.00107352758049929,0.0458927707180032
0.0137685226085828,0.0263772969945686,-0.000293287988064825,0.0615032616425078
0.0136885262892979,0.028332239020932,0.00627843701317932,0.00489965950963896
0.0223167559553529,0.0330111330369149,0.0174754167712934,-0.101653713389876
0.0377224816822256,0.0366781912613497,0.0240407713485418,-0.18894604099582
0.0583589945098584,0.030599079734657,0.0248752352365807,-0.209374865069051
0.0797786628193201,0.00949992803917163,0.0213584594210473,-0.162860431833595
0.0935864047502325,-0.0192332975472967,0.0120500110157775,-0.0657935746246271
0.0858722801864105,-0.0423663962861208,-0.00177599496750041,0.0746235229210294
0.0540315104912374,-0.0499808436050845,-0.0122394553415068,0.235622658144354
0.0139893588321328,-0.0315013717785402,-0.0105278667022712,0.338464987047098
-0.0256856516537175,0.00973226467960077,0.000150027890088486,0.312746117587379
-0.0582078886308537,0.044242223971916,0.00712028911402932,0.187748759901438
-0.0622604928821951,0.0470078699382042,0.0061444417162879,0.0468918751022129
-0.0289136642898009,0.029836201713593,0.00362916448445735,-0.0575854045400861
0.0120891094853958,0.0165200519572649,0.00458880472646437,-0.112956927949966
0.0238871918555581,0.00934452723815715,0.00650443820189276,-0.127397082254338
0.00757484133604333,0.00245972309931628,0.00758017622036102,-0.117529264523878
-0.0122668272691699,-0.00145072601112657,0.00804891474226004,-0.0935101093042062
-0.0216167110063004,0.00229533376565513,0.00699535874281332,-0.0554200196254132
-0.0332693090540967,0.00504844731359451,0.00598903761667348,-0.00861419050687921
-0.0641102138304951,-0.00100033348131815,0.00440109703417345,0.0316798951851904
-0.0974891973893395,0.00372619032507859,0.00327318978185706,0.0547382921074781
-0.110142255358848,0.0281924110485751,0.00560739431874872,0.0610307055552534
-0.0992471080408029,0.0454747616579441,0.0084714280372745,0.0558562947882716
-0.0686189262338663,0.0447439100103264,0.0106127240425226,0.0434400955466447
-0.0266056625753779,0.0394852375074274,0.0112714930348882,0.0295485433779117
0.0135367090056338,0.0261079614276353,0.00912582300329178,0.0202613461423701
0.0313211817843183,-0.0154618756105487,0.00663578713668728,0.0136883730872584
0.0210228779732224,-0.0666068507067489,0.00490275300271968,0.00604563397925004
0.00948746723588279,-0.0694741807241473,0.00274845192208526,0.00396483633005948
0.00395485376039124,-0.0198375970964974,-0.00180663627160384,0.0043309939060936
-0.0114346941366851,0.0418866903783905,-0.00605031130907968,-0.0205794730596588
-0.0197892621581682,0.117124698858831,-0.00338521629157524,-0.0670723740658086
0.00932050033209721,0.179698047387992,0.00354690656099259,-0.0802372412848597
0.0639255992780428,0.127392843174975,0.00465907805847962,-0.0352759051717455
0.105671791047277,-0.0537162998521383,-0.00197336617040242,0.040426878365788
0.100710614481454,-0.220839759803777,-0.00782105526743623,0.12269287353358
0.0377608646419116,-0.24025498237552,-0.00844600653001031,0.18900009271062
-0.0441290867630189,-0.121520037700181,-0.00755936044807238,0.200113333297618
-0.102587383880649,0.0173514193120707,-0.00666237457149004,0.135156985401628
-0.126396674652479,0.0703944727107169,-0.00491712466321276,0.0154789807765287
-0.11503687749082,0.0380963771686749,-0.00295857496190043,-0.107073213927515
-0.0846993230085927,0.00322396439801237,-0.000353421752172248,-0.176317468734684
-0.0610388064320147,0.0186835980368903,0.00350208055881716,-0.175237911734256
-0.0552408264706462,0.0601308926756974,0.00633916247233037,-0.137547113929153
-0.0526198747633149,0.082578926340464,0.00780061883491639,-0.102223883219324
-0.0321469890804557,0.0734733343182077,0.0113632286094127,-0.0825213373160932
-0.00226634865510315,0.0484327359870519,0.0148439902072305,-0.0755690907124207
0.0162228574595258,0.0236451312719448,0.0116094603972652,-0.0691288105690888
0.0333134791751686,0.000817536778322768,0.00349006723939106,-0.0470112496400791
0.0619439876163662,-0.0193302111365134,-0.00125581052686981,-0.0152802445894275
0.0856155024051059,-0.030092244713823,-0.00210104800782655,-0.00632168695872225
0.0901421615513398,-0.0335592732326276,-0.00544040161004627,-0.034234227118981
0.0778447159906624,-0.0338344892023416,-0.0112710098561644,-0.0617055906534296
0.051065810010821,-0.0307806538493219,-0.0151535058719592,-0.0397091387170221
0.0184540868258152,-0.0316152670758664,-0.0187469029784487,0.0254311549288368
0.00301565974234553,-0.0338855128876871,-0.0221679311569403,0.083019492141594
0.010901095051349,-0.02331284336108,-0.01879138821821,0.0932157682501238
0.0173994049817033,-0.00453637430584728,-0.00750268505872382,0.0443412492101824
0.00870230666061281,0.00861161103831627,0.0038510676139208,-0.0388479200465681
-0.000993487698260632,0.0163243463751958,0.0077027022770525,-0.095153337442131
-0.000757152896392287,0.020849645581744,0.00658290909057283,-0.0825163778205972
0.00771338358491389,0.0188077042336875,0.00568173510573138,-0.0453689508822614
0.0175817748136491,0.0108934741168409,0.000120996325615543,-0.0592122245744269
0.0185481897511789,0.00260223300315522,-0.0108426524080382,-0.109026044056973
0.0112715929639425,-0.000145100899062701,-0.0146203237718993,-0.130264948109615
0.00515822677621359,0.00432794403487824,-0.00630954411712102,-0.116670508567506
0.00565545252571611,0.0128083450814741,0.00400003696104805,-0.0862539474747025
0.00922066234332224,0.0196332197496926,0.00729567295035887,-0.0149323385711504
0.00125480269899183,0.0180045028389455,0.00351744435112807,0.133318378709002
-0.0220604294462494,0.00769353326209552,-0.00160245354001951,0.327193083963753
-0.0429848064723727,-0.00482332401324881,-0.00390221934215962,0.460287955195335
-0.0449239541010873,-0.0106781403774181,-0.00476831162089261,0.446032902956363
-0.0376181267289039,-0.00768103900946236,-0.0057595206375293,0.276073900340326
-0.0388112668281308,-0.00333179813489283,-0.00653531842274974,0.00427237543957215
-0.0450802789437235,0.00297392706347997,-0.00822739680279216,-0.268772220398112
-0.0515807447111081,0.0206436543473121,-0.0106753890757611,-0.431028182613638
-0.0601040035013683,0.0407148871216174,-0.0113791668238248,-0.433844646808707
-0.0663462647999106,0.0380027716288312,-0.00984571905425831,-0.327904213220876
-0.0592538622455245,0.0176534379180933,-0.00681474053671044,-0.200741871169365
-0.0308553894683688,0.00794659016413216,-0.00410565639461423,-0.0997364520746435
0.00825457552837537,0.0128866384290216,-0.00344108903904185,-0.0230151770946249
0.0321543376639569,0.0201031598835462,-0.00333499403550066,0.053293697848138
0.0283815041535076,0.0211521485328633,-0.000945282927343395,0.145501493230696
0.0182173216136402,0.0241642260007706,0.0035544762529297,0.244566454804113
0.0137338456066948,0.0394766348018912,0.00417860395618784,0.324104232234179
0.000715578834334572,0.0551790772689086,-0.00058269220137552,0.35557364551372
-0.0174006447521724,0.0682273066641454,-0.00630304268161852,0.320079121511242
-0.0256755596229471,0.0666300476059894,-0.0121039562534714,0.221327614401564
-0.0153264178756363,0.0236807132088488,-0.01504634974369,0.0895205608817273
-0.000185078910688781,-0.0219084852017767,-0.0105759085538331,-0.032369467674354
-0.0078309492018228,-0.0113603808958118,-0.00127179321105124,-0.113811585176394
-0.031731924764581,0.0410348391095714,0.00699445123908777,-0.14511661132715
-0.0471435346014218,0.091515036908441,0.0103604430813759,-0.120620163589378
-0.0469258322103931,0.111389978592406,0.00914462667082992,-0.0390115060140559
-0.0350022895591496,0.0832441663639915,0.00575655022079259,0.0702273368450237
-0.0161634902622725,0.0131373502350426,-0.00224425378797493,0.153234271098599
-0.00461169984361562,-0.0367136620853138,-0.0130870432397725,0.171720660468878
-0.013874348588809,-0.000888717242483711,-0.0182410287975756,0.128812005426246
-0.0345119958303104,0.0668695199682548,-0.0158696197130212,0.0604781146724773
-0.0444265000567748,0.0666188098648292,-0.0117506804376308,0.00236264315139564
-0.0374782299468906,0.00655188545383834,-0.0116975533078679,-0.029076419990849
-0.0221914230499125,-0.0353037686288667,-0.0152849948233458,-0.0382114400437145
-0.00137070574900485,-0.0240682657825383,-0.0178831922015554,-0.0428564919652833
0.0137880826691007,0.0143561337553056,-0.0152259648733584,-0.0536673776260642
0.0114722263965104,0.040922777575221,-0.00810152007951642,-0.066510210444674
0.00465671424439588,0.0453342270391388,-0.00280886116493472,-0.0757469176078488
0.00775183774644767,0.0444001199676752,-0.00310103714353156,-0.0814027273513437
0.0190360397754874,0.0434881696157291,-0.00832886321286601,-0.0797979195645493
0.0246636773957563,0.0345635652783119,-0.0148316940172659,-0.0586076096959088
0.0132601923045237,0.0230037888035301,-0.0173366157683577,-0.016266328514635
-0.00290659856549321,0.0183930065718129,-0.0156832239930509,0.0225267035279753
-0.00297262699862658,0.0223741915451039,-0.0140665221769397,0.0351439523092245
0.00842130981231016,0.032398411150096,-0.0125552007103389,0.032302380280169
0.00711054305842023,0.038915821140578,-0.010784451212728,0.0355154069758538
-0.00794132895863318,0.0384416087794356,-0.00960222521114802,0.030461133344539
-0.0184468507259743,0.0393091812694799,-0.00772757508707727,-0.0187046112031577
-0.0202397674831841,0.0446214125131578,-0.00642487679685903,-0.0906541728291173
-0.0190719964385347,0.0499795230292463,-0.00601434026106887,-0.120357575617573
-0.0225389377417175,0.0553516804086859,-0.00389435651452055,-0.0997474154174853
-0.0247459723969682,0.0620213914521025,-0.00309699151778071,-0.0689752175305177
-0.0102992042795577,0.0637408429375363,-0.00762198977296536,-0.0306959398084937
0.0124417066687759,0.0546061865185494,-0.0122860160588346,0.0368208827925646
0.0220250866096789,0.035222599099406,-0.0112086720838342,0.100979042496102
0.0177832650856051,0.0141451855570564,-0.00891506061267775,0.105606487977543
0.0121983728272284,0.00241920587951299,-0.0113446547185597,0.0501686585530813
0.005947080548735,-0.000982965048190447,-0.0164271122454261,-0.028214083285669
0.00546361272044878,0.00158823349618272,-0.0203492685536366,-0.0902887612696099
0.0206320862251038,0.0149542960995777,-0.0213162729895067,-0.114438525843756
0.0375219130966033,0.0376290990829216,-0.0186192399300447,-0.113387866487191
0.0353871722954036,0.0641052344364703,-0.0138214521936453,-0.104868647806171
0.00559959824237388,0.0825870991813864,-0.0108823241411193,-0.0887864380029511
-0.0431986450155832,0.0838812790685315,-0.0107593953596205,-0.0648871563507884
-0.0866623151987735,0.0830254098727149,-0.00706184349607532,-0.0459314098114369
-0.0984141809997063,0.0933100345110053,0.00252381549754981,-0.0423144037024319
-0.0721965172893824,0.103564052806266,0.00952218001812021,-0.0460049793323991
-0.0348618376629918,0.107291588624622,0.00871464128392365,-0.0426944672133389
-0.0104600459611306,0.111590925358102,0.00510220471125496,-0.0292168881944156
0.00802493826854259,0.104683306628466,0.000256715313399634,-0.00997983229394968
0.0279234633527979,0.0542495638641934,-0.00858081219425178,0.0149981325916991
0.0436892633126644,-0.0408102169456214,-0.0155787626337082,0.039998435156975
0.0548108265870831,-0.122200086190387,-0.0147124030929424,0.0408516634124652
0.0581191354768431,-0.124204277405033,-0.0108288684472706,0.00740370582102333
0.0501734177118427,-0.0656197656029947,-0.00958405695597301,-0.0354299363641005
0.0400944524550298,-0.0205069229655417,-0.00736324765898586,-0.0548498625323472
0.0348114314092917,0.00514665871371354,0.00101682913734381,-0.0277020972239601
0.0344111911168102,0.0448274806943824,0.00952339834136585,0.0345482354888267
0.0290438157408306,0.0837296296847239,0.00826291410211709,0.0898574324533918
0.00996124832496858,0.0935941928126516,0.00242832629264014,0.11521556168454
-0.0078105202928554,0.0826598552030606,0.00326812765572219,0.105328568469279
-0.00834951666946722,0.0693031016177855,0.00941038014665524,0.067080080537882
-0.000815895141027784,0.0544631572616544,0.0138447081966629,0.0320866819404328
-0.00308654721929293,0.0345171816150577,0.0161829084844771,0.021192137215789
-0.0138700230141909,0.0084163828943163,0.0168765267791554,0.0243362504604659
-0.0081332311628706,-0.0230022681931329,0.0113601123710969,0.0285459715884167
0.0233422969843005,-0.0495952859144361,-0.000287568991746569,0.0245288356628912
0.0461672314458009,-0.0556476888815072,-0.0111810366480926,-0.00110495753849488
0.0402611416746374,-0.0377023495765196,-0.018900850750623,-0.0499826484295562
0.0278987040067494,-0.00776789587661997,-0.0239566240405559,-0.0969953256537763
0.0276992806480343,0.016647753336549,-0.0210812105762175,-0.106423155070775
0.0344666899383991,0.0233514897494862,-0.00982227914170655,-0.0845880117386564
0.0306403312192614,0.0112871087411141,-0.00136213740226621,-0.0815552865243798
0.0213571483932294,-0.0129623871162653,-0.00203514043401664,-0.097073518090863
0.0282536105845432,-0.0324949817412865,-0.0048576444028897,-0.0599935809902744
0.0386684155868054,-0.0405206595221103,-0.00539340948144343,0.0727695007707933
0.032910083643157,-0.0493129738142675,-0.00507036687851138,0.258786656007639
0.0189433296209386,-0.0596439786072092,-0.000327334060921031,0.365062700291301
0.00170818148251858,-0.0630672501886755,0.00687471098853539,0.24821568169302
-0.0103593706163759,-0.0548682481926231,0.0106594272172348,-0.0546151890834258
0.00322091029827309,-0.0360744645700963,0.0139682805312083,-0.335067643481202
0.0331713705389292,-0.0205966309297803,0.0148477817731444,-0.437666281700734
0.049940449099321,-0.0262923186077283,0.00665665525990655,-0.345966425121839
0.0439671515125152,-0.0506106507683097,-0.00578419294619813,-0.101275406609658
0.022833390093454,-0.0686195086611282,-0.010633508135329,0.233419178080672
0.00524085545950765,-0.0715050735754096,-0.00720070521188319,0.512580819535348
0.00771075290622403,-0.0687835358445413,-0.00546499810070674,0.578787657682204
0.0216046385562105,-0.0600880819620452,-0.0064485592663538,0.425751331293281
0.0292879689457691,-0.0429825426961366,-0.00369962407162224,0.165936431598985
0.03164419858099,-0.0181649620456119,0.00256635976444703,-0.0877025128808534
0.0304234146611317,0.01132630278063,0.00780403768737745,-0.25444193445398
0.0212459330443291,0.0421878897370095,0.0114894429708749,-0.302978336021501
0.0103005591436656,0.0643983807866918,0.0131311041357577,-0.258733338925116
0.0116122660555132,0.0580370877726418,0.0100499333379327,-0.169017289972435
0.0348362710710184,0.0175820794585928,0.00207500516727238,-0.0797622844786044
0.0579644517226255,-0.0429240986659319,-0.00826054956416578,-0.0274007377989122
0.0423646744787705,-0.0972841462791931,-0.01660194193889,-0.0140447854358985
-0.00338813137401653,-0.114170279093794,-0.0174402701017583,-0.00722732479353796
-0.0311872261323458,-0.0832856849526775,-0.0111178231579405,0.0130159762171499
-0.0241451023080829,-0.0291523365725701,-0.00417364546507242,0.0302809765361231
-0.0182865953720917,0.0134158663226089,0.00320816122851162,0.0340107922488077
-0.0396639374020312,0.0298662647288728,0.0125371014521716,0.046103715304278
-0.0584702265926026,0.0288129546948984,0.0184549601178561,0.0820924998996418
-0.043426127144495,0.0201752862287656,0.0173035690591818,0.12295490676975
-0.0154545049398696,0.00200968519143655,0.0110483197743371,0.138263463269462
-0.0100828666075789,-0.0235888308082172,0.0023490735737928,0.117889014992186
-0.0208591629856927,-0.0358627192374537,-0.00433087450047885,0.0777454953769085
-0.0232410045013093,-0.0210760365892678,-0.00407572611753961,0.0397591531577436
-0.0182472076495074,0.00578512347096462,0.00122634460904783,0.0123083800195208
-0.0175463836632944,0.014958956603126,0.00756629496599587,-0.00776524487214972
-0.0101923184507127,-0.0230455911339474,0.0126327001125446,-0.0226038686643727
0.0222945577973343,-0.0888173853798869,0.0136234608963858,-0.029832377565757
0.0610038777475842,-0.115224211803401,0.0118186871000236,-0.0295332871762144
0.0736484713905996,-0.0786381957945262,0.00951894768135733,-0.0282106592678782
0.071949079078858,0.0025832644040511,0.00753610439319327,-0.029903697562492
0.0740402601797459,0.0881130822097811,0.00797282436441003,-0.0314784857096379
0.0679709987723989,0.117678166386122,0.0103907950653876,-0.0393349868728538
0.0465241506011438,0.0911804316092199,0.0136044241332368,-0.0697705716964002
0.0161673198762049,0.0463979829811991,0.0164326248367542,-0.113208715676831
0.010519237022234,-0.0177121202947408,0.0151725548224583,-0.133771172733607
0.0501951245932601,-0.0984443540307303,0.00858344504977507,-0.114383879064879
0.0852235192298991,-0.157831580619191,0.00183880287529598,-0.066173674016779
0.0736262561095129,-0.174776467229987,-0.00148443497100626,-0.00538473643957407
0.0368086512602155,-0.163096994348253,-0.00137603235960008,0.0514698226990356
0.00103669164718256,-0.132691041432304,0.00252446367791871,0.0859851340760131
-0.0369027975813352,-0.0861444429076152,0.00814883188869795,0.0922820674517761
-0.0743440749292786,-0.0313146802627559,0.013305633378789,0.0864082255402158
-0.0818345951663616,0.0141884897308806,0.0151956734144225,0.0901064907163955
-0.0526383747124251,0.0266318957357869,0.0121579684770773,0.10297175429228
-0.0161847230683294,0.00720160682869347,0.00889091680722165,0.0896349457198572
0.00685166713350924,-0.022541465276148,0.00690460273705529,0.0160731805258492
0.0124654244563853,-0.0443909959533577,0.00361847643562573,-0.0957819150415444
0.00874154211889929,-0.0520615069709958,0.00129864293501066,-0.182133860637236
0.00467456563348818,-0.0540328898490692,0.0024819568866847,-0.201472106573567
0.000780365242323049,-0.0572232446278899,0.00687518333443877,-0.164529293672205
-0.00187810285245348,-0.0627023503004357,0.0106756678026269,-0.108376059276559
0.000210904238093473,-0.0634554957347253,0.0130172279954172,-0.0587623686734929
0.0157275767171769,-0.0491277651009504,0.0178182840081944,-0.0246107286211831
0.0398774456319141,-0.0295846068686512,0.022800713529427,-0.00816332893850975
0.0530073601938533,-0.0221759775283846,0.0252004747399207,-0.00613231521636832
0.0498484906609388,-0.0246303155776978,0.0265497459201066,-0.0121904244346938
0.042342887413186,-0.027548303575887,0.0250905715840825,-0.0198231926078078
0.0414144409641689,-0.0338285203327055,0.0191132172895943,-0.0201711699744554
0.0384934322083232,-0.047200394893953,0.0122987996396177,-0.0180272430196644
0.0202231403745504,-0.0647942933958434,0.00544595628151304,-0.0322433556195853
-0.0181306401602032,-0.0779085523766909,-0.00316109884169646,-0.0550519751993751
-0.0618519191388479,-0.0681810922152851,-0.00697483094195725,-0.0557121560920679
-0.0689477081818887,-0.042118425141536,-0.00122743771417902,-0.0173267841058048
-0.0342865704883288,-0.0373428787796667,0.00682250350457573,0.0587025675369594
-0.00747915532927458,-0.0673717618149577,0.00967597360098414,0.150731800826354
-0.00918918334921149,-0.102844860238585,0.00433390035518206,0.22455480646085
-0.0116639097393008,-0.0996739154396838,-0.00176541916070947,0.252180694573982
-0.00591091347610301,-0.0585723055232224,0.00219196387031429,0.210883654830012
-0.0141103226416995,-0.0317649523542114,0.00867356865094075,0.104840194146343
-0.0384857761539502,-0.0397758946495774,0.0113432703936195,-0.0167808315148273
-0.0535281829837303,-0.0512458255249534,0.0140877664051041,-0.103623893086016
-0.0464793987359473,-0.0328373625345419,0.0172312330757434,-0.136762176813559
-0.0278741240858248,0.00331015945342458,0.0194922847714659,-0.128823924565787
-0.0106593929040512,0.0125101241323304,0.0187664813071904,-0.110361160898297
-0.0109285705310445,0.00181886415750247,0.0148947338425075,-0.095283668119935
-0.0407017588287224,0.00962726748207293,0.0103924599305721,-0.0744269233053635
-0.0850670740327322,0.0266986987500365,0.00675592859601989,-0.0395677322887804
-0.115247298040151,0.0287857506026193,0.00468781370071942,0.0029006490083831
-0.110997293064448,0.0182755043836532,0.00568562232137403,0.0338917923116468
-0.0808399689015774,0.00404355191847254,0.0096895758887649,0.0376308283900099
-0.0540189150947694,-0.00777657223379888,0.0134589229265204,0.0191538768803238
-0.0335619643075986,-0.0119884405758312,0.0123920720502209,0.00153791117164082
-0.0148956931924261,-0.0132048485512304,0.00558858350129913,0.00448779836992601
-0.011445540759478,-0.0131325240168148,-0.00196080741825561,0.0289135760843832
-0.0208478056165556,-0.00719350552020206,-0.00226370053323961,0.0660178515919789
-0.0351450712713582,0.000409210961173669,0.0067312409773608,0.107535021624454
-0.0511472503341864,-0.00110699047185991,0.0167984743271435,0.134437389378308
-0.0384571493156161,-0.0306783158843974,0.0185973196883329,0.122766613565472
0.0114696234385555,-0.091313122989591,0.0125436081109504,0.064059860566179
0.0476506550672283,-0.13429849373719,0.00779118502830236,-0.0336700490572272
0.0417030833165367,-0.12480428698898,0.00654723891400925,-0.146457269235797
0.0155722584118576,-0.0933358421054788,0.0011708878789213,-0.231171553405088
-0.009041629201467,-0.0629579392816595,-0.0105205419447313,-0.231488366212884
-0.0299234695724026,-0.0265769900200945,-0.0198896132809872,-0.120173955138047
-0.0463880344562715,0.0125879453464042,-0.0186821958188665,0.0602585041535044
-0.0458981110573977,0.0320874153745769,-0.00561811602164529,0.216752384894832
-0.0324028767321554,0.0217517869653278,0.0130392045662073,0.275847529859383
-0.0319696576230133,0.00140389775193525,0.022552949979152,0.235077624814247
-0.0469162918740797,0.00438900883803633,0.0166954710476816,0.13314167394138
-0.0611739941639638,0.0509672316996475,0.0037631691915431,0.0239253126814115
-0.0858613433221477,0.0997478502691738,-0.0120654684889302,-0.0336739294285202
-0.123656013938979,0.0972639500705433,-0.0264436566528033,-0.0316944976471618
-0.139722143763851,0.0681000181833154,-0.0279434649959332,-0.0297411661975408
-0.122321973426203,0.0639846031231602,-0.0164955492011381,-0.0765455239457263
-0.0941128255504751,0.0818256342500488,-0.00636249572021133,-0.134803807957191
-0.0589011136009235,0.0953413247213914,-0.00181996419272364,-0.13725696973294
-0.00355510387789323,0.106090128777389,0.00491770752967315,-0.0926424429895938
0.0675651883967407,0.107876605303264,0.0098983832176486,-0.0542963134638421
0.129133533021252,0.0773088857051385,0.00922745879792354,-0.0375569741704015
0.157100483204325,0.0119358087918759,0.0118126408988623,-0.0461536064048262
0.142126721815272,-0.0799931657959856,0.0143887710262363,-0.0846549630193264
0.0926182107842543,-0.155344918383,0.00740660641673587,-0.103624532664524
0.0301149734732507,-0.146737664077781,-0.00328293854339346,-0.0534953509968993
-0.0176792186738437,-0.0802248005853418,-0.0101568151672179,0.0387899655443616
-0.0307040740982527,-0.0297072054592455,-0.0120423860562753,0.125478350271502
-0.0280940426589513,0.00256623124284225,-0.0054964237227442,0.191110278805476
-0.0290121937260227,0.0382681566364195,0.00533704392761364,0.233900496139626
-0.00675967051516625,0.0717783075260595,0.00838023083339959,0.246083211216986
0.032565362585484,0.0733939645759425,0.000193508476342429,0.211275994990521
0.0336658219588965,0.021341442013211,-0.0120690683873727,0.125159428957359
0.0104201181856695,-0.0486301611124744,-0.019488822970541,0.0183547009561427
0.00895741864368811,-0.0856822351585952,-0.0215475088872208,-0.0653370863801627
0.0221645088118458,-0.0826278709773099,-0.0207398466898635,-0.104814227609558
0.0299998289276656,-0.0524730218746843,-0.0158584078470154,-0.104961111860102
0.0263335616165639,-0.0107173506388788,-0.00991602413915021,-0.0800710361770826
0.0289700229224461,0.0278197781124963,-0.00590526213974561,-0.0423964362429549
0.0643860448654624,0.0548024076899333,-0.00110849820123212,-0.00797046103331678
0.105240457604096,0.0613761064713854,0.00454674932498237,0.000869315363180634
0.100967906349103,0.0464855354306696,0.00762194758300203,-0.0137965633119896
0.0668437934609099,0.0259656244730386,0.00318643277020417,-0.0205608650161427
0.00855832360353825,0.0143083085233766,-0.00668203669222228,0.00071070814351118
-0.100933835294772,0.00647644181576362,-0.010551357743228,0.0447551962389396
-0.218056148006893,0.015246046729957,-0.00619857673324981,0.0753177669422102
-0.273511196825816,0.0787950731015947,-1.54779158416263e-05,0.0483615501221603
-0.262134729388769,0.176403706087963,0.0041618465001739,-0.023127398837647
-0.222874184982271,0.229550096388286,0.00488956194725756,-0.0744192943387086
-0.170576529821877,0.208813546481305,0.00506983426859146,-0.0624566066074165
-0.102362167784307,0.148271816140335,0.00585133983050886,-0.0173898872531017
-0.0317723773960113,0.0862753988297785,0.00519762485908646,-0.0364276715164115
0.0251970113344929,0.0451526762899456,0.00466365484483905,-0.164496898094269
0.0540234892444315,0.0240523027024652,0.00499428881397517,-0.292632560082508
0.0571798649115242,0.00678200272087581,0.0055938483137109,-0.32124465666147
0.0498173767652922,-0.013750724686193,0.00368041902520804,-0.302021720155097
0.0345979306228041,-0.0406370155543344,-0.00171209603313071,-0.260729143681749
0.00326471871533018,-0.0537579842198325,0.000801423591864499,-0.113691136410985
-0.0306982351936432,-0.0304721767745365,0.0134229543617669,0.142990313894919
-0.0247581209800366,-0.0144190392406973,0.015642973665998,0.405481654048796
0.0101980476250464,-0.0572822104209821,-0.000918488064956747,0.582926441475403
0.0276947911975162,-0.158029372888264,-0.0230867318640678,0.607900512122677
0.0326012360891012,-0.275893954696002,-0.0399165881487702,0.458292125063596
0.0359243516379094,-0.332888934094336,-0.046785511825031,0.185299256667126
0.0200798689694887,-0.260835599682723,-0.0435097532433024,-0.114299706111392
-0.0112683333950443,-0.0882253338578674,-0.0328204205138997,-0.331627320338895
-0.0305228392372295,0.0834059399511488,-0.0185085934672559,-0.41536688163488
-0.0375306640415198,0.205498385128146,-0.00805018992945438,-0.401643378756836
-0.0521114061673836,0.266498188355748,-0.00490604590676666,-0.347915138959215
-0.0703778947880915,0.231994323232021,-0.00369890640327725,-0.297800169576469
-0.0689963083505584,0.135966915553114,-0.000777993363274852,-0.274826728257508
-0.041654016284382,0.0662320949234833,0.000436803338116184,-0.25215531391335
-0.0122946070498712,0.023950199225149,-0.00306340421229441,-0.179898494823417
0.0016698506090092,-0.0206950513342644,-0.0122459488065195,-0.0476528004272889
0.00486961281959689,-0.0447856412695134,-0.0276348374054277,0.111803555354735
0.00766812509001613,-0.0451207640371023,-0.0392851879059861,0.25248850367426
0.0102951696566779,-0.0406883437916521,-0.0336537708575083,0.329671380840472
0.010215091070572,-0.0356109828198866,-0.0204458436033607,0.32284989539591
0.0190073308612008,-0.0381246146647735,-0.0190793802792531,0.261059634057978
0.0304549133941475,-0.0508566520386658,-0.0256442755745391,0.201967593137226
0.0309537752131365,-0.0624635720197227,-0.0276108400052452,0.172864188151081
0.0356053106858723,-0.065064175174175,-0.0244485068375195,0.118275254232718
0.0540719840227302,-0.0638972250095036,-0.0222296031848927,-0.0394909277071144
0.0702612688455131,-0.0647662553017792,-0.0226769001130825,-0.24560310559375
0.0647934964398934,-0.0646395112591401,-0.0235622947300153,-0.348162571327135
0.0402844788130414,-0.0636673940396195,-0.0263036881218397,-0.284475226466493
0.0290654238300149,-0.0644527460076661,-0.0300118713025461,-0.111668562654905
0.0469899245800182,-0.0669670854198725,-0.034213806585609,0.0823175452941369
0.0714987308316812,-0.0682070384984062,-0.0379868220341578,0.235762822439114
0.079803229208657,-0.0637425187931881,-0.0336512168458359,0.314098783599307
0.0769899828750511,-0.0471036272245056,-0.023192625636653,0.315906310875107
0.0797113277481823,-0.0177935874624866,-0.0191345791419071,0.2761018120166
0.0810510054046818,-0.00951260779946322,-0.0235027319330328,0.210525933015045
0.0643638976596208,-0.057553935751145,-0.0289738291212337,0.113329455533909
0.0372965186235508,-0.112873110310611,-0.031788198690133,0.0190984085741907
0.024207908030799,-0.0949835080266147,-0.0309495919399801,-0.0300603766054234
0.0219584282121182,-0.0256603132017608,-0.0303286600369784,-0.0538408044158664
0.00104430420804358,0.0237154220144071,-0.029932260201836,-0.0931994611079612
-0.0486414661812133,0.0330382153976927,-0.0230633778283792,-0.143639441405316
-0.102590692424126,0.0210748502665738,-0.0141175708894084,-0.177974521019372
-0.125665459449395,0.0177443325574683,-0.0110992325091946,-0.192492583663107
-0.130863146822144,0.0203845198318048,-0.0170643619064829,-0.179514708578268
-0.142116320698182,0.00382713950908642,-0.0315856577958169,-0.0904456678848863
-0.12770571953949,-0.0219546879060485,-0.0407496123597749,0.101309201583033
-0.0876635537891659,-0.033822197133151,-0.0313610252324888,0.299717510888801
-0.0681791312469045,-0.031450021640004,-0.0153541862398062,0.367063360064542
-0.0612612129499456,-0.0261758927174876,-0.0101771869344026,0.296510240965258
-0.0413937074501396,-0.0120748193420516,-0.0131333519337116,0.167954223993386
-0.0252038102643747,0.0181516281788618,-0.0142535809177682,0.035100706306513
-0.0209617770969524,0.0424488821808121,-0.0130008480724206,-0.070443305844017
-0.0115399058973514,0.0325426501701424,-0.0127897161406401,-0.131771210747307
0.00248619073960379,-0.009940808193026,-0.012261852089655,-0.157756358975211
0.0193164413742618,-0.0337542863334564,-0.00953568241386437,-0.166283912280554
0.0426400299586784,0.00786005738318191,-0.00712055733972442,-0.158235940041559
0.0406135335155733,0.100362584038529,-0.00805093374647443,-0.118143727542562
0.00162694715017944,0.175736747816361,-0.0104606932581394,-0.0426440330820686
-0.0440115311103925,0.171823614868201,-0.00959553361479056,0.0396290327434526
-0.0853491617492473,0.108797615481543,-0.00634765004463352,0.0917517522129893
-0.105976847400671,0.0490955373751997,-0.00430996750035228,0.104962777203246
-0.0876052435600736,0.0162211869518308,-0.00269315556737396,0.0923727987711656
-0.0600330105205177,-0.000399690539373776,0.000474021045488157,0.0681387757090923
-0.049490877206999,-0.00098221307920017,0.00545129362157304,0.0449742384538995
-0.047578565403981,0.0142922443972833,0.0070692124699905,0.0152659085935281
-0.0424311525226499,0.0252364115853265,0.00158732471353226,-0.0468566152018586
-0.0172805853621372,0.0245512194591584,-0.00572839255909843,-0.133346598813955
0.0211225770839451,0.0255516176279067,-0.0105977329688953,-0.196813896960164
0.0431513841006725,0.0416124373000362,-0.0137072136678748,-0.200741266087001
0.0530929393411754,0.0669137621891642,-0.0158905124320298,-0.149587863844879
0.0686025824216262,0.0783247003133013,-0.0148466725062319,-0.0754327351709083
0.0778841226661617,0.0585000357371467,-0.0124866552192381,-0.00475960652304194
0.0699872279281138,0.0148167119689195,-0.00978337368491901,0.0376144343519123
0.0539978755928372,-0.0137496116667501,-0.000416623665525856,0.0280166985994878
0.0369685812466385,0.0088976224703366,0.00988293770366735,-0.0177513085124266
0.0213024623095697,0.0605299289220785,0.00972100969792323,-0.0517041171972141
0.0134686762503073,0.0866928008211384,-0.000781156125877326,-0.0429116701849334
0.0210407496647299,0.0821002964971476,-0.0119236515498067,0.00645000922888522
0.0374753937514296,0.0787223674464723,-0.0140798541118762,0.0749198731862889
0.0452130915000124,0.0827271186836845,-0.00958675194372637,0.128485297989725
0.0462782525392554,0.0867328549635176,-0.00018875575786784,0.132823921206459
0.0535838239186392,0.0959925870846529,0.0157513970983081,0.0794939234791235
0.0526934970291857,0.103954469888826,0.0290169490920893,-0.0111875914622563
0.0269577157785083,0.0939777503113719,0.0326696383241052,-0.106068204313722
0.00297463060224481,0.0652575671856814,0.0281258426981739,-0.16943315467748
-0.00459784861187505,0.0183232427223312,0.0165621428167876,-0.181296749606975
-0.0227769450086112,-0.0467014481257974,0.0015862099468333,-0.165098127521606
-0.0450871196931255,-0.103061022275779,-0.0141432645991519,-0.167460970038227
-0.0411718238747731,-0.117327585916457,-0.0298102472865508,-0.182017360901472
-0.00747493832129846,-0.0839217108908721,-0.0397358720421371,-0.14994914638406
0.0394181178935588,-0.0213474068288551,-0.0407290399864648,-0.0471600932151922
0.0741474289085293,0.0391729053023239,-0.0339081150250883,0.0835874147766123
0.0839839047750957,0.0755402819644214,-0.0168509712553314,0.169469636077387
0.073656795212117,0.0921675172727981,0.00566217967203825,0.168452422274
0.0554585532327638,0.0927510649852674,0.0187061993722187,0.111997861940104
0.0528687685168053,0.0747767991661111,0.0177183195550252,0.0713710219091265
0.0663074700514898,0.0564342671362579,0.0120798709730604,0.0612563928569314
0.0647168637859742,0.057175427022183,0.0113423514429908,-0.00624942818081303
0.0398997635285948,0.065873730764288,0.0174505805304556,-0.174708699395078
0.00941972683840642,0.0642997696851876,0.0216473755365947,-0.322726607419153
-0.0179594911129359,0.0482584442656343,0.0122593549192615,-0.321294396935168
-0.0426729453769814,0.0184037228694351,-0.00824685435349089,-0.161897195933264
-0.0533061609490425,-0.00961023723796765,-0.0249436044980367,0.0976571473760178
-0.0382356616062344,-0.0178125186096309,-0.0267872667721407,0.357335337294431
-0.00840537448484627,-0.00961127547205327,-0.0161078773810794,0.505129698954352
0.0170854928533924,0.00347139510527354,-0.00408300215497027,0.50501083348876
0.0282848482555073,0.0102304165310362,0.00144758032964556,0.37052922035156
0.0282913780114368,0.00973944637558276,0.0008835996439783,0.120479205738692
0.0324391070271413,0.0132766468074259,0.00195600282514016,-0.164850306327114
0.0530880699699704,0.0137618475379193,0.00641062228434119,-0.378229100485009
0.0832284466707926,-0.0250297475434971,0.00828832524353696,-0.463480356742746
0.106240815724693,-0.118908227549081,0.00892179614667298,-0.416455508606798
0.110016192933662,-0.207296468005867,0.00791254824897754,-0.281173779048571
0.0833684508114906,-0.207810694197693,-0.00197469492268489,-0.119298596210006
0.0378695408735855,-0.124486096464654,-0.0150481047869639,0.0353333070511714
0.0197212508305181,-0.0313584872802353,-0.0191713593678663,0.148804603916685
0.0439962623246333,0.0312430748194348,-0.0125897562373113,0.175209524781824
0.0651388223747316,0.0680988138357938,-0.00276894534870477,0.132524657024946
0.0554457139853853,0.0796264012185859,0.00221259191713981,0.1105798004666
0.0319777975216033,0.0703652978331141,0.004791883244053,0.155857582763355
0.0113825969590385,0.056631235907421,0.00882217259415825,0.213716743680694
0.00174122396266072,0.0465740681843264,0.011045859835292,0.209680606647631
-0.00694277521212746,0.037165981615985,0.0110744291053762,0.133979782148621
-0.0254547022395381,0.0291996215774088,0.0135625617772712,0.0371484821173202
-0.0437484265635362,0.0237899940752523,0.015526963622794,-0.0219983368046658
-0.052919682880807,0.0141605713935843,0.0119935982214531,-0.0272105431661438
-0.0484604364446831,-0.00190014120748882,0.00729586181183562,-0.0185145666241833
-0.0310021122573262,-0.0202567627808572,0.00801577297518445,-0.0416497988419903
-0.00375950901274001,-0.0305447615180102,0.014406886939385,-0.0852332390206427
0.0384572235705342,-0.0253635861850493,0.0188690715815291,-0.0987680768853744
0.0907272851787387,-0.014943894615687,0.0162150792936286,-0.0570981977392461
0.12154418920523,-0.0154960721645854,0.011834897971924,0.0284738185069581
0.11291423876918,-0.0376339386818804,0.00921147790404786,0.121969921026277
0.0818701923858056,-0.0724925766691385,0.00293225546835629,0.17635706395806
0.0475350448901705,-0.0792801909582286,-0.00135902592899434,0.171891050592973
0.0123972532756055,-0.015627688601091,0.00679693521178026,0.112059923473608
-0.0244524603011484,0.0998049316566991,0.0212453322278029,0.00026875671720672
-0.0703632955074015,0.166731621808619,0.0273413352325988,-0.128891477104316
-0.123806233054953,0.128250568833777,0.0187314339779764,-0.214650877250118
-0.152048595529311,0.0438737930093868,0.00374813585691351,-0.219754187255762
-0.147404255859536,-0.0114245127238705,-0.00280998826049328,-0.137635614048029
-0.125654476290793,-0.00388823065581551,0.00771597862054463,-0.0163123558620141
-0.0850105361112685,0.052555537656339,0.0259983665295545,0.0500886290671973
-0.0390555506619661,0.114162695011911,0.0369334810973753,0.0416800304527938
-0.0103146490511186,0.160112953526423,0.0419494518876387,0.026958453597885
0.0143125649822823,0.190648496949924,0.0454295331066722,0.0251921612125503
0.056564901156765,0.194657120470518,0.0381651338246856,0.0103807544378347
0.0897643315129878,0.155682031043747,0.0189931593480686,0.000307331246795831
0.0930907222366552,0.0722713666968552,0.00610836876326435,0.0103802290576367
0.0921174686172598,-0.0344547422814294,0.00483047338402014,0.025593097620869
0.084091195596836,-0.137234063554793,0.00452110308762608,0.0572772957858733
0.0589565515874498,-0.198981429847073,0.000576097999516507,0.106516068388126
0.0309481540368209,-0.16416668730745,0.00106466445832295,0.112413811862536
0.000545068007757082,-0.0286597949975162,0.0159870104135531,0.0475399228874314
-0.0337591725719822,0.129095757096061,0.035322836778109,-0.0282547753158585
-0.0683368904875204,0.221152729555806,0.0424719911534401,-0.0579325726103121
-0.0954522169702914,0.22413722499278,0.0363036341458738,-0.0495257206321706
-0.131758810684583,0.144670487521781,0.0227509219437773,-0.0502326005011533
-0.184458842859051,-0.0117132316450022,0.00328457253759857,-0.0710121257217762
-0.200464320625218,-0.167011770626215,-0.0144498774873114,-0.0693748497267377
-0.174891161100098,-0.20811524591836,-0.0161550278459583,-0.0334413058502601
-0.157253313887218,-0.115059733136564,-0.00221875463711102,-0.00862128669778886
-0.146627484502521,0.0181016445694906,0.0144914386562464,-0.0203688064342574
-0.11257033034671,0.0878038972873458,0.0267658449467567,-0.0421548619348423
-0.0663450415889221,0.0951221656498899,0.0356376257822843,-0.0476457716580521
-0.041143650774826,0.102812694140456,0.0426625159427021,-0.0407344431140522
-0.0198677894102833,0.116840152253841,0.0444651581159916,-0.0506814955302239
0.0322015957911833,0.0978402888354998,0.0366015543892877,-0.126322327556188
0.103838972145659,0.0368285172486719,0.0199670622920223,-0.25164386485865
0.175034219427135,-0.0382195973243471,0.00189969630268188,-0.302492073175097
0.230562088866009,-0.116979777215825,-0.0104197879451881,-0.18835519566217
0.241933207345072,-0.207037191182685,-0.0143237279023937,0.0552913796315859
0.204118791459616,-0.262253727325474,-0.00831988349662684,0.329103190655144
0.134411740580005,-0.229531707810336,0.00617235410053173,0.535570506388002
0.0591628116445024,-0.152614093863158,0.0211240955901445,0.610844123646164
0.0280960436876453,-0.101377298710893,0.0276231487148198,0.547407860593593
0.0626117740023362,-0.0607923537659257,0.028726949250189,0.371014670886765
0.103934088499311,0.00676996436310492,0.0316757677541227,0.11445160817351
0.0907500854215393,0.0460964568141681,0.032045038816711,-0.166670806821031
0.0360187627695306,-0.00120529427363854,0.023957368108788,-0.390351804131618
-0.011183407397409,-0.0674538738942302,0.012996760144745,-0.477321470989927
-0.0153084421948323,-0.0955302510591251,0.00147227285977736,-0.416520731914279
0.024313016633327,-0.124498247091741,-0.0157767980335577,-0.271432672713706
0.0681149211280508,-0.180962491511435,-0.0304916710657323,-0.108326255993904
0.0695382449950974,-0.229073070838025,-0.0279924307706589,0.0321730255070869
0.0196067467041065,-0.206162957448078,-0.00948656657330035,0.128906934817196
-0.0408500411879432,-0.102372718690101,0.0113360928821595,0.170042069632281
-0.0589147542404934,0.0104365947259659,0.0248142249747212,0.148342638950887
-0.0349365611451568,0.0600568122377853,0.029638347959342,0.0778174568078195
-0.0027826378894006,0.05481819304235,0.0274352635933651,0.00174547742461113
0.0490365649525056,0.0485595028865014,0.0234525517775615,-0.0351451057983253
0.132200808170614,0.0524745200078909,0.0228495729287348,-0.0320674809882043
0.198197865203793,0.0293738224252384,0.0227020369365501,-0.0226532929362761
0.213484787326668,-0.0429465040628282,0.0218225786690335,-0.0275268036909924
0.193140333473708,-0.140488259812574,0.0198001462144498,-0.0404358113218223
0.15078722771622,-0.17721365706024,0.0129562156353401,-0.0310732543942868
0.0958461492849586,-0.0937777780887017,0.00581899812607165,0.0191507183905089
0.0500007508669471,0.0187247340400507,0.0034565025195083,0.0799395168732835
0.0245195011155285,0.0567166603057749,0.00892896363489982,0.111748961177427
0.0224480237664238,0.034877055182592,0.0208572236688164,0.0958381050569121
0.0492926898996671,0.01149339450539,0.0237801363623956,0.041209976207349
0.0796564947583186,0.00873772285412752,0.0141869243124673,-0.00246551968292341
0.0769274210821206,-0.0099782917285542,0.00769481268577474,-0.0123993381078544
0.0440567798080314,-0.062995950187984,0.0065343453185545,-0.0272259393834348
0.00856398969852259,-0.109832186843331,0.00386815387212197,-0.0609424193919829
-0.00773642068013869,-0.110731736164724,0.00148346456300507,-0.0755104724626289
6.03487468283231e-05,-0.0612713509576596,0.00407335670049589,-0.0554783036795044
0.0111003393023434,0.00573452152986195,0.0118819717563197,-0.0352888267196295
-0.00383314831474373,0.0595052551192584,0.0162047981417227,-0.0415726412493185
-0.0342942424793001,0.0971930506682393,0.0139547622203883,-0.0598729866863502
-0.0370600043836971,0.11419481538877,0.0115700069842416,-0.0697165291875653
-0.0102887789308767,0.103765604801134,0.00707810547589658,-0.0590537416464358
0.00913605541367032,0.0801289465450843,-0.00213808273651252,-0.00638583037213044
0.0015171241674498,0.0614910025866117,-0.00881140554195413,0.0798520908026863
-0.0302878492735454,0.0469398574436014,-0.00919089737942148,0.135171054079353
-0.0743710061304287,0.0304140539336214,-0.00662760137795038,0.11428752610029
-0.105968288480316,0.0185944982049277,-0.002791714681682,0.0408331115109354
-0.106846129540612,0.016275463332572,-0.000826251367614272,-0.0435872533820871
-0.0957224683228166,0.0228517632454717,-0.00188788738998633,-0.118812599928673
-0.0946916724194067,0.036443346279765,-0.00161946272603646,-0.165041137970169
-0.108265491509802,0.0447868746051912,-0.000639081975263765,-0.161314334991498
-0.122038749676958,0.0334754065527311,-0.00233137754580868,-0.11275658804356
-0.120905963121393,-0.0273371392613199,-0.00722057336929021,-0.0484808573011308
-0.122798712766664,-0.11506323551157,-0.00843991873269594,0.00550034640866548
-0.116252893475468,-0.128114666585629,-0.000410579667682869,0.0407989605382823
-0.0688335449265154,-0.0580491432942167,0.00657709429355308,0.05563627744053
-0.00372375932679839,0.0102906357412946,0.00479994535538992,0.0445838589739085
0.0334723594897566,0.0279245777520837,-0.00590417849374402,0.0107365538363811
0.00715215125124614,-0.00301077110845747,-0.0211318016747777,-0.0252849668475498
-0.0834897932385963,-0.0443178379566503,-0.0245305382403691,-0.0386006221829393
-0.17365812563796,-0.0534630978123994,-0.0105745537244414,-0.0177047481390335
-0.185072416806717,-0.0223834954553084,0.00444530573584265,0.0246290627495562
-0.12880263622742,0.0151098160557888,0.00481375199867776,0.0591034771732434
-0.0676338561543671,0.0552810253294835,-0.00436192852347016,0.0708912288421204
-0.0191773012003727,0.104287382085878,-0.0131832403181928,0.0676192645245298
0.00763675636471921,0.104930827307088,-0.0254633722413686,0.0321476564266298
0.00690580917747445,0.0486514874157203,-0.0375967947031502,-0.108466468896822
-0.0135032067646518,0.00271461350789601,-0.0357801296283727,-0.342015638213162
-0.0397574390297224,0.0122638776243931,-0.0202892431877272,-0.475040862557345
-0.0367139971117052,0.0582510077060458,-0.0119246534191628,-0.372532128226532
-0.00942848114811912,0.0809910783448309,-0.0189487397493843,-0.111014095829547
-0.00518039921553867,0.0708741693084079,-0.0242780379629204,0.179665623630184
-0.0410419255031125,0.0597814095405996,-0.0253756489480074,0.410206199222424
-0.0879618493427825,0.0568635223880557,-0.0304807544398218,0.532162736749651
-0.101941288887469,0.0582820841352979,-0.0376633919806407,0.552632192409418
-0.0866689522131259,0.0886206561447167,-0.042482908099153,0.494387196541366
-0.0707435309217886,0.176393124390736,-0.0326790862696726,0.375066426758664
-0.0560788293290009,0.286551524259797,-0.00467040477049924,0.203425660212691
-0.0475997390802681,0.345462074201903,0.0200452352192121,-0.029227413970043
-0.0487283110741824,0.326611050645371,0.0254834962954172,-0.284177644309775
-0.0330307162497116,0.272824858772587,0.0206467545929206,-0.454652088870863
0.0279950066330169,0.205542334366657,0.0149973050678168,-0.467253187657563
0.127226783135827,0.0656773883343618,0.00630796296042933,-0.359912968876388
0.208236182048756,-0.169916366837259,-0.00368907410814616,-0.240083502444122
0.225831645634664,-0.385636382202945,-0.0118423043646119,-0.176367279016691
0.197933102988829,-0.424168434320597,-0.0228224154758679,-0.154085062222747
0.138046239822197,-0.246528562082146,-0.0334884676798187,-0.12168933853823
0.0373922894074942,0.00778933627007344,-0.0338709416995685,-0.0519141212495393
-0.0523570531839901,0.154581927461321,-0.0289644113694392,0.0272341801953964
-0.0655019449235232,0.141324403695815,-0.0246421511851893,0.0778802947061382
-0.0388538371380934,0.0329117482512574,-0.0241028160966811,0.12190538462954
-0.0254152990083841,-0.0803376698531059,-0.0385706669277687,0.225975131405391
-0.0155030176452989,-0.113063467171989,-0.0604018899920752,0.419463033060877
-0.00533274558571204,-0.0374243937220483,-0.0652175535336612,0.61788254589621
0.00279855990886809,0.0528633751207859,-0.0501652740703519,0.655841753001051
0.0161922867483329,0.0699236316175227,-0.0314914062773841,0.469619576540281
0.0206883404725403,0.0645264129081932,-0.0185052042789552,0.17393649813764
-0.00237577829871641,0.0866364182279207,-0.0118613090977231,-0.0833216787656252
-0.0470800861381773,0.0927017874998527,-0.0122668166499595,-0.230478818508806
-0.100658264748154,0.0499540073042816,-0.0173703198245831,-0.260284436184791
-0.143091963321423,-0.017434969879711,-0.0217832013642572,-0.204881549290541
-0.142001894129381,-0.061103744948265,-0.0225665237560978,-0.128338972342984
-0.0825778112996108,-0.0650642367437864,-0.0203143087326009,-0.0980743944072542
0.00746764343365242,-0.0612215836685353,-0.0173010639730859,-0.121470915684949
0.0759860844802498,-0.0730102775294182,-0.0161194762652172,-0.139689610544101
0.112866645667976,-0.0899519828391111,-0.0162321658250401,-0.106422718909505
0.150080502784937,-0.0944599925538924,-0.0141863590423332,-0.0498059877720245
0.181382770825455,-0.0996286695668709,-0.0157529866824689,-0.0729652618000322
0.187701742998313,-0.12486464491359,-0.0259276166975398,-0.242201913655783
0.192695793516626,-0.162164600466783,-0.0381313395487611,-0.439624592288415
0.191652527310858,-0.217536198274547,-0.0471140557192713,-0.462535949697708
0.143090137811173,-0.305161051629287,-0.0535808358033366,-0.251974085371079
0.070943148753475,-0.346651380317944,-0.0588649019008112,0.10379388377176
0.0296066038828646,-0.241177591762619,-0.0551319860220109,0.483204854713901
-0.00365561600319655,-0.0702335212611978,-0.0390295790405947,0.751755474478247
-0.0599342620866179,0.0176360821108764,-0.0274230264379066,0.812071515396195
-0.116963990452764,0.0189733893894361,-0.0303669169704297,0.672755697984361
-0.159404683629878,-0.000729125966055962,-0.0365195246734879,0.393334715572641
-0.183478968714876,-0.0198102741657398,-0.0351203555652904,0.0422881629179181
-0.173662723036179,-0.0360028486756334,-0.0296841739472999,-0.286651819429175
-0.126441723541398,-0.0292920246435611,-0.0281286587741507,-0.51079075005413
-0.0669566652897572,-0.00209954969320054,-0.0302381101941741,-0.605656934423923
-0.0190437298737529,0.00749849906404835,-0.0307886998253409,-0.594197822691932
0.0161509487723687,-0.0188263730394815,-0.0311023277663476,-0.503039067604426
0.0361450465416765,-0.0585364352262712,-0.0360219768462711,-0.339845320582315
0.0432145519358719,-0.0761112531766779,-0.039847999185372,-0.127158463157142
0.0599958514583856,-0.0638138869479237,-0.0368686595764326,0.0497117585437529
0.0910375302707834,-0.042564091647192,-0.0308108935130208,0.104321641008208
0.111745630517571,-0.0147446412643676,-0.0222477571633986,0.0585134027038748
0.109920187893554,0.0283360765685516,-0.0115819742235077,0.00545931281039081
0.100134401122013,0.0647545542984813,-0.00677344281958633,-0.00152709286376375
0.0790938777226949,0.0669520149321836,-0.013129526457946,0.0373516840804948
0.0404755843885789,0.0459223972544503,-0.0240687324005344,0.113462795589871
0.0219525231247073,0.0445455786196692,-0.0230163887510072,0.210310271534204
0.0508842275139887,0.0774092619389749,-0.00634084086517189,0.278933966784087
0.107713859187527,0.101260110952432,0.00427526328006841,0.277722877927706
0.153799684949811,0.0813760174008732,-0.000686565760352557,0.224235856765512
0.160131048295033,0.0465635274809853,-0.00808758757164138,0.148811809818944
0.131765767542819,0.0217642367026115,-0.012118383939322,0.0518719270185695
0.0845304683157018,0.00564572359580982,-0.0150962810271135,-0.0539731108581564
0.0177313010973766,0.0119015925026902,-0.0174454329976298,-0.141086972740348
-0.0515913346846467,0.0292567504587235,-0.0186472624575571,-0.197315671474027
-0.0787950446071001,0.0429360004790407,-0.0207662172933836,-0.209085149937348
-0.0562610441061987,0.0551922433833935,-0.0252843614567207,-0.167642421618918
-0.0169334343486197,0.0541301002275824,-0.0261416057959344,-0.0925271976097001
0.0212294606905345,0.0501799767658464,-0.0151464227006018,-0.017936005689227
0.0405540557674471,0.0678994249204068,0.00359581034055026,0.0175122998805876
0.0275086676874982,0.0970121940305666,0.0135107517507469,-0.00393044110485594
0.00779662057608032,0.114392389831582,0.0113842140261536,-0.0461733695740353
0.00795723782351554,0.116129228201765,0.00815461928585545,-0.0560054166544357
0.0200838392191033,0.097876090342822,0.00844467617777533,-0.0218250077231248
0.0213730384930261,0.0618780820361461,0.0108223075155337,0.0141704341576813
0.00266795533064958,0.0485582305601518,0.0101875747301048,0.0163297895964699
-0.0200193584720341,0.0766228554539581,0.00409424124524435,0.0218536487493915
-0.0214050810848377,0.105800420981592,0.00141659673902944,0.088977622677351
0.00781441500078491,0.117624205620305,0.0110377180448212,0.199676045216925
0.0489219089803574,0.121277803719878,0.0244613448383369,0.2563430738054
0.069055392835122,0.0874718194210342,0.0245144803805503,0.202794035976795
0.0544289979222435,0.0120950382800255,0.011434748936218,0.0811931983957171
0.0277172836765109,-0.0396199464140581,-4.16541382511973e-05,-0.0610477338376723
0.017118221962703,-0.0412847854105624,-0.00341860076651372,-0.182433710765415
0.0223932929904102,-0.0230749649582821,0.000906555596896858,-0.217794451833885
0.0180917645357808,-0.0123007055903354,0.00749519179842412,-0.158453580924222
0.00138318986485989,-0.0244498202577072,0.00943610503072852,-0.0733490711241636
0.0161158328284291,-0.0411343327494432,0.00586690909222339,-0.0379314529714346
0.0526373039288789,-0.0378361144522696,-0.00179053971869412,-0.0883393144852288
0.0301926645581736,-0.0331786946118614,-0.00515820935973986,-0.166726914888802
-0.0503522720196702,-0.0431193591836937,-0.00197481563514293,-0.14879883824006
-0.0958016610302251,-0.0220876209872627,-0.000294645578535166,0.000545532841893737
-0.0803813221962317,0.0609980126916905,0.00725310077792999,0.13755769962666
-0.0628778381806905,0.141060034610471,0.027140727317711,0.105675362571281
-0.0815667984086119,0.159984751841904,0.0413076631453225,-0.0144472716819359
-0.124365490557277,0.133191883237702,0.0366539885801017,-0.043304888664306
-0.1369936293478,0.0802684267648901,0.0209333068702723,0.0245954362040716
-0.0891062094934852,-0.00637723699101332,0.00448656596933329,0.114689922599491
-0.0311731627021373,-0.0969536711162503,-0.000318414753811586,0.203134929084609
-0.0103822859753241,-0.123648316837043,0.00866055946887587,0.261280733515651
-0.00732984001634396,-0.0831457188133641,0.0144910795977703,0.253109460496125
0.0061319582861158,-0.0158774355120857,0.012888250727494,0.156211864177987
0.0360606806610524,0.0445099878330103,0.0108019738050843,-0.0310700850314544
0.0706303697849276,0.0529974361178237,0.0094814229395336,-0.228248721843522
0.0776665200069783,-0.0230911531579526,0.00832440092628632,-0.322206919333856
0.0600858585626385,-0.164683390481989,0.00547091703706348,-0.298954401229742
0.0553171746984751,-0.259244633667587,0.00489026783651473,-0.221740919057296
0.062355654999963,-0.1854534389626,0.00896979283611375,-0.130214201870877
0.0535035373497732,-0.0108194246987717,0.0130901885923456,-0.0312926550970085
0.03361956357993,0.0901727591713108,0.0157732274661363,0.0564351496156904
0.0306680796428234,0.0904625221305499,0.0147185623177744,0.104986124548879
0.0386649087581704,0.0686637062391327,0.0114642987161266,0.115998516840902
0.0368680581836261,0.0391710286112953,0.013957124431484,0.11520471339338
0.00917215612618705,-0.0133816022240222,0.0205221771945129,0.113275598976436
-0.0562836083432175,-0.0562838976824475,0.023370631796496,0.105368903403325
-0.108480919786151,-0.0561476954897024,0.021703660734112,0.0923870412933629
-0.0998536702670086,-0.019268366758902,0.0185878785199453,0.0728752856769594
-0.0767661995020982,0.0270388479675087,0.0153599802318124,0.0435396055028795
-0.0781693131891039,0.0534009918566103,0.0147807880094872,0.0187850164884227
-0.0795122752247658,0.0601947697932066,0.0187744518111229,0.00920029090334588
-0.0787788811859199,0.0793105434656007,0.0234871695610845,0.00772844825460829
-0.0932442217316796,0.132078677110524,0.0279815562595459,0.0234324648840325
-0.0990449101633723,0.182301895732064,0.0336511301904793,0.0727391936354514
-0.0755503069737831,0.183067068263032,0.0352141447061312,0.141011796686174
-0.0418536961419695,0.164217191994085,0.0311845502189879,0.19514612179856
-0.00760519235125931,0.17273842214737,0.0297982463404305,0.202613221256981
0.0390672612995242,0.19148485762486,0.0369258718361302,0.142064977378254
0.109333412772485,0.174387727010196,0.0503334556205518,0.029126458190762
0.180159828387127,0.125966305037639,0.0600505560916843,-0.0980946303121137
0.188643743695506,0.100813305626305,0.0567932336782921,-0.217146600313613
0.106385928201875,0.0986787292859125,0.0434180326328617,-0.308673252798037
-0.0284144930393021,0.0538202166789188,0.027642506870705,-0.342906612280204
-0.152917492544542,-0.0515215375065535,0.0123286775059354,-0.297382777269116
-0.214843230235681,-0.171138109165392,0.00093407105562146,-0.160486012574616
-0.184483443395142,-0.252053498114217,-0.00123182532716204,0.0333754560514254
-0.110463978833177,-0.240101508220049,0.00714108667466461,0.185514290883118
-0.0847165392595533,-0.111094867724194,0.0238205358951417,0.226837194795835
-0.122447021787366,0.0833559977801929,0.0405117203079625,0.196814101527342
-0.178501241692817,0.243971670454897,0.0496764921556793,0.181149668076579
-0.200477593663175,0.306796739020696,0.0540640756338745,0.18710001905818
-0.165835982964799,0.298922926786454,0.054003200259933,0.14217495311412
-0.104476938700832,0.280929806172761,0.0484238359193125,0.0183043547129446
-0.0556370503953554,0.267774170843376,0.0431875199536679,-0.116111673255675
-0.0200676266817664,0.226712063561831,0.0407116983209,-0.181701281573802
0.0333988166607063,0.126098215888362,0.0379911272124395,-0.186542842010107
0.103121981780339,0.00784232591752082,0.0349007977370609,-0.199696910493545
0.148729331199529,-0.0309766923370302,0.0355522776612311,-0.238831403100385
0.157684449167468,0.0206214416553631,0.0391080910092489,-0.245417358272197
0.139228268340681,0.0478322154733191,0.0389000447610382,-0.178996844939744
0.0821319947413676,-0.0331251975112085,0.0295336262340807,-0.0766632114438399
-0.00434544661703995,-0.157065338972554,0.0137715994142131,0.00628064858364741
-0.0522984011634961,-0.218593764841055,0.00584744610149353,0.0673986141176096
-0.0239540736069572,-0.193159350133914,0.0134841847472819,0.138001157064189
0.0151869385068773,-0.105386044896831,0.0234990059154687,0.211330563006961
0.00851135963185168,-0.0263287020400959,0.022243355409451,0.231680696263569
-0.00920817538827265,-0.0301934556996288,0.0180409839140317,0.174759023515486
-0.0086934629701908,-0.0874082195646781,0.0233987114541673,0.0781842121279135
-0.00988771697535068,-0.11631391369392,0.0323431434080173,-0.0201882207751501
-0.00698167785660433,-0.0999481736566261,0.0328851256173624,-0.103264838143541
0.0231948034356736,-0.0860474335696106,0.02163896818633,-0.155453867357014
0.0566063081335761,-0.105727283082156,0.00577721824234226,-0.15301886750343
0.0651244357237411,-0.131955266439138,0.00137208680940644,-0.084790105570168
0.058430852091012,-0.136096526735833,0.00852158389047158,-5.77686080997508e-05
0.049471302876592,-0.135924228916832,0.00980475747075258,0.0364805264895246
0.0413047620259666,-0.136184634261129,0.00846469959184333,0.0250472578641843
0.0442253704733107,-0.107946797653548,0.0166175790090131,0.00605981812215236
0.0678739144007041,-0.0619086543036401,0.0264926717664932,0.00564847337843268
0.103228407327653,-0.0388094378122903,0.0313240665812608,0.019167463667682
0.122321674668627,-0.0480083291793542,0.0340612675844355,0.0228500999487251
0.109642789095837,-0.07239522846711,0.0304398322621991,0.00870004317273941
0.0798443570549264,-0.0668949716390179,0.0187249398346827,-0.00496626831132122
0.0452048292535078,-0.0238265469877504,0.00886899767033012,-0.00343581536071669
0.0205002835839329,0.00457072368192683,0.00629159806281544,0.00435630025543732
0.0278406144888189,0.0273987621539143,0.00834964169454263,-0.0246210319019597
0.0490268537616322,0.0553841014621322,0.0128061004923307,-0.160486303954224
0.0536976569147955,0.0469735222106802,0.0175320643857169,-0.385744814699282
0.0472652667387152,0.017214759783434,0.0191166738454965,-0.527228917794925
0.0385287119052622,-0.00069516322746957,0.0150946316083665,-0.414156174881048
0.0328420253052055,-0.0453964553627809,0.00730082275739762,-0.0454444389511452
0.0421154380375068,-0.15460893293995,0.00227351262191803,0.420104637898939
0.0672519765989145,-0.262125596702605,0.00575770728042434,0.789741740790173
0.0878007810329145,-0.271442081308583,0.0144445985242972,0.934295923935755
0.0794323904862834,-0.194391447513347,0.0187086449743536,0.799313880843888
0.0451271195774151,-0.113263406115904,0.0184803669995684,0.412948087399697
0.0122145705826336,-0.0684135259324123,0.019244051194441,-0.0687303809038857
0.00356705106660491,-0.0373376767951059,0.0219246825439009,-0.416860321887139
0.0180842515392346,0.00971759750268859,0.0276600821576735,-0.517226815000284
0.0375366992594637,0.0537327310429264,0.0303279622548436,-0.436145719961517
0.0426970954846474,0.0607913057974206,0.0202642016058887,-0.294404934326957
0.00182771798669729,0.029217081210686,0.0058817053609449,-0.166892892890904
-0.0782249298259269,-0.00836768309760371,0.00415242818000702,-0.079547778504206
-0.12307890106306,-0.00867381055402089,0.0157974943477777,-0.0281249235726102
-0.0934437259450675,0.0283893760227846,0.0241902502992844,-0.016327443715032
-0.0391686560207621,0.0510454981665758,0.018432070280019,-0.0606275926418334
-0.0223086871402142,0.0273154781787103,0.0075838895226746,-0.135384084958845
-0.042521967526362,-0.015907956292324,0.00272458479654234,-0.178694914713482
-0.0655119029835925,-0.0425379743419076,0.00381827485741932,-0.141383546927332
-0.0602132198557564,-0.0439845714252884,0.0098829652729056,-0.0108283658725459
-0.0248123595200438,-0.0301588597172237,0.021358698176719,0.163800941483486
0.0178833107113113,-0.00795036387050478,0.0346116534323728,0.293188912941708
0.062375153487013,0.016919906011843,0.0466787905251581,0.322879929737896
0.0880452879854083,0.0237988233674561,0.0518114143650924,0.277148188393529
0.0539726005829537,-0.012713207668223,0.0392729350186313,0.218421259236338
-0.0191254223700107,-0.0840320392158052,0.0122657060404317,0.170051384269062
-0.0666948943302054,-0.138181985560548,-0.00716372381423221,0.113668993233961
-0.0732377203132441,-0.151681152888332,-0.00777460080664125,0.0539891379342259
-0.0568630316975995,-0.155081944249525,-0.00335558258785021,0.0218313937423935
-0.0286119084975048,-0.15751558043793,-0.00374452698943123,-0.0078037641500896
-0.00616273630297625,-0.126519723986711,-0.00171088864972351,-0.0952566798691681
-0.0160417803726144,-0.0727741028385073,0.00316303442181223,-0.212077183092245
-0.0586585833994701,-0.0461233456077366,0.00530272101727797,-0.263648756653361
-0.0883434246179388,-0.041939512986324,0.00693679887953733,-0.207129465026621
-0.0870843039356071,-0.0253384526975095,0.00866044009589102,-0.0701393611683912
-0.083088005865099,0.00853972497896252,0.00996630532957685,0.0746460320003816
-0.0784390785319668,0.028067309827124,0.0125452853292808,0.153397880835724
-0.0537414444301696,0.00273120030212352,0.0184010594839405,0.157724552972152
-0.00799152848876783,-0.0419784190021952,0.0247563412160077,0.122215505737498
0.0341631670451814,-0.0621504329416917,0.0233914965215554,0.0740695792119768
0.0525674363648155,-0.0679928616309755,0.0131550984518949,0.0287909441443063
0.0539286443173263,-0.0947811334909589,0.00173469786180191,-0.0145334486243045
0.0537836585997882,-0.126079980738285,-0.00315591882520895,-0.0571624223478208
0.0544355664685229,-0.116417847165082,0.00110339420846145,-0.0901638322701984
0.0495846978290075,-0.0647308656745657,0.0111145630097844,-0.109781298626581
0.0454894535667338,-0.0267323196931224,0.0146056195521504,-0.11826428562462
0.0369611601390079,-0.0426850710589829,0.00428188114261252,-0.112686757517811
0.00585131150152926,-0.0667491413359049,-0.00807089513598112,-0.0837330858879249
-0.0410117575593254,-0.0544061889199664,-0.00993561468589081,-0.0380294621268824
-0.0852735309776064,-0.0386676632451796,-0.00438049006954229,0.000620600295131529
-0.122228109554513,-0.0443167007264532,0.00112125627478466,0.0426583315743862
-0.150928507542296,-0.0488911721658994,0.0037187435850225,0.139437891769627
-0.16054814639175,-0.0350840036943322,0.00640272192822004,0.273033954255849
-0.14354072860089,-0.0136375008395258,0.0142225645055126,0.3088861157425
-0.107184198322327,0.00209665059771202,0.0236016760079826,0.171281634691118
-0.0656058696743828,0.00504952642126902,0.0251588398012685,-0.0429714948050285
-0.0275355003869671,-0.00917824508775183,0.0130111866566941,-0.192604624025112
0.00872821205158035,-0.0153791900991982,-7.00436771353431e-05,-0.207137937709037
0.0411359046651875,0.000921906161634671,0.00286393444714585,-0.119195105332144
0.0608725482588138,0.00716236130785631,0.0100090727849243,-0.0347123011556049
0.067574046229866,-0.0150488705968587,0.00697121519965535,-0.0124839471396381
0.060729823706036,-0.0476156123551646,-0.000686497777140745,-0.0296442364646274
0.0160042211508519,-0.0631075239673938,-0.00467266138017637,-0.0529104207838197
-0.0550472632158322,-0.0441276205631262,-0.0059384325025369,-0.063944572866373
-0.0755650720997932,-0.00811487594131259,-0.00986029059845098,-0.0536348198183425
-0.0313591864927567,0.000986961358179911,-0.0118835105851113,-0.033252933727407
0.0153193090212041,-0.0212778635526311,-0.00612366687276694,-0.0556050787946498
0.0324953944879286,-0.0430084856141106,0.00207789903397465,-0.185507642730639
0.0330534006436003,-0.0553332440327248,0.00529121973546302,-0.369691011861037
0.0364895480270686,-0.0664523351922477,0.00328189257865713,-0.436960440477458
0.0325039087886106,-0.0807245212201876,-0.00369272060790608,-0.296542819117795
0.0150393690679039,-0.0911359877873297,-0.0132335776183043,0.00544393559082579
0.00884078166902739,-0.0893666583599067,-0.0121120262139348,0.350219947119975
0.0143129188893292,-0.0805155473733913,0.00260581297077992,0.574236194339103
0.0162960728641708,-0.069769818493948,0.0123308320200819,0.589929751475455
0.0134566696029725,-0.0616671326538005,0.0100220124067258,0.437334615892555
0.00437509115598739,-0.0592150198075371,0.00985435347528347,0.16956940000741
-0.0016351793457194,-0.0452424003259765,0.013126697158107,-0.139446974908198
-0.00162567983603691,-0.0173996613733735,0.00511297381073835,-0.347581699848989
-0.0069506614795786,-0.00188707005534018,-0.0120342365963673,-0.359795141066313
-0.0169424777614241,-0.00374408861366058,-0.016027460170023,-0.224957211899348
-0.0224727185725721,-0.0143825085792432,-0.00202122773560451,-0.0661378257847049
-0.00384846712276171,-0.0242311690599758,0.00809487097023848,0.0299513374813459
0.0318891051977203,-0.0266039974853979,-1.81082984912293e-05,0.052847282859782
0.047137990290385,-0.0259623207616963,-0.0190047499839463,0.0484972965847415
0.036204110521042,-0.0199379709661836,-0.0277393917877789,0.039317169160913
0.0186486913637851,-0.0254326649231994,-0.0162955975584573,-0.0057802985848807
0.00633620204049613,-0.0498986092498203,-0.000815979134197842,-0.0721422514492765
-0.00888702061901066,-0.0545307443632981,0.00499063665474958,-0.0987816102382534
-0.0281870680373302,-0.0448104312190771,0.00235841727198373,-0.0864983761311864
-0.0322757730265214,-0.0523736439050153,-0.00317572206126028,-0.0558135717564925
-0.0294491077122777,-0.05599744011991,-0.00537986766950012,0.00809067894012369
-0.0395664824621585,-0.0413954705810191,-0.0021300926179906,0.0904872584431946
-0.0455801921544312,-0.0232162652213348,0.00248240379133848,0.143078157955919
-0.0330932400742726,-0.0162911811523064,0.000815959956409903,0.154716343733611
-0.0142212470609706,-0.0311886669535354,-0.0114238853798949,0.150137454084292
-0.000208112447828396,-0.0575574980400964,-0.027418669928884,0.142886302697992
-0.000556326727711456,-0.0691366732718156,-0.0348927729951749,0.138349179642978
-0.00986979228876685,-0.0595110524772095,-0.0296186866261124,0.134303458207168
-0.0079812840525282,-0.0499536753708042,-0.0194907797573337,0.117435429320733
0.00664315635469057,-0.0458190160456905,-0.0109757905397981,0.0885813561938712
0.0134359623094088,-0.0345220067393878,-0.00133742075496223,0.0496850030631163
-0.000777898240816085,-0.0239685795477834,0.00615120211220869,-0.0242279801771841
-0.025564975387423,-0.0249454392358701,0.00437512754254987,-0.142740265334764
-0.0514234255842801,-0.0295477135976334,-0.00447496546255784,-0.247411121316958
-0.0756309529613333,-0.0309139531410832,-0.0146834151924216,-0.252709655200821
-0.0854849007405518,-0.0243990396443128,-0.0182117616950794,-0.131332296178842
-0.0754953865729037,-0.0055043468828237,-0.00945782084640506,0.0477754726301117
-0.0556514952273029,0.019080215293844,0.000912242946608858,0.179067212004773
-0.033260598796283,0.028727016819293,0.000669629189027271,0.227969017179146
-0.0156468968071036,0.00851994709961112,-0.00584034639207028,0.21647388945919
-0.0134477706155763,-0.0241119348383485,-0.0143193247658665,0.136667670054335
-0.0221328887122541,-0.0444459663104941,-0.0243388640848089,-0.014945047655635
-0.0288225570266997,-0.0506686179523039,-0.0296159380178394,-0.161292849843187
-0.0352415842761041,-0.0484407465994634,-0.0277643954726628,-0.206867216185847
-0.0408974938760405,-0.0411298257234988,-0.0232530493180279,-0.147158885435716
-0.0263929426686701,-0.035671743448184,-0.0216284223089791,-0.0472775462396084
0.000228395212032221,-0.033655547354121,-0.021075243892369,0.0485971283871433
-0.00912682616471469,-0.032403900599133,-0.0147553798988731,0.136741550364922
-0.0530036378030224,-0.0369498281779669,-0.00601166486458739,0.193354800347791
-0.08119358344261,-0.046846563008273,0.00130696160867079,0.160106370859107
-0.0773232354991647,-0.0433508563913189,0.00975208332320424,0.0283663900447173
-0.064232781596438,-0.0274709703266655,0.0128138580152355,-0.125636032038234
-0.0661095478823522,-0.0280536438292938,0.00344942308148933,-0.193119697759486
-0.0731097001706566,-0.0418581906794434,-0.00984263681482015,-0.115680782020006
-0.0603984742357219,-0.0443875740798543,-0.0120817985570105,-0.00148945337646769
-0.0308622870656985,-0.0413861689167205,-0.00114577506824709,-0.0388589252452225
-0.00515521287336741,-0.0410830513666016,0.0108870188834254,-0.206573791748414
0.00607668883329873,-0.0316766847134325,0.0139977782313267,-0.305616521604201
0.00333668144481936,-0.0198629033289943,-0.0016241843293412,-0.234747979631587
0.0126456653111629,-0.0132639386117259,-0.0315326241247373,-0.0423303097319073
0.055049436415492,-0.00142656311040424,-0.0470398748040223,0.170448606966759
0.088907705436882,0.00254111408554841,-0.0454824136264693,0.331161204200477
0.0771479324363121,0.00707288535140961,-0.0400820265154799,0.414847734858199
0.0397013163027568,0.0409341673642427,-0.0240030275950916,0.361784694195568
0.00855871246237917,0.0694868218312442,-0.00570152161984983,0.103095367577995
-0.00282159495980712,0.057707810450225,-0.00165552967717918,-0.257117427617197
-0.00565975297592386,0.0221055747206421,-0.00549287247075526,-0.48254086110819
-0.0169234887400019,-0.0196094147053612,-0.00571927300513302,-0.447263267759625
-0.0402766691825431,-0.0534659012297795,-0.00445550005089878,-0.209713844058932
-0.0639341527790693,-0.0641380346752118,-0.00870294502775627,0.0638966684194664
-0.0696280373041106,-0.0537185944621172,-0.0181855860892557,0.217960665647826
-0.0546088700995854,-0.0304522658236494,-0.026609385730724,0.227411237583983
-0.0357311292379707,-0.004532885414132,-0.0299511264919164,0.162708038003448
-0.0214761112773894,0.0110215793768503,-0.0267366665659087,0.0733074055263343
-0.00115499872335915,0.0287831957584932,-0.0122604349012459,-0.00952959815889193
0.0262975662082854,0.0595196235762725,0.00633849164336361,-0.0491140372852369
0.0415148755781482,0.0775262686616259,0.00992318931894447,-0.0558653770885313
0.0330777041123585,0.0676339019067005,-0.00362000919791879,-0.0820055400645534
0.0184829793494866,0.0613451877543733,-0.016607922064073,-0.138265438394615
0.0179568682522968,0.079218038696811,-0.0196961550349818,-0.176920009622737
0.0271724398820323,0.0948214147773556,-0.020427249242062,-0.151424889767869
0.0287581482774148,0.098898474726702,-0.0203426352240319,-0.0652297831071958
0.0165508185467756,0.105582683056463,-0.0164719263540234,0.0313658485564721
0.00623809301007752,0.0975177164282479,-0.0155193207640201,0.105076418878029
0.0110304447875214,0.0340939558295204,-0.0201152241142033,0.181713688516132
0.0385125336675906,-0.0876201410109474,-0.0239878827991425,0.266382392855851
0.0744906241113428,-0.178694162261764,-0.0249626267320716,0.285988674375938
0.0709562417949417,-0.149117978953628,-0.0263017368747885,0.193223212274841
0.0203332971875882,-0.041771036492007,-0.0275939407586893,0.0427785705804845
-0.0305515691727365,0.0471486951587207,-0.0256695946533312,-0.0787898974678705
-0.0533736646028753,0.0889578777089147,-0.0229409097351945,-0.131829767831508
-0.0601170708924861,0.100777627335683,-0.0200237898718329,-0.129838428952753
-0.0581189333485112,0.0951635952557947,-0.0164794351069738,-0.108179000122045
-0.0425714602572246,0.079190409316295,-0.0156177827527017,-0.0902107638029292
-0.0177462791225102,0.0666899372599542,-0.0168297538094353,-0.0709064654140956
0.00987302605252977,0.0560282978952694,-0.0193808053316348,-0.0278896375954314
0.0166147891947639,0.0296264400199385,-0.0245502812910598,0.0355222302531724
-0.0197001793410208,-0.00666613478902899,-0.033945645279404,0.0788339576902656
-0.0625566533824186,-0.0204028191398663,-0.0420430659999568,0.0885741589549187
-0.0581442571691589,0.00334628043429874,-0.0375304145541246,0.0906281302529014
-0.0188263858280685,0.0400963394622259,-0.02357497051664,0.0867905130645648
0.00650776407381619,0.0586485361781863,-0.0141431999016202,0.0600562744213043
0.0108162746031643,0.04958129461262,-0.0133675442661341,0.0218786282314493
0.0147205583026604,0.0124048481782594,-0.0145120036123351,-0.00472585319629675
0.0217756541087932,-0.0373226809390062,-0.0142833897199356,-0.0166219344695227
0.024721017547864,-0.0613034924084792,-0.0163419535619688,-0.0219893857757223
0.0176727837264125,-0.0480947359782421,-0.0207955701084708,-0.0275305744422306
0.000377853946225909,-0.0223890454666431,-0.0231918604174303,-0.0390907328137745
-0.0176458900704423,-0.00344324805771614,-0.0206573379752201,-0.0599636337637449
-0.0233081274327714,0.00483088169353175,-0.0160094691435622,-0.0843663793233976
-0.0153706851108876,0.00853149753101628,-0.0144865329373732,-0.0923109481491232
-0.00529396567414191,0.0131893595768782,-0.016764511887094,-0.0571011158191442
-0.00148275678310814,0.01808439383198,-0.0187186605832418,0.0122776893550025
-0.00567448080760676,0.0244531438744973,-0.0177029510292699,0.05846651825099
-0.014992751256297,0.0254928604377919,-0.0178932438212323,0.0558101700839358
-0.0269653787956094,0.0179375179497797,-0.0176389544241074,0.0366138447702896
-0.0469448490104372,0.00975996026764327,-0.0117635667478018,0.00201899753393204
-0.0606071493761233,0.00299924581385069,-0.00806092899911082,-0.062536823834349
-0.0495561961810263,0.00223666067106091,-0.00990602493571546,-0.100829970283141
-0.0358434716335406,0.00900751632905843,-0.0104002881939334,-0.0681388128319422
-0.02407473638913,0.021439281767749,-0.0109637365319647,-0.0128458469662006
-0.003122675911284,0.0416278087783062,-0.0137983954751236,0.0089553452493781
0.0134819906971795,0.0653983641873859,-0.0176336104147955,-0.000280089680421376
0.0262956720353229,0.0825303005448208,-0.0227247047607668,-0.00541727001165289
0.0353452463134825,0.0766353524353348,-0.0257390520377474,0.023154999827734
0.0378648450391282,0.0290172667719197,-0.0226291902252028,0.0666791992056959
0.039211894098536,-0.039328232356984,-0.0137642212449819,0.0553102104041297
0.0312421984191798,-0.0668584406690274,-0.00500581388149837,-0.0373175274914566
0.0104395703144992,-0.0387397962131426,-0.00288348603746473,-0.143940920868267
-0.0138247847039485,0.00783267346375123,-0.00629136657558122,-0.183195053151829
-0.0330507056566852,0.0469673927239301,-0.00843230364372884,-0.126147436116839
-0.0372748686294722,0.0684410942974154,-0.00631695590081792,0.00506617111095498
-0.01840446952275,0.073809081316219,-0.000435709834707907,0.150670335620587
0.0179466753586196,0.0724653120609123,0.00712748610666752,0.222785218703117
0.0463128689954884,0.065674115785349,0.0111383973079504,0.151402624710813
0.0439605642217643,0.0541945066336422,0.00934080602721444,-0.0495282403951428
0.0246982339785234,0.0477338716262527,0.00235572623569978,-0.312567842515046
0.0184737555835098,0.0482646778347447,-0.00834645238215433,-0.524554955332043
0.0278223295199792,0.0422360769667698,-0.0158381073304802,-0.521242748425492
0.0287827151743629,0.0214278327895386,-0.0151127836532581,-0.272349012175848
0.0274190275024152,-0.00235759050076753,-0.010880652165365,0.0682884791945989
0.0503988644538422,-0.00394222790236418,-0.00614050772099504,0.365014723486463
0.0727880327671881,0.0155562659543639,-0.00219729839016137,0.564148189605112
0.0628961070517817,0.0181076554677921,-0.00717277095514884,0.639194660562801
0.0285936337977984,-0.00566237796049654,-0.0203262754180192,0.580778488358398
-0.00756998242382845,-0.0173201035605471,-0.0276992469838379,0.395773144057409
-0.017577007218703,0.0143962864940477,-0.0195343528144299,0.1331198114308
0.00784591932257349,0.0729390209657305,-0.00074791015812764,-0.128083690111559
0.04688374687441,0.11019252015377,0.0129175378381075,-0.330269904786181
0.0698200621470863,0.10506409797925,0.013977958741562,-0.449047284726234
0.0706358084087992,0.0811296449834678,0.00940104958947062,-0.48243809604638
0.0665644733440353,0.061867625439552,0.00595986325747665,-0.425611281006436
0.0757957423458159,0.0425836298045809,0.00524772280264635,-0.285667474522711
0.0995385287454197,0.00618613291377508,0.00268764645758722,-0.11131360812265
0.120128723506905,-0.0405320128714751,-0.00525743119931074,0.0468986424227094
0.122735027252313,-0.0526281485630804,-0.00626759245436136,0.171714853565808
0.100058473298525,-0.0138418432473915,0.00634511858309204,0.257649467873557
0.0572901466486183,0.0262140767335594,0.0166715530762587,0.296795516158619
0.019324197573398,0.0319352575715464,0.0145295257589847,0.28832524008052
-0.0014495928591747,0.0189150346541081,0.0047350576176349,0.238826837890894
-0.0281525452172729,0.0225373140694998,-0.006587415110499,0.171355405140678
-0.0510786295793663,0.0570226411014491,-0.0127787100480507,0.11863250394878
-0.0190526891552913,0.0867816657472998,-0.0120474231257419,0.0620599704345247
0.0418455627334798,0.0706201008539788,-0.00861767420994429,-0.0471682251897291
0.0585364624288205,-0.00358043285062414,-0.00793363180481547,-0.176654689442498
0.034712618638654,-0.0850851522235294,-0.00864388822919149,-0.225977575747214
0.0179107076179979,-0.0918477582806154,-0.00675134945180269,-0.152400998863904
0.0283823543728886,-0.0359785294937857,-0.00477256737004775,-0.00741466373499092
0.0598892810471476,0.0136860633318295,0.00470097432150608,0.126152075982929
0.0852451981495381,0.0248759812493072,0.0227923468290453,0.196867921319015
0.0757473734634428,0.0122141061162972,0.032185721979251,0.220420748777081
0.0425804049682227,0.0183899718789383,0.0282019817769101,0.231749058059176
0.0101962687113535,0.0645595821596401,0.0192972756684612,0.20570463240642
-0.027227201994175,0.1270979796509,0.0127502218163011,0.100375132682415
-0.0653428161517592,0.135430087978694,0.0124932879821864,-0.0514789736147416
-0.0676939347597461,0.0523722847050157,0.0146042795007921,-0.169857706772639
-0.0176178966504921,-0.047344953036158,0.0118906750389774,-0.229411674584534
0.046043492133081,-0.0798694453134888,0.00801985007400923,-0.265487312651359
0.0766150782965948,-0.0577101674561179,0.00958133012008359,-0.276976046590222
0.075737136501642,-0.0303417783604093,0.00932903990884611,-0.223449317416595
0.0635866691636846,-0.0047293615071243,0.00420689997290003,-0.111634575311412
0.0442475711608371,0.0264557442182822,0.00392753237602905,0.0132155954427992
0.0132494259033433,0.0501818388677235,0.0102468392186181,0.129731653857074
-0.0197621567812137,0.0583700221173115,0.0169404899362126,0.232567383240954
-0.0395005587922446,0.0496581915272301,0.0176161780918559,0.289201716000705
-0.0465400982393478,0.022926637474697,0.0118052924254818,0.261395759135042
-0.0383777336239944,-0.0113601539544968,0.00458467115737766,0.158463059752861
-0.0201463163946277,-0.0341097339386224,-0.00154896324779662,0.0290880950219496
-0.00625791771874031,-0.0272686919367532,0.000598729328355391,-0.0829426088194652
0.00302034502477668,-0.000608889492818232,0.0123084848501119,-0.153202179703355
0.00539517418839445,0.0144427707892236,0.0210623723707338,-0.168906041088051
-0.00794559348693273,0.00655015700891351,0.0206155864371377,-0.137573453006344
-0.0266862024405541,-0.00754152287764968,0.0148537094988504,-0.0849213579688123
-0.0290127984178208,-0.00728080464883267,0.0119828905282304,-0.0304811310500151
-0.0159708805690959,0.00595284686246933,0.0151631395097164,0.00921058404002478
-0.00526046201035196,0.0188020246848263,0.0176502848929962,0.00710161148171342
-0.00441623211774765,0.0339835957390127,0.0171614336324822,-0.0300450625608284
-0.00959928838550212,0.0539415606934274,0.0171860079728162,-0.03445328936066
-0.016044639097269,0.0637243569838399,0.0188420063263682,0.0228967629679346
-0.0197168077382262,0.0609815851013034,0.0208312798094527,0.0651657295640774
-0.0177023901396622,0.0581999452340504,0.0217293625416553,0.0146796191653556
-0.016537978191284,0.0545651327944565,0.0183607995194391,-0.0949761255159434
-0.0198030447469659,0.0402616775017907,0.00772964748612653,-0.162803031798158
-0.0188584891838783,0.0173540930046406,-0.00552514379862003,-0.143969144577999
-0.0103416407308446,0.0116120422037278,-0.0143866474801279,-0.0685837937273675
0.00656444276008727,0.0411210494453111,-0.0132063631246143,0.0251062335709804
0.0240462352289065,0.0790493421304173,-0.00203895463233772,0.0985299039762404
0.0259800444633445,0.096460274685235,0.010966337726618,0.120006080789507
0.00995304158270075,0.083114037281459,0.0170542417437138,0.092042241863404
-0.0133655751941936,0.00993076129775547,0.0108407346469553,0.0280171526414603
-0.0213994500867389,-0.133525097099092,-0.00294119685413102,-0.0441951963892765
0.00294803213784601,-0.245070036010776,-0.00959923225759801,-0.080305653149229
0.0381793841272043,-0.211412356997902,-0.00340539984424692,-0.0713289573388472
0.0527429973928944,-0.0811548687339554,0.00649071332277484,-0.0426352110596845
0.0468753291022274,0.035796631988018,0.0114377751305863,-0.00873647358677977
0.0323819684255339,0.0992541322687768,0.010892668809313,0.01932389944102
0.0159791495550195,0.114846499889736,0.00722773823452162,0.0161972800005028
0.0103480600608056,0.104928812240707,0.00407915560377159,-0.0270429627216703
0.0200649599857358,0.089907882988904,0.00637233248090372,-0.0764976814736144
0.0278342246926048,0.0709491066030641,0.00841440997272437,-0.0758022424621811
0.0296604971820151,0.048013452899145,0.00348992455032116,-0.000917749241780647
0.0397704086777136,0.0385254095832871,0.00104535927024363,0.094523189538449
0.0647160919772825,0.0479663456170156,0.0078197266062162,0.122936348686916
0.0912172751343014,0.0518873480281858,0.0136461616387626,0.0657343977531447
0.0856176363775284,0.035874167126271,0.0100813526121278,-0.00909519263849777
0.0504130056077232,0.0129036644241337,0.00305553115297794,-0.0296656157482649
0.022311837684065,-0.0116676867849612,-0.00215730585722965,-0.00126412962171252
0.00832466377469269,-0.0351026053790704,-0.00741443943973703,0.00931296362461239
0.00190786527166788,-0.0414843888219095,-0.00811301200348562,-0.0306267401618764
-0.00314241796621647,-0.035702387081095,0.000392862563209457,-0.0837776789506661
-0.0230798382329553,-0.0418737498541943,0.00951631666311596,-0.100071843710195
-0.0523784481019635,-0.0621080604562444,0.0109009336026517,-0.0608528512629365
-0.0618876650081271,-0.0743317517301218,0.00810425269549198,0.0127073663599062
-0.0504926755542373,-0.0608868441764062,0.00743649899443098,0.0645538352529793
-0.043264349644246,-0.0228206374406112,0.00973781812513026,0.0545779396839506
-0.0457377860826698,0.017076332994436,0.0114450942063279,-0.00139057606626716
-0.0390813414927365,0.0434917220226885,0.0102648908800589,-0.069355782479927
-0.0100013402830555,0.0804344584336551,0.00706968061637385,-0.131930096776325
0.0342160522901998,0.131300398948169,0.0045202634258663,-0.163853079242191
0.0739382262600388,0.136031728375711,0.00238288288685781,-0.131821278000415
0.0893341369917585,0.07049681292341,-0.00234090620473503,-0.0171143723775357
0.0697716103097809,-0.00651303534344055,-0.00617022959828498,0.173548790756435
0.0253529316216563,-0.0379669052543842,-0.0049986779729681,0.366641889408892
-0.0202851364044599,-0.0218113727579894,0.0018341744454072,0.445560672759193
-0.0555621352884898,0.00229089974928134,0.0116326184207049,0.337874162668913
-0.0710869565472063,0.0118137445382576,0.0197643570970123,0.0499966917706535
-0.0730870298247767,0.01456727084964,0.0251637044031498,-0.293106024365118
-0.0898354633951187,-0.00645059119832712,0.0239415429525523,-0.496042326343715
-0.120898593916624,-0.0488404819583514,0.0139583723049341,-0.462762082507469
-0.124024928121312,-0.0402193936666299,0.0027252977721166,-0.245494168217739
-0.0578950394483822,0.0560927481225829,-0.00419154292266935,0.0346076253542391
0.0483504793952379,0.163297613676112,-0.00911134562620154,0.266889129794749
0.106120014052864,0.173668753942649,-0.0137249758064325,0.402691243392835
0.0879754550117363,0.0842848693759328,-0.0145910862763563,0.428087020365036
0.0538522030993657,-0.0162950203220938,-0.00734680710954039,0.316998413823206
0.0416451215860606,-0.0619777757692843,0.00137593352576689,0.0888521177341715
0.0215698432327601,-0.0375605468780651,0.000470222609803164,-0.146921881151118
-0.0255653490972078,0.0162513603533933,-0.0044228710920471,-0.280719376022617
-0.0678238272942459,0.0346168619399885,-0.00335682300076753,-0.290796798105996
-0.0833328457697785,0.000967129216432437,-0.00108086877810185,-0.221262691649414
-0.0764026739063503,-0.0548981684896701,-0.00114130821071644,-0.125772660328252
-0.0497574513452212,-0.0867510554388432,0.00132763217855749,-0.0404951872493128
-0.0266677239153508,-0.0670568236968092,0.00393194572868315,0.0172132349570941
-0.0375426007852636,-0.0126981115052366,-0.0016542162311318,0.0420967929493266
-0.0643700378553274,0.0484735629580057,-0.0131373692842398,0.0497314850717577
-0.0618944953994998,0.0902156378833536,-0.0182520441769131,0.0715512548834485
-0.0277649292287888,0.0941566304306338,-0.0132882921956657,0.115118759204249
0.0016031842092165,0.076980906239726,-0.00506358566964755,0.150364454471193
0.0170084846447713,0.0648005705284724,0.00251147754789517,0.156655402371487
0.0380177344023712,0.0663446100078776,0.00847452375905757,0.144120810708634
0.0597785744738895,0.0720502045198284,0.00839209982249607,0.119023064260111
0.0593838856169483,0.0694605146870289,0.00148337406262263,0.0833271606628642
0.0435719955280286,0.047483282952236,-0.00906466659658005,0.0551497443249124
0.0391992926110767,-0.000888289002275264,-0.0183950982046347,0.0416863791261132
0.0374185060524471,-0.0447057221184622,-0.0194543020041456,0.0178512957246583
0.0248824712741919,-0.0599845146768896,-0.0152981076174659,-0.0355610506847956
0.0178529441798476,-0.0615791496222097,-0.0129515285432946,-0.101661774189571
0.0135152471627584,-0.0513068678830434,-0.0125649467743959,-0.146763872300222
0.00921951777511828,-0.0306045852663597,-0.0144745194005334,-0.143337992229966
0.00809160478574533,-0.0184104544036612,-0.0165763659781805,-0.0904682398978756
0.000815345047543242,-0.0108320222555945,-0.0165088539935704,-0.0249605426429964
-0.00711153957450063,-0.000220523671765754,-0.0178022034860378,0.00959964530738756
-0.014791826360956,0.00219731846264333,-0.0182663164466767,0.00735109449073303
-0.013427396098379,0.00526758860608684,-0.0116931677048709,-0.0040091084382827
0.014054399034958,0.0202302347729597,-0.00100286421263148,-0.00878156744702689
0.0468441192298757,0.0317042704312097,0.00652741682827994,-0.0141784390765709
0.0586965007762981,0.0311388274198019,0.00968670129999592,-0.0190345021415871
0.0482105569894887,0.0242897881880642,0.010294328196686,0.00603469021397621
0.0329112653122628,0.0167122469605266,0.00938357148999,0.0808818790603022
0.0283806738288188,0.0174508547691248,0.00938819765816736,0.151274715122518
0.0243200858795451,0.0319183477660382,0.0112707490624126,0.130255086677547
0.0102319681342103,0.0505650026109072,0.00957204787269053,0.0172832982457153
-0.0205455454161877,0.050793687761093,-0.000660264151935378,-0.0997463987465652
-0.0762304138975676,0.0314487791378616,-0.0111831219403793,-0.150624328331741
-0.130184238811578,0.0142600645675063,-0.0126239977054225,-0.157498013101936
-0.141685614731144,0.00575429307786445,-0.00679320665961957,-0.217852498194194
-0.109922021431635,0.00617818970271787,-0.00427205134127188,-0.340589365139739
-0.0664554757962813,0.0102820909386371,-0.0137214574063548,-0.370805338337143
-0.0398626413885153,0.00912806486664018,-0.0235123636088599,-0.206500347234079
-0.0315140563891017,0.00593958758599997,-0.0207902448732584,0.0728716360288486
-0.0222522991712343,0.00943159379680715,-0.00924611792766963,0.325293965860315
-0.00868350250079195,0.0311035335380646,0.00494487802688051,0.467068505030135
-0.00834271555853882,0.0621445212319488,0.0137155817335196,0.500372926745977
-0.0232118942670538,0.0760853433007641,0.0118168111504415,0.420388459123577
-0.0389393297959678,0.0744311680474302,0.00542167894655053,0.190647251073007
-0.0513782332873239,0.0737825462783143,0.0012577144280427,-0.118470436222371
-0.0606722144802656,0.0755481300357911,0.000669261843323189,-0.35293307729223
-0.0628594892069216,0.0763205838208645,0.00253156951920001,-0.435312476785976
-0.0583245136751456,0.0734324879315768,0.00302839487951325,-0.386330033423784
-0.0558233514302733,0.0664313575675732,0.000925205348628999,-0.266667066845413
-0.0586739325256902,0.0608865017852362,-0.000205469630448864,-0.123366326004105
-0.0592596558603745,0.0643142104746597,0.00228767666542164,0.0319210549787905
-0.0562620526069127,0.0743102524559807,0.00614054216596937,0.165772950322507
-0.0518514023372264,0.0690937446575887,0.00739740936105112,0.212546270841463
-0.0360790006037742,0.0142767573729144,0.00526243005839936,0.167718717186006
-0.00385403055615989,-0.0928285520172761,0.000750987290148753,0.0999108008502608
0.0207626964572079,-0.178520430780595,-0.00374897246936762,0.0537530888333157
0.0129869723144248,-0.158845725216264,-0.00588625016618661,0.0169435291699371
-0.0105417951387051,-0.055423760213353,-0.00570089360503834,-0.024083392496266
-0.0165904175164654,0.0338829681464802,-0.00281038377532537,-0.0494015832768043
-0.00578876967911629,0.0630933662746054,0.00229274548987727,-0.0349642015011802
-0.00403431850856874,0.0567570418530311,0.00396341252118118,0.00229599306267703
-0.0124553868580656,0.0410158618637578,0.000182976783639182,0.0244640267967658
-0.0108656319093053,0.0247496699013564,-0.00293973939345148,0.0238607612393716
-0.00238183292723453,0.0186270657664654,-0.00380785890302865,0.0158879090018144
-0.00311457243804131,0.0248311981482826,-0.00629329725026171,0.00147983611128245
-0.0171233119548676,0.0279814353117209,-0.00672708206497742,-0.0349340975923883
-0.0332085836172243,0.0251154732174375,-0.000840547987337092,-0.0848103412172924
-0.043446950708425,0.0262635101885863,0.000781282622684521,-0.0998424234689011
-0.0587293094366741,0.0335378757014322,-0.00728978786221995,-0.0510082277339969
-0.0728076996018614,0.048625747393338,-0.00977011001993301,0.0296522019062979
-0.0672889360071517,0.0646073835779007,0.00180644294462944,0.101767181416143
-0.0406678031853212,0.0590403223961487,0.0149376453391759,0.165091905901678
0.0012011247981354,0.0324650512435926,0.0178896532203139,0.225786613310468
0.0348892216034539,0.00426400184927592,0.0110697004534464,0.266287014804954
0.0354105221497706,-0.0224449687867368,-1.24500744368809e-05,0.262701345253197
0.0219992007220956,-0.0358956362382904,-0.00521560030674193,0.202906357325066
0.0297060479828962,-0.0200810258278076,0.0021850579498565,0.100505339421864
0.0515922709989052,0.00550213032384289,0.0116510939615431,-0.0205210016010398
0.0558561403281824,0.00502537198047422,0.00886259651172169,-0.148186014348065
0.0352828838910069,-0.0236192815245725,-0.00213902021170274,-0.26089111858113
0.0125673674083012,-0.0455497320250357,-0.00718711566570038,-0.321206841966442
0.00284150649690758,-0.0508490234595627,-0.00517665262683461,-0.304392880425057
0.00358909439823363,-0.0605942672932792,-0.00452415775447534,-0.217008034518528
0.0097878913535903,-0.0666203334449072,-0.00730907509921953,-0.102020895756148
0.0131014115467203,-0.0501713289881076,-0.00833543664705386,-0.00989337765675691
0.0106889233877054,-0.019812110642108,-0.0019860078742754,0.0527875596189138
0.00787392568656472,0.0110194387197045,0.00884212536538731,0.0967806042300891
0.00921305437995332,0.0413413235361402,0.0159524424325248,0.102189240122169
0.014798931807001,0.0643332894941281,0.0170396820445802,0.0615175131653985
0.0156598319459388,0.0642554559183195,0.0162120575655137,0.00638192762978488
0.00371380874934591,0.0475061896306657,0.0149978241023606,-0.0192607431187217
-0.0102511295053038,0.029920678376836,0.0134844351124395,0.017546419956469
-0.00872449750034544,0.0164512009875003,0.0134664462073814,0.102003963156632
0.00811122593737776,0.0234946251993637,0.0136088061418799,0.165793388444609
0.0213842807219654,0.0508578803079593,0.0135649251691523,0.140943468825245
0.0123152618574595,0.0561823821433916,0.0104142381602281,0.0341478192766945
-0.0118521883836678,0.0238623723173598,-0.00341582773120477,-0.069399827164895
-0.0261997379564199,-0.00788709700362288,-0.0199489302326709,-0.0998671797312617
-0.0298386459583078,-0.00896218730103698,-0.0194699436828474,-0.064190493509343
-0.0380548263798117,0.00727046446044563,-0.00336908089618082,-0.0217099192118919
-0.047784454588559,0.0139098623060533,0.0081944907061441,-0.00978909003493434
-0.0522061350873467,0.00806645888181309,0.00746261652766571,0.000785723047363185
-0.0501835579268685,0.00153248805595276,0.00323189870197113,0.0371138090926489
-0.0280784090667495,0.00374534427823116,0.00442673685762271,0.0502320854305537
0.010617598665749,0.0122538197070841,0.00816869409130421,-0.0102282765867436
0.033658847986946,0.0143300626576323,0.00842149034945794,-0.0997073141957098
0.03453048024381,0.00367558559004355,0.00799289867340433,-0.149185844208541
0.0268250107414002,-0.0149246973276939,0.00911732435544617,-0.153113524296057
0.0146215384980839,-0.0290571297204824,0.00739616198709643,-0.134587206354553
0.00120668136592112,-0.0309602345505406,-0.00147629439699597,-0.0968206289624751
-0.0086182225335973,-0.0177155881059664,-0.00575695966947931,-0.0353012374618406
-0.00569059693558151,0.0121266042620849,0.00739327576652073,0.0368982713845795
0.00807033404361214,0.0387584989661741,0.0234903482776603,0.102272332746659
0.0220587576552111,0.0385211626522204,0.026333552402612,0.147674132085409
0.0325441398083569,0.0191604870050964,0.019152401345755,0.159072391144667
0.0257177151512615,0.0015425232242111,0.0103825417948094,0.140932081926222
-0.00396396336490515,-0.00320872208697002,0.00623838888674926,0.104968226732871
-0.0371455110623242,-0.00251914213436499,0.00589400873249643,0.0361644755071386
-0.0585204790874821,-0.00851903309667131,0.00582217802171309,-0.0658517358147988
-0.0667633181561797,-0.0100370611321907,0.00909423795789592,-0.151270635420805
-0.0613960042621932,0.00374327196157411,0.0145700494776958,-0.173247624615432
-0.0427585056984528,0.020231542298148,0.0121515821675198,-0.127326335314654
-0.0199054311369556,0.0289364775921833,0.00143742245435088,-0.0415957308777049
0.0023097060868737,0.0374092648317589,-0.00510563721134516,0.0316874669040927
0.0192850617009337,0.0438838966233798,-0.0050337604689268,0.0530431363397596
0.021233318866894,0.0282273913170484,-0.00747063018656144,0.0617658402558989
0.00869173959609894,-0.00650000089859035,-0.011466518352831,0.131328310604565
-0.00510310078709101,-0.0302978080256784,-0.00809291125864322,0.22265654915892
-0.00872534323642498,-0.0282729376074611,0.0015716011066522,0.205367791188515
-0.0122615580075769,-0.0212657381018627,0.00687405029887907,0.0485198083924307
-0.026368134603525,-0.0208052354382055,0.00443369760466596,-0.128426211779035
-0.0405363220045908,-0.0116286234160639,0.00354808481294757,-0.189597674367789
-0.0499245219566747,0.0130823437455097,0.0101470401117649,-0.114858289241172
-0.0706882621719852,0.0576426891654219,0.0190751543641053,0.00160655359306394
-0.112165337447788,0.0951755528572618,0.0215286990005008,0.0634891990931681
-0.151781351372447,0.0887022869071769,0.015454947140249,0.03988192937344
-0.151361082045318,0.0548052006525342,0.00600837486729364,-0.0454267803472276
-0.0891539510336238,0.0248875642595705,-0.000299421836027417,-0.127591820273332
0.0132948678365368,-0.00730745827608609,0.00101251730777856,-0.143125357492079
0.0819082506918788,-0.056200715618959,0.00483373845524902,-0.0718146891167366
0.0738114831948234,-0.09618421467699,0.00196859657547455,0.0640209366076665
0.026170593989436,-0.0945757321370683,-0.00832335997206978,0.188737514566315
-0.00953413391593869,-0.0557513217198811,-0.0166338842566364,0.209743725084464
-0.0148477485576039,-0.00966162414005668,-0.0150133324247298,0.117774322295251
-0.00906305856861587,0.0256588824475667,-0.0105503509151784,-0.00442468354786504
-0.00169640605601518,0.0513044548811247,-0.0129639625599125,-0.0806671428460103
0.00966655634885982,0.0653692596548458,-0.0153808632296559,-0.0977594399906302
0.00534252371629132,0.0743081535456635,-0.00821403369581557,-0.0799150293373192
-0.00997371964156758,0.0946817174528404,0.00445260341938944,-0.0511539278401025
-0.000772294913227639,0.113264077739168,0.0124968607590855,-0.0234924106661055
0.0358680257972119,0.0950435644411089,0.0113854181945298,-0.00165543045494682
0.0652073007050433,0.0224057063104139,0.00516765350150481,0.0121798372638911
0.0706705719754243,-0.0906460604440859,-0.000806284539752468,0.0180256618551069
0.0714400184182809,-0.176466610585852,-0.00317665334221111,0.0183083687776212
0.0686328998721445,-0.1703606998099,-0.00318818506230254,0.018821212845913
0.0604480439301863,-0.107608915146301,-0.00326705229222306,0.024839924674828
0.0866573750829251,-0.0576268391190027,0.00106605393634028,0.0312870725261222
0.145418910254615,-0.0390965585596655,0.00910801947072107,0.0273976090623336
0.175943098505628,-0.0381715506791258,0.0118642489997366,0.0124013668535086
0.16063960633568,-0.0325552255509152,0.00916715273538837,-0.00419922042904635
0.145325675015052,-0.00628675789439494,0.00708871264094862,-0.0177192307037389
0.165546589877567,0.0481709142335291,0.00394230767252993,-0.0319520794944674
0.199315916913496,0.096518593374587,-0.00152712945462506,-0.0450637796572177
0.206698324485054,0.0883651508107291,-0.00414292316748096,-0.0464808377945848
0.166578340791795,0.0334475801867879,-0.00816181227917529,-0.0261689388299061
0.0788661924865071,-0.0233852904549944,-0.0154390269977461,0.0148708596670637
-0.0254686614231825,-0.0548921345241559,-0.012628344481706,0.0460296546723465
-0.0746342429305447,-0.047529838445205,0.00223492195726525,0.0309401485131732
-0.0347294625113105,-0.0249929195396714,0.0135500654057771,-0.0121364420085283
0.01763749112724,-0.0546655964951206,0.013507337853672,-0.0302380502874029
0.00568939432503594,-0.103142213530137,0.0117906147531355,-0.0104653489319982
-0.0504558256406643,-0.0712966667057319,0.0135638147790815,0.00882287834555704
-0.0861306256189435,0.0045325471836198,0.0133954431674626,-0.00427768219449288
-0.0552875040313808,0.0456967546420862,0.0110291905021332,-0.0317661052535261
0.0355023286377381,0.0466598655920566,0.00849838824115757,-0.0376479333472402
0.117857359521686,0.0184934693758323,0.00668020555203726,-0.0200997620510303
0.143429139341242,-0.00912150494020189,0.00927420776621656,-0.0051922299611345
0.133300419169538,-0.0166065790369538,0.0154827808787438,-0.00843737425491588
0.113392379564566,-0.0239544704579518,0.0190491887010112,-0.0235691833428741
0.0908659184188932,-0.0314833866870425,0.0219916522480639,-0.0371394026254493
0.0740973490542978,-0.0246967225231636,0.0237731306585307,-0.0427972631021272
0.0604230248377319,-0.0148675670432446,0.0169786488623375,-0.0366122147874736
0.0463662850849003,-0.0118373222673751,0.00851730906450134,-0.00851502481211843
0.0350007483219343,-0.0167786499272412,0.00419055715302256,0.0316092976671111
0.016937018553877,-0.0370732987901964,-0.00138837987422716,0.0504811151672382
-0.0123868529227935,-0.0614985341382999,-0.00364938544266865,0.0377028825775068
-0.0437331025744682,-0.0589091376783357,0.00311304077215422,0.00680480706056628
-0.0693392412519161,-0.0216350131663004,0.012083901569988,-0.0325558674953319
-0.0847187881639344,0.0151506714239573,0.0144692871437159,-0.0667627868328538
-0.089511637450779,0.024731198024837,0.0109265690378506,-0.065774177463935
